1537273809.00
64.000000
-0.00
-0.00
-0.00
-0.00
-0.00
-0.00
-0.00
-0.00
-0.00
-0.00
0.00
0.01
0.01
-0.00
-0.03
-0.05
-0.05
0.00
0.13
0.36
0.66
1.01
1.37
1.72
2.06
2.40
2.79
3.24
3.80
4.42
5.06
5.67
6.21
6.69
7.17
7.72
8.39
9.27
10.28
11.33
12.29
13.13
13.89
14.72
15.85
17.41
19.63
22.32
25.20
27.99
30.52
32.86
35.33
38.35
42.25
47.41
53.48
59.95
66.26
72.03
77.34
82.67
88.71
95.99
105.04
115.39
126.28
136.83
146.48
155.25
163.77
173.33
182.65
193.98
207.98
224.80
243.26
260.47
272.06
273.37
261.00
234.04
194.87
147.42
96.10
44.17
-6.82
-56.62
-105.43
-152.99
-198.53
-240.60
-278.23
-310.72
-337.62
-358.30
-371.81
-376.94
-372.58
-358.27
-335.05
-304.96
-270.60
-234.54
-198.85
-164.86
-133.13
-103.63
-76.19
-50.57
-26.76
-4.99
14.47
31.38
45.73
57.67
67.42
75.15
80.90
85.05
87.75
89.10
89.19
88.21
86.39
84.00
81.22
78.20
75.04
71.76
68.31
64.69
60.92
57.04
53.11
49.17
45.28
41.51
37.86
34.35
31.02
27.86
24.86
21.98
19.20
16.50
13.86
11.25
8.67
6.13
3.64
1.22
-1.11
-3.29
-5.32
-7.14
-8.74
-10.10
-11.18
-12.00
-12.53
-12.78
-12.80
-12.58
-12.18
-11.62
-10.97
-10.31
-9.71
-9.19
-8.78
-8.49
-8.27
-8.09
-7.92
-7.71
-7.47
-7.18
-6.89
-6.62
-6.44
-6.40
-6.55
-6.93
-7.55
-8.37
-9.34
-10.39
-11.41
-12.32
-13.05
-13.57
-13.85
-13.90
-13.74
-13.39
-12.87
-12.24
-11.53
-10.74
-9.93
-9.08
-8.26
-7.47
-6.70
-5.97
-5.27
-4.62
-4.02
-3.45
-2.90
-2.33
-1.74
-1.10
-0.42
0.33
1.12
1.96
2.83
3.72
4.65
5.61
6.57
7.55
8.55
9.63
10.79
12.03
13.34
14.71
16.06
17.33
18.42
19.22
19.59
19.39
18.53
16.88
14.36
10.91
6.51
1.24
-4.78
-11.32
-18.06
-24.71
-31.00
-36.74
-41.81
-46.15
-49.76
-52.60
-54.63
-55.78
-56.04
-55.52
-54.45
-53.11
-51.78
-50.67
-49.87
-49.32
-48.86
-48.36
-47.76
-47.18
-46.89
-47.27
-48.61
-51.14
-54.85
-59.66
-65.18
-71.04
-76.98
-83.02
-89.61
-97.91
-109.37
-125.07
-144.59
-165.62
-184.55
-197.88
-203.68
-202.03
-194.35
-182.16
-166.02
-145.59
-120.81
-93.11
-65.84
-43.19
-28.12
-20.63
-17.78
-15.32
-10.12
-1.57
8.59
17.81
24.45
28.44
30.96
33.35
35.75
37.05
35.83
31.97
27.50
25.70
29.22
38.10
49.15
57.30
58.19
50.81
38.47
27.38
23.51
29.18
41.42
53.49
58.33
52.48
38.07
21.73
11.28
11.55
21.75
35.71
45.12
44.02
32.06
14.82
0.78
-3.20
4.39
19.04
32.59
37.79
32.17
19.16
5.90
-0.85
1.48
10.19
19.36
23.45
20.45
12.73
5.29
2.53
5.46
11.35
15.50
14.48
8.50
1.38
-1.79
2.13
11.99
22.78
28.37
25.29
15.09
3.76
-1.57
3.03
15.63
29.23
35.53
29.72
13.48
-5.59
-17.83
-16.78
-2.86
16.69
31.64
34.35
23.89
6.45
-8.28
-12.44
-4.39
10.68
23.86
27.68
20.25
6.14
-6.59
-11.18
-5.99
4.95
14.66
17.48
12.29
2.93
-4.52
-5.54
-0.10
7.57
11.69
8.94
0.82
-7.14
-8.76
-1.28
12.38
24.90
28.63
20.13
2.70
-14.88
-23.06
-16.83
1.25
22.20
35.32
33.90
18.79
-2.15
-18.30
-21.86
-12.02
4.97
19.39
23.59
16.07
2.00
-10.04
-13.08
-5.73
7.40
18.56
21.60
15.45
4.51
-4.35
-6.03
-0.32
8.23
13.45
11.61
3.84
-4.67
-8.05
-3.62
6.18
15.12
16.96
9.37
-4.29
-16.51
-19.82
-11.19
5.81
22.73
30.67
25.27
9.23
-8.96
-19.55
-16.76
-2.01
16.65
28.91
27.79
13.55
-6.52
-22.04
-25.21
-14.94
2.80
18.37
23.70
16.51
1.33
-13.37
-19.99
-16.02
-4.95
6.24
11.39
8.69
1.18
-5.35
-6.23
-0.82
7.16
12.11
10.25
2.34
-6.70
-10.75
-6.49
4.34
15.71
20.74
15.70
2.66
-11.38
-18.13
-12.84
2.55
20.22
30.54
27.55
12.39
-7.22
-20.95
-21.40
-8.22
11.75
27.98
32.03
22.04
3.56
-13.84
-21.94
-18.18
-6.53
5.22
10.08
5.79
-4.29
-13.54
-16.18
-10.85
-1.11
6.95
8.72
3.85
-3.71
-8.36
-6.30
1.81
11.21
15.74
11.82
1.00
-10.50
-15.30
-9.27
5.57
21.85
30.56
26.00
9.14
-12.44
-28.32
-30.64
-18.46
1.69
19.31
25.58
18.02
1.61
-14.27
-21.04
-15.71
-2.09
11.69
18.05
14.44
4.39
-4.93
-7.30
-1.09
9.85
18.96
20.95
15.04
5.13
-2.74
-4.16
0.88
8.07
11.64
7.99
-1.66
-11.83
-15.96
-10.60
2.17
15.46
21.33
15.44
0.07
-16.74
-25.43
-20.33
-3.26
17.10
29.82
27.83
11.88
-9.84
-26.04
-28.55
-16.59
2.81
18.86
22.98
13.46
-3.82
-19.17
-24.48
-17.80
-3.77
9.34
14.80
11.11
2.50
-4.19
-3.98
2.74
10.67
13.15
6.77
-6.03
-18.01
-21.55
-13.18
3.73
20.55
27.98
21.40
3.86
-15.37
-25.75
-21.20
-3.70
17.81
32.10
31.81
17.24
-3.82
-20.53
-24.71
-15.25
1.75
16.52
21.33
14.63
1.29
-10.77
-15.42
-11.85
-4.41
0.68
-0.44
-6.70
-12.75
-12.64
-4.01
9.79
21.17
22.79
12.10
-6.38
-23.26
-29.16
-19.90
0.82
23.11
35.89
32.75
15.44
-7.09
-23.41
-25.81
-14.16
4.50
20.09
24.96
17.89
4.04
-8.42
-13.26
-9.57
-1.85
3.43
2.16
-4.73
-12.10
-14.13
-8.32
2.49
11.64
12.74
3.68
-11.36
-23.98
-26.06
-14.65
5.99
26.28
36.19
30.67
12.43
-9.41
-24.00
-24.31
-10.82
9.15
25.38
30.31
22.75
7.96
-5.95
-12.74
-11.34
-5.65
-1.56
-2.79
-8.43
-13.62
-13.02
-4.53
8.51
18.98
20.15
9.94
-7.27
-22.53
-27.11
-17.16
3.59
25.59
38.09
34.88
17.60
-5.06
-22.14
-25.90
-15.84
1.76
17.45
23.85
19.30
8.11
-2.67
-7.54
-5.93
-1.66
-0.02
-3.82
-11.34
-17.29
-16.50
-7.34
6.47
17.58
19.07
8.68
-9.29
-25.80
-31.80
-23.02
-2.76
19.79
34.02
33.50
19.03
-1.73
-18.55
-23.71
-16.00
-0.66
13.76
20.35
17.41
8.74
0.60
-2.40
-0.16
3.36
3.15
-3.09
-12.87
-20.09
-18.72
-6.87
11.24
26.96
31.82
22.20
1.75
-20.40
-34.12
-33.40
-19.26
0.97
17.55
23.25
17.00
3.79
-8.54
-13.79
-10.66
-2.85
3.87
5.33
1.63
-3.22
-4.09
1.49
11.40
19.67
20.22
10.63
-5.51
-20.24
-25.38
-17.23
1.09
20.85
32.40
30.05
15.00
-5.60
-22.49
-29.01
-24.15
-12.38
-0.58
5.85
5.76
1.98
-1.12
-0.86
1.96
3.84
1.21
-6.87
-17.27
-24.24
-22.46
-10.44
7.84
24.43
31.44
25.11
8.02
-12.15
-26.35
-28.58
-18.54
-1.57
14.36
22.73
21.57
13.78
4.73
-1.09
-2.55
-1.70
-1.74
-4.34
-8.29
-10.26
-7.23
1.24
11.79
18.84
17.60
6.98
-9.17
-23.59
-29.17
-22.52
-5.91
13.72
27.91
30.77
21.66
5.32
-10.79
-20.06
-19.95
-12.55
-2.97
3.85
5.74
3.87
1.29
0.50
1.58
2.32
-0.12
-6.84
-15.93
-23.07
-23.92
-16.66
-3.58
9.89
17.72
16.57
7.39
-5.02
-14.49
-16.41
-9.90
1.99
13.90
20.93
21.04
15.79
9.05
4.70
4.50
7.60
11.50
13.95
14.53
14.71
16.51
20.80
25.96
28.46
24.93
14.54
0.31
-12.00
-16.62
-10.90
2.87
18.38
28.21
27.42
16.05
-0.92
-16.03
-22.99
-19.65
-8.72
3.92
12.47
14.04
9.52
2.48
-3.29
-5.86
-5.86
-5.41
-6.39
-8.74
-10.47
-9.05
-3.51
4.12
9.59
8.78
0.38
-12.68
-24.20
-27.85
-20.54
-4.48
13.41
24.87
24.44
12.52
-4.89
-19.25
-23.87
-17.27
-3.66
9.65
16.04
13.06
3.21
-7.85
-14.56
-14.41
-8.94
-2.27
1.58
1.28
-1.44
-3.20
-1.64
2.74
6.75
6.63
0.74
-8.89
-17.21
-18.86
-11.40
2.70
16.83
23.59
18.69
3.77
-14.37
-27.06
-28.21
-17.24
0.62
17.07
24.90
21.46
9.70
-3.83
-12.56
-13.30
-7.39
0.74
6.44
7.49
4.87
1.55
0.27
1.55
3.51
3.27
-0.75
-7.32
-12.69
-12.82
-5.81
6.19
17.70
22.55
17.29
3.34
-13.29
-24.84
-25.53
-14.66
3.08
19.61
27.52
23.61
10.44
-5.29
-16.09
-17.63
-10.50
0.55
9.54
12.56
9.54
3.70
-0.73
-1.46
0.67
2.57
1.36
-3.35
-8.69
-10.39
-5.43
5.38
17.27
23.62
19.69
5.58
-13.20
-28.29
-32.33
-22.97
-4.09
15.89
28.15
27.76
15.99
-0.71
-14.25
-19.15
-14.80
-5.24
3.65
7.60
5.92
1.31
-2.20
-2.22
0.50
2.75
1.36
-4.31
-11.28
-14.60
-10.27
1.82
17.06
28.03
28.28
16.10
-4.05
-23.43
-33.13
-28.70
-12.43
7.84
22.74
26.13
17.87
3.33
-10.02
-16.73
-15.75
-10.20
-4.73
-2.32
-2.63
-2.70
0.77
8.55
17.75
23.20
20.56
9.34
-6.08
-18.34
-20.97
-11.99
4.71
21.06
28.68
23.31
7.05
-12.76
-27.23
-30.59
-22.75
-8.85
3.95
10.33
9.16
3.44
-2.02
-3.81
-1.88
0.80
0.53
-4.13
-10.81
-14.58
-10.82
1.37
17.98
31.53
34.95
25.59
6.96
-12.61
-24.08
-22.38
-9.06
8.72
21.83
24.11
15.27
0.61
-12.25
-17.65
-14.72
-7.26
-0.91
0.53
-2.67
-6.65
-6.72
-0.66
9.26
17.39
17.83
8.40
-7.51
-22.22
-27.75
-20.30
-2.66
16.90
28.73
26.92
12.38
-7.55
-22.97
-26.73
-18.14
-2.82
10.76
16.46
13.45
6.04
0.39
0.28
4.76
9.07
7.98
-0.29
-12.32
-21.17
-20.44
-8.44
10.22
26.65
32.24
23.42
3.73
-17.74
-30.78
-29.40
-14.82
5.21
20.68
24.50
16.08
1.14
-11.87
-16.70
-12.50
-3.77
3.03
3.71
-0.97
-6.06
-5.77
2.36
15.48
26.41
27.76
16.49
-3.70
-23.70
-33.60
-28.17
-9.73
12.82
28.83
31.27
20.28
2.37
-13.40
-20.62
-18.49
-11.64
-6.26
-6.07
-9.82
-12.47
-8.57
3.49
19.94
33.00
35.21
23.71
2.54
-19.17
-31.51
-29.13
-13.83
6.31
21.30
24.49
15.84
1.29
-10.90
-15.13
-11.32
-4.33
-0.32
-2.64
-9.51
-15.21
-13.60
-2.49
14.55
29.38
33.85
24.36
4.46
-16.78
-29.18
-26.85
-11.17
9.91
26.33
31.07
23.64
9.61
-2.97
-8.53
-6.71
-2.08
-0.54
-5.20
-13.96
-20.83
-19.56
-8.03
9.98
26.17
32.13
23.89
4.25
-18.46
-34.32
-36.83
-26.01
-8.09
8.09
15.72
13.54
5.73
-1.03
-2.06
2.63
8.36
9.11
1.76
-11.28
-22.97
-25.50
-15.16
4.94
25.95
37.87
34.74
18.10
-3.99
-21.16
-26.36
-19.11
-5.29
6.85
11.44
8.16
1.78
-1.26
2.79
12.21
20.72
21.32
10.88
-7.31
-24.86
-32.59
-25.75
-6.79
15.62
30.98
32.41
20.08
0.71
-16.28
-23.83
-20.71
-11.43
-2.92
-0.15
-3.29
-8.06
-8.84
-2.79
7.95
17.15
18.19
8.18
-9.75
-27.48
-36.05
-30.28
-11.99
10.79
27.74
31.64
21.91
4.62
-11.08
-17.90
-14.19
-4.07
5.48
9.13
6.34
1.33
-0.21
4.85
14.48
22.53
22.31
11.13
-7.46
-24.93
-32.21
-24.71
-5.31
16.98
31.53
31.63
17.68
-3.19
-21.24
-29.03
-25.06
-13.70
-2.21
3.86
3.48
0.22
-0.73
3.88
12.74
20.68
21.66
12.88
-3.05
-18.63
-25.51
-18.95
-1.02
20.26
34.63
35.07
21.27
-0.12
-19.17
-27.67
-23.37
-10.40
3.43
11.36
11.05
5.38
-0.05
-0.73
3.74
9.52
11.08
5.22
-6.45
-17.82
-21.87
-14.63
1.90
20.54
32.38
31.53
18.11
-1.71
-19.04
-26.71
-22.84
-11.16
1.46
8.93
9.16
4.47
-0.57
-2.42
-0.87
1.07
-0.36
-6.70
-15.62
-21.92
-20.33
-9.01
8.76
25.73
34.22
30.07
15.16
-3.54
-17.42
-20.59
-12.65
1.45
14.30
20.02
17.17
8.81
0.22
-4.68
-5.51
-5.22
-7.37
-13.35
-20.64
-24.24
-19.63
-6.20
11.57
25.83
29.32
19.39
-0.24
-21.20
-34.38
-34.44
-22.22
-4.13
11.48
18.38
15.61
7.10
-1.02
-4.38
-2.69
0.51
0.72
-4.19
-12.03
-17.30
-14.54
-2.05
16.11
31.71
36.57
27.19
7.18
-14.38
-27.31
-25.79
-11.33
8.28
23.22
26.84
19.01
5.44
-6.03
-10.03
-6.63
-0.65
1.82
-2.27
-10.77
-17.47
-16.04
-4.31
13.69
29.59
34.91
25.81
5.39
-17.52
-32.80
-33.99
-21.66
-2.76
13.14
19.10
14.11
3.02
-6.84
-9.97
-5.98
0.74
4.00
0.14
-9.35
-18.28
-19.49
-9.25
9.82
29.65
40.60
36.69
19.00
-4.53
-23.20
-28.79
-19.94
-2.29
14.62
22.71
19.22
7.71
-4.79
-11.88
-11.49
-6.37
-1.88
-2.03
-6.77
-11.96
-12.28
-4.73
8.86
22.45
28.84
23.72
8.26
-11.22
-26.32
-30.78
-23.63
-9.24
5.21
13.61
13.93
8.72
2.84
0.18
1.14
2.61
0.56
-6.66
-16.34
-22.59
-19.70
-6.06
14.08
32.17
39.62
32.27
12.93
-9.95
-26.37
-29.67
-19.58
-2.13
13.79
21.02
17.82
8.09
-1.34
-5.14
-2.67
2.03
3.19
-2.52
-13.43
-23.48
-25.72
-16.59
1.46
20.80
32.41
30.43
15.46
-5.91
-24.37
-32.40
-27.92
-14.81
-0.43
8.58
9.65
4.98
-0.56
-2.79
-0.95
2.31
2.91
-1.49
-9.44
-16.10
-16.12
-6.95
8.88
24.73
32.98
29.25
14.77
-3.97
-18.55
-22.76
-15.88
-2.57
9.97
16.12
14.80
9.42
5.04
4.83
7.94
10.15
6.99
-2.80
-15.68
-24.91
-24.22
-11.79
7.97
26.32
34.44
28.05
9.80
-11.96
-27.46
-30.37
-20.87
-5.17
8.25
13.18
8.90
-0.11
-7.21
-7.73
-1.93
5.35
7.78
1.81
-10.59
-22.54
-26.11
-16.92
2.77
24.83
39.09
38.57
23.18
-0.27
-21.44
-31.55
-27.80
-14.13
1.54
11.79
13.77
9.89
5.53
5.06
8.98
13.70
14.07
7.03
-5.69
-18.20
-23.47
-17.50
-2.06
15.99
28.27
29.17
18.71
2.16
-12.96
-20.85
-20.21
-14.13
-7.73
-4.79
-5.47
-6.69
-4.64
2.31
11.82
18.72
17.86
7.40
-9.48
-25.63
-33.41
-28.64
-13.13
6.26
20.94
25.07
18.37
5.84
-5.45
-10.16
-7.69
-1.96
1.50
-0.67
-7.13
-12.66
-11.45
-1.10
15.13
29.67
34.43
25.31
5.09
-17.60
-32.36
-32.29
-17.68
4.20
23.01
30.78
25.85
12.95
0.15
-6.08
-4.37
1.38
4.97
2.05
-6.75
-16.08
-19.11
-11.75
4.39
22.42
33.47
31.36
16.11
-6.04
-25.60
-34.64
-30.59
-17.06
-1.55
8.64
10.20
4.80
-2.64
-7.30
-7.48
-5.20
-4.35
-7.61
-14.05
-19.50
-18.88
-9.58
6.24
22.30
31.30
28.78
15.79
-1.58
-15.33
-19.63
-13.72
-1.91
9.09
14.11
12.40
7.67
5.38
8.90
16.82
23.63
22.99
12.14
-5.63
-22.11
-28.51
-20.52
-1.15
20.57
34.13
32.95
17.64
-4.61
-23.88
-32.44
-28.45
-16.14
-3.05
4.27
3.83
-1.47
-6.14
-5.91
-0.51
6.08
8.32
2.78
-9.20
-21.72
-27.51
-21.95
-6.15
13.48
28.27
31.86
23.41
7.78
-7.39
-15.76
-15.52
-9.61
-3.20
-0.16
-0.69
-1.58
1.18
9.27
20.11
27.96
27.08
15.47
-3.21
-20.94
-29.28
-23.75
-6.43
14.75
30.04
32.56
21.81
3.49
-13.66
-22.62
-21.56
-14.03
-6.28
-3.25
-5.46
-9.25
-9.41
-2.98
8.35
18.79
21.69
13.43
-3.87
-22.96
-34.89
-33.55
-19.02
2.31
20.82
28.52
22.96
8.17
-7.86
-17.51
-17.58
-10.27
-1.27
4.13
4.20
1.50
0.51
4.31
11.90
18.63
19.00
10.43
-4.44
-18.71
-24.78
-18.56
-2.17
17.01
30.01
30.91
19.85
2.66
-12.57
-19.68
-17.56
-10.02
-3.02
-0.91
-3.76
-7.78
-7.96
-1.69
9.01
18.22
19.47
9.79
-7.87
-25.57
-34.30
-28.77
-10.50
12.76
30.75
35.91
27.00
9.28
-8.39
-18.26
-17.49
-8.99
0.85
6.13
4.98
0.30
-2.50
0.72
9.68
19.55
23.55
17.23
1.55
-17.22
-30.47
-31.70
-20.07
-0.83
17.38
26.90
24.81
13.86
0.44
-9.27
-12.63
-11.34
-9.52
-10.41
-13.81
-16.24
-13.42
-3.48
11.02
23.84
28.29
20.99
4.07
-15.50
-29.18
-31.11
-21.00
-4.18
11.28
18.87
16.95
9.04
1.18
-1.90
0.26
4.05
4.62
-0.57
-9.57
-16.79
-16.32
-5.75
11.75
28.56
36.31
30.27
12.28
-9.84
-26.01
-28.86
-17.66
1.42
18.70
26.12
21.51
9.11
-3.32
-9.24
-7.07
-0.50
4.18
2.40
-5.64
-14.88
-18.60
-12.37
2.76
20.34
31.69
30.41
15.95
-5.86
-25.75
-35.60
-32.46
-19.59
-4.19
6.46
8.86
4.32
-2.52
-6.92
-6.94
-4.43
-3.27
-6.48
-13.60
-20.51
-21.61
-13.37
2.84
20.84
32.57
32.38
20.34
2.25
-13.55
-20.39
-16.72
-6.20
4.67
10.60
10.24
6.55
4.47
7.45
14.74
21.69
22.41
13.68
-2.37
-18.68
-26.86
-21.77
-4.79
16.46
32.06
34.84
24.05
5.39
-12.22
-21.38
-19.89
-11.33
-2.33
1.45
-1.15
-6.48
-8.51
-2.94
9.71
23.79
31.49
27.17
10.84
-11.62
-31.13
-39.97
-35.47
-20.92
-3.56
9.15
13.21
9.58
2.77
-2.11
-2.71
-0.62
-0.01
-4.31
-13.39
-22.87
-26.51
-19.93
-3.91
15.53
29.92
32.83
23.19
5.83
-11.29
-20.98
-20.38
-11.99
-1.71
4.70
5.06
1.84
0.36
4.98
15.76
27.68
33.32
27.15
9.49
-13.02
-30.48
-34.96
-24.62
-4.80
15.02
26.12
24.91
14.27
1.40
-6.52
-6.43
-0.75
4.59
4.10
-3.46
-14.11
-21.01
-18.48
-5.75
12.23
27.18
31.90
24.03
7.18
-11.21
-23.62
-26.32
-20.55
-11.24
-3.77
-0.80
-1.11
-1.08
2.43
9.38
16.00
17.03
9.09
-6.66
-24.42
-36.23
-36.06
-23.05
-2.29
17.69
29.02
28.49
18.75
6.57
-1.17
-1.42
3.58
8.06
6.72
-1.54
-12.56
-19.22
-15.67
-1.26
18.54
34.56
38.65
27.97
6.54
-16.75
-32.35
-34.85
-25.13
-9.46
4.38
11.22
10.97
7.58
5.92
8.10
12.10
13.31
7.89
-4.07
-18.00
-27.10
-26.06
-14.25
3.55
19.61
27.09
23.65
12.36
-0.14
-7.61
-7.68
-2.99
0.96
-0.54
-7.87
-16.75
-20.66
-14.89
0.16
18.78
32.62
34.95
24.07
4.33
-16.25
-29.56
-31.42
-23.00
-9.89
1.35
6.58
5.99
3.14
2.21
4.79
8.79
9.87
4.42
-7.51
-21.74
-31.79
-32.29
-21.90
-4.32
13.58
24.93
26.36
19.18
8.53
0.18
-2.69
-1.11
0.89
-0.69
-6.66
-13.55
-15.66
-8.74
6.72
24.96
37.52
37.73
24.43
2.84
-18.03
-29.60
-28.19
-16.38
-1.36
9.16
11.13
6.14
-0.10
-1.47
4.36
14.35
21.74
20.22
8.11
-10.37
-26.89
-33.47
-26.75
-9.81
9.61
23.03
25.65
18.35
6.60
-3.02
-6.62
-4.95
-2.38
-3.53
-9.98
-18.89
-24.66
-22.32
-10.91
5.74
20.75
27.89
24.77
13.93
1.07
-8.05
-10.82
-8.74
-6.04
-6.55
-10.88
-15.79
-16.08
-8.10
7.27
24.18
34.65
32.64
17.63
-4.86
-25.86
-37.29
-35.65
-23.46
-7.40
5.29
10.52
8.95
5.11
4.19
8.53
16.01
21.11
18.41
6.35
-10.99
-25.77
-30.29
-21.52
-2.79
17.67
31.10
32.34
22.11
5.97
-8.84
-17.16
-18.01
-14.24
-10.30
-9.10
-10.36
-10.81
-6.65
3.59
17.30
28.78
32.15
24.86
9.24
-8.39
-21.05
-24.55
-19.39
-9.89
-1.49
2.51
2.53
1.89
4.29
10.92
19.24
23.99
20.47
7.61
-10.53
-26.43
-32.78
-26.57
-10.63
7.71
20.62
23.85
18.51
10.06
4.63
5.28
10.15
13.89
10.99
-0.28
-16.25
-29.31
-32.08
-21.64
-1.73
19.04
31.44
30.45
17.54
-0.56
-15.70
-22.64
-21.17
-15.37
-10.41
-9.29
-11.03
-11.79
-7.48
3.09
16.99
28.32
31.35
23.79
8.35
-8.53
-20.05
-22.56
-17.18
-8.60
-2.11
-0.36
-2.22
-3.74
-1.18
6.39
15.82
21.57
18.72
6.31
-11.70
-27.90
-35.08
-29.99
-15.04
2.85
16.04
19.95
15.22
6.56
-0.21
-1.73
1.28
4.69
3.90
-3.17
-14.22
-23.36
-24.37
-14.30
4.20
23.71
35.44
33.97
19.94
-0.18
-17.75
-26.37
-24.93
-17.19
-8.93
-4.19
-3.20
-2.92
0.44
8.51
19.20
27.51
28.30
19.30
3.04
-14.11
-24.86
-24.90
-15.06
-0.89
10.66
15.05
12.60
7.72
5.66
8.79
14.96
18.77
15.07
2.52
-15.04
-30.07
-35.26
-27.38
-9.38
11.11
25.41
28.27
20.40
7.71
-2.37
-5.13
-1.23
4.28
5.34
-1.00
-12.65
-23.52
-27.03
-19.96
-4.24
13.74
26.54
29.20
21.71
8.44
-4.16
-11.28
-11.91
-8.94
-6.67
-7.74
-11.15
-12.87
-8.74
2.40
17.20
29.30
32.62
24.87
8.79
-9.13
-22.01
-25.93
-21.70
-13.73
-7.25
-5.14
-6.30
-6.71
-2.30
7.92
20.49
28.93
27.36
14.09
-6.80
-27.13
-38.39
-36.06
-21.69
-2.04
14.49
21.91
19.54
11.73
4.99
4.13
9.29
16.05
18.07
11.23
-3.64
-20.63
-31.97
-32.17
-21.17
-4.06
11.64
20.09
19.86
13.87
7.14
3.56
3.56
4.19
1.44
-6.71
-18.34
-28.09
-30.04
-21.30
-4.06
14.95
27.94
29.98
21.70
8.51
-2.60
-7.02
-5.04
-1.07
-0.69
-6.77
-17.33
-26.25
-26.80
-15.76
4.03
24.70
37.15
35.90
22.06
2.55
-13.68
-20.29
-16.67
-7.64
-0.04
1.36
-3.28
-9.38
-10.90
-4.33
9.00
23.21
30.87
27.02
12.19
-7.74
-24.35
-31.05
-26.50
-14.62
-2.11
5.69
7.45
6.00
5.73
9.55
16.53
22.42
22.09
12.89
-3.24
-20.24
-30.87
-30.47
-19.55
-3.51
10.42
16.92
15.43
9.85
5.78
6.55
11.12
14.69
12.00
1.04
-15.13
-29.70
-35.52
-28.93
-12.07
8.15
23.32
27.86
21.91
10.95
2.34
1.00
6.32
12.74
13.26
4.09
-12.62
-29.54
-37.99
-32.80
-15.31
7.17
25.24
31.93
26.23
12.81
-0.72
-8.08
-7.55
-2.44
1.30
-0.86
-8.93
-18.01
-21.36
-14.57
1.16
19.56
32.49
34.45
25.41
10.43
-3.54
-11.51
-12.87
-10.92
-10.06
-12.71
-17.57
-20.47
-16.94
-5.30
11.83
28.17
36.74
33.43
19.62
1.52
-12.87
-18.16
-14.45
-6.69
-1.51
-2.87
-9.60
-16.18
-16.30
-6.79
9.87
26.59
35.22
30.91
14.67
-6.94
-25.15
-33.18
-29.51
-18.14
-6.02
1.03
1.63
-0.99
-1.43
3.93
14.25
24.44
28.17
21.57
5.95
-12.84
-27.14
-31.36
-24.73
-11.30
2.30
10.52
11.65
8.25
4.94
5.24
8.93
12.21
10.16
0.39
-14.87
-29.24
-35.65
-30.09
-14.21
5.49
20.92
26.47
21.84
11.71
2.89
0.26
3.93
9.28
9.98
2.00
-13.05
-28.34
-35.25
-28.39
-9.22
14.37
31.94
36.03
25.83
7.24
-10.79
-20.96
-21.28
-15.15
-8.87
-7.39
-11.51
-17.45
-19.25
-12.50
2.70
21.22
35.39
38.97
30.69
14.70
-1.72
-12.30
-14.89
-12.02
-8.44
-7.82
-10.13
-11.98
-9.16
0.29
14.08
26.53
31.25
24.79
8.72
-10.68
-25.48
-29.93
-23.56
-11.08
0.25
5.01
2.65
-2.49
-4.10
1.84
14.21
27.06
32.97
27.20
10.78
-9.88
-26.06
-31.07
-23.55
-7.98
7.96
17.36
17.78
12.15
6.52
6.10
11.65
18.96
21.38
14.22
-1.98
-21.13
-34.88
-36.85
-26.33
-8.33
9.10
19.27
20.03
14.20
7.29
3.86
4.75
6.94
5.84
-1.26
-12.67
-22.83
-25.31
-16.81
0.42
19.34
31.86
32.89
23.15
8.35
-4.20
-9.58
-7.77
-3.16
-1.72
-7.02
-17.99
-29.00
-32.99
-25.43
-7.57
13.84
29.62
33.03
23.33
6.09
-10.07
-18.16
-16.55
-9.23
-2.85
-2.54
-8.64
-16.80
-20.48
-14.99
-0.26
18.67
34.14
39.39
32.26
16.05
-2.18
-15.29
-19.83
-17.21
-12.30
-9.62
-10.40
-11.65
-8.77
1.01
15.88
30.01
36.52
31.52
16.44
-2.65
-18.18
-24.89
-22.34
-14.62
-7.66
-5.74
-8.77
-12.61
-11.62
-2.56
12.84
27.99
34.99
28.84
10.80
-12.02
-30.19
-36.66
-30.34
-16.10
-1.79
6.29
6.49
2.26
-0.43
3.16
13.39
25.74
33.15
30.05
15.71
-4.93
-23.50
-32.57
-29.36
-16.93
-2.09
8.48
11.90
9.84
6.76
6.65
10.22
14.51
14.89
7.96
-5.83
-21.92
-33.80
-36.18
-28.02
-13.17
1.65
10.65
12.08
9.03
6.99
10.10
18.02
25.88
27.20
18.00
-0.12
-20.46
-34.31
-35.52
-23.66
-4.22
14.17
24.09
22.96
14.03
4.11
-0.27
2.93
10.38
15.30
11.74
-1.45
-19.42
-33.96
-37.81
-28.88
-11.31
6.96
18.45
19.95
13.57
4.77
-1.16
-2.10
-0.02
0.75
-3.36
-12.37
-22.24
-26.86
-21.59
-6.50
13.18
29.34
35.32
29.42
15.73
1.48
-6.91
-7.48
-3.24
0.00
-2.51
-11.27
-22.01
-27.93
-23.69
-8.75
11.71
29.14
35.81
29.05
12.53
-5.70
-17.62
-19.59
-13.79
-6.32
-2.98
-5.54
-10.88
-13.31
-8.29
4.38
20.19
32.21
34.83
26.64
11.15
-5.10
-15.84
-18.20
-13.84
-7.59
-4.33
-5.58
-8.59
-8.01
0.20
15.39
31.68
40.84
37.03
20.42
-2.47
-22.19
-31.15
-27.59
-15.88
-3.60
2.99
2.27
-2.33
-4.80
-0.49
10.91
24.61
33.22
30.70
16.10
-5.69
-25.93
-36.58
-34.25
-21.69
-5.91
5.89
10.11
8.15
4.56
3.87
7.38
12.52
14.58
9.79
-2.11
-17.34
-29.84
-34.32
-28.97
-16.50
-2.55
7.17
10.05
7.63
4.28
4.21
8.49
14.20
16.19
10.42
-3.05
-19.62
-32.34
-35.48
-27.60
-12.21
4.19
15.42
18.58
14.97
8.71
4.17
3.31
4.84
5.28
1.43
-7.22
-17.77
-25.20
-25.17
-16.60
-2.38
12.04
21.54
23.90
20.55
15.11
11.10
9.51
8.71
5.66
-1.55
-12.06
-21.98
-26.26
-21.23
-7.05
11.76
28.21
36.11
33.43
23.23
12.02
5.86
6.95
12.31
15.85
12.25
0.55
-15.00
-27.22
-29.85
-21.14
-4.58
12.85
24.28
26.09
19.29
8.28
-1.64
-7.38
-9.28
-10.40
-14.04
-20.83
-27.82
-29.79
-22.69
-6.73
12.69
27.61
31.60
23.66
8.54
-5.93
-13.40
-12.39
-6.58
-2.07
-3.31
-10.34
-18.68
-22.04
-15.79
-0.10
19.89
36.15
41.68
34.06
16.81
-2.38
-15.59
-18.80
-13.89
-6.89
-4.11
-7.81
-14.96
-19.20
-15.21
-2.33
14.64
28.17
32.16
25.33
11.51
-2.84
-12.26
-15.07
-13.61
-12.29
-14.55
-20.54
-26.70
-27.73
-19.61
-2.47
18.53
35.24
40.24
31.02
11.55
-9.44
-22.95
-24.41
-15.93
-4.55
2.22
1.14
-5.02
-9.54
-6.25
6.10
22.88
36.06
38.82
29.35
11.63
-7.08
-20.07
-24.53
-22.19
-17.43
-14.38
-14.25
-15.06
-13.02
-5.37
7.59
21.72
30.92
30.07
18.14
-0.81
-19.22
-29.56
-28.38
-18.11
-5.71
1.59
0.68
-5.41
-9.58
-5.23
9.06
28.15
42.93
45.38
33.32
11.55
-10.75
-25.10
-27.84
-21.32
-11.56
-4.41
-2.28
-3.53
-4.09
-0.41
7.97
17.90
24.05
21.97
10.72
-6.12
-22.07
-30.75
-29.36
-20.16
-9.22
-2.81
-3.39
-8.08
-10.37
-4.53
10.28
28.58
41.45
41.29
26.47
2.35
-21.31
-35.39
-35.89
-25.22
-10.22
2.10
7.99
8.35
7.11
8.31
13.26
19.72
23.06
19.14
7.16
-9.42
-24.10
-30.58
-26.20
-13.63
0.55
9.29
9.37
3.11
-3.04
-2.72
5.96
18.83
27.92
26.07
11.55
-10.56
-31.04
-41.17
-37.44
-22.76
-4.51
9.81
16.21
15.70
12.60
11.42
13.92
18.06
19.39
13.91
1.07
-15.39
-28.67
-32.38
-24.07
-7.01
11.10
22.11
21.91
12.76
1.86
-2.92
1.91
13.26
23.10
23.39
11.11
-9.51
-29.25
-38.83
-34.14
-18.04
1.54
16.12
21.06
17.24
9.43
2.93
0.44
0.77
0.37
-4.06
-12.98
-23.37
-29.94
-28.12
-16.65
1.15
18.56
28.63
27.78
17.81
4.94
-3.63
-4.07
1.90
7.98
7.48
-2.19
-17.26
-29.45
-30.67
-18.11
3.89
25.90
38.41
36.90
23.68
6.02
-8.24
-14.79
-14.60
-12.02
-11.74
-15.47
-21.03
-23.77
-19.45
-7.03
10.17
25.71
33.20
29.53
16.83
1.49
-8.99
-10.32
-3.73
4.55
7.30
0.89
-11.96
-23.46
-25.25
-13.71
7.56
29.51
42.46
41.55
28.69
11.01
-3.61
-10.81
-11.49
-10.12
-11.33
-16.53
-23.17
-26.33
-21.79
-8.81
9.03
25.15
33.23
30.24
18.30
3.45
-7.32
-9.96
-5.55
0.28
0.94
-6.90
-20.65
-32.88
-35.48
-24.52
-3.07
20.35
36.04
38.56
29.11
14.34
1.93
-3.83
-3.94
-3.10
-6.14
-14.46
-25.12
-32.61
-32.05
-22.22
-6.23
9.90
20.45
22.59
17.91
11.12
7.55
9.99
16.82
22.67
21.32
9.53
-10.53
-31.47
-44.35
-43.26
-28.79
-7.80
10.28
18.75
17.08
10.61
6.72
9.74
18.15
25.56
25.03
13.76
-4.67
-22.41
-31.85
-30.13
-20.63
-10.41
-5.81
-8.38
-14.17
-16.24
-9.34
6.77
26.68
42.13
46.18
36.70
17.18
-5.12
-22.66
-31.04
-30.39
-24.48
-18.24
-14.97
-14.58
-14.21
-10.06
-0.20
13.67
26.63
32.95
29.37
17.39
2.85
-7.24
-8.60
-2.63
4.54
5.70
-2.53
-17.23
-30.43
-33.58
-22.80
-1.30
22.06
37.60
39.78
29.87
14.24
0.52
-6.77
-8.05
-7.44
-9.55
-16.29
-25.54
-32.35
-31.90
-22.29
-6.01
11.20
23.15
26.31
21.73
14.28
9.85
11.70
18.26
23.73
21.43
8.09
-13.46
-35.07
-47.22
-44.23
-27.48
-4.75
14.13
22.56
20.39
13.30
8.71
11.24
19.84
28.93
31.82
24.99
10.00
-7.43
-20.90
-26.55
-25.07
-20.61
-18.05
-19.90
-24.60
-27.31
-22.61
-7.94
14.19
36.63
50.85
51.21
38.28
18.77
2.14
-4.60
-0.82
7.59
11.86
5.79
-10.34
-29.76
-43.29
-44.61
-33.90
-17.23
-2.57
5.04
6.12
5.55
8.72
17.55
28.96
36.59
34.80
22.16
2.66
-16.37
-28.05
-29.43
-22.77
-14.00
-9.31
-11.74
-19.61
-27.37
-28.74
-19.92
-2.10
19.11
35.98
42.56
37.58
25.08
12.11
4.90
5.40
10.27
13.08
8.25
-5.14
-22.55
-36.33
-40.28
-33.38
-20.33
-8.47
-3.19
-4.42
-6.86
-3.71
8.58
27.26
44.65
52.36
46.42
29.65
10.11
-3.63
-7.14
-2.51
3.43
3.31
-6.36
-23.18
-40.15
-49.33
-45.84
-30.23
-8.35
11.76
23.51
25.01
19.40
12.94
11.12
15.44
22.50
26.01
20.79
6.35
-12.50
-28.23
-34.88
-31.78
-23.53
-17.08
-16.89
-21.92
-26.08
-22.50
-8.07
13.78
34.79
46.30
44.24
31.48
16.00
6.27
6.31
13.66
21.05
20.85
9.34
-10.90
-32.60
-47.29
-49.64
-39.85
-23.10
-6.76
3.27
5.37
2.67
0.84
4.89
15.75
29.73
40.27
41.81
33.08
18.09
3.90
-3.46
-2.76
1.64
2.69
-4.74
-20.06
-37.08
-47.43
-45.70
-32.81
-15.52
-2.14
2.49
-0.09
-3.24
0.17
13.13
32.12
48.92
55.22
47.40
28.48
6.56
-9.78
-15.69
-12.24
-5.31
-2.09
-7.12
-19.85
-35.19
-46.12
-47.43
-38.18
-22.11
-5.54
5.81
9.92
9.10
8.50
12.68
22.62
34.85
43.21
42.56
32.06
16.12
1.84
-5.11
-4.23
-0.32
-0.58
-9.61
-26.19
-43.50
-52.88
-49.11
-33.64
-13.75
1.70
7.35
4.35
-0.96
-0.96
8.33
24.84
41.70
51.18
48.82
35.76
17.70
1.70
-7.27
-8.77
-6.36
-5.34
-9.52
-19.21
-30.98
-39.67
-40.89
-33.55
-20.36
-6.44
3.50
7.84
8.79
11.00
18.37
31.08
44.72
52.44
48.89
34.04
13.63
-3.54
-10.61
-6.69
2.37
7.50
1.66
-15.53
-37.35
-53.88
-57.42
-46.98
-28.36
-10.66
-0.79
0.17
-2.96
-3.12
4.37
18.89
34.95
45.48
45.83
36.42
22.04
9.13
2.07
1.05
2.39
0.99
-6.66
-20.15
-35.10
-45.39
-46.23
-37.05
-21.97
-7.84
-0.59
-1.85
-7.67
-10.75
-4.64
11.97
34.06
52.55
59.36
51.98
34.74
16.34
4.45
1.32
2.97
2.36
-5.68
-20.68
-36.87
-46.54
-44.88
-32.98
-17.03
-4.67
-0.63
-4.32
-10.38
-12.11
-5.07
10.17
28.34
41.98
45.19
36.38
19.03
-0.08
-14.16
-19.77
-18.34
-14.91
-14.89
-20.38
-28.88
-34.42
-31.34
-18.06
1.31
19.02
27.95
26.05
17.64
10.81
12.65
24.35
40.23
50.63
47.70
30.13
4.19
-19.96
-33.67
-34.53
-26.94
-18.78
-16.35
-20.57
-26.91
-28.72
-21.63
-6.33
11.63
25.15
29.42
24.42
14.57
5.91
2.61
4.66
8.14
7.39
-1.67
-19.13
-40.64
-59.35
-69.02
-67.08
-55.67
-40.45
-27.80
-21.52
-21.31
-23.42
-23.18
-18.23
-10.03
-3.08
-2.34
-10.05
-24.26
-39.82
-51.44
-56.96
-58.80
-62.23
-71.81
-88.01
-105.98
-117.93
-117.36
-103.21
-80.73
-58.72
-44.34
-38.77
-36.38
-28.07
-6.81
28.01
70.02
109.43
138.41
155.09
163.68
171.19
182.59
197.06
207.53
203.98
178.50
130.04
66.25
1.45
-48.05
-69.37
-57.01
-14.13
49.29
119.53
182.42
225.87
241.41
225.51
180.42
114.29
39.39
-31.24
-87.37
-124.46
-143.76
-150.07
-148.76
-143.64
-136.16
-126.15
-113.26
-97.48
-79.04
-58.09
-34.82
-9.98
14.52
35.72
50.81
58.64
60.29
58.25
54.64
49.54
41.13
27.29
8.00
-13.56
-31.97
-42.63
-44.54
-40.84
-36.72
-35.81
-37.57
-37.73
-31.35
-16.81
2.25
18.52
25.21
20.44
8.67
-1.84
-3.68
4.83
18.29
27.21
23.63
5.89
-20.01
-43.68
-55.93
-53.71
-41.42
-27.74
-20.10
-20.35
-24.03
-23.72
-14.06
4.33
24.83
38.59
39.74
28.95
12.88
0.22
-3.18
2.38
10.89
14.41
7.80
-8.29
-27.76
-42.50
-46.56
-38.98
-23.93
-8.03
3.23
8.16
9.18
10.79
16.70
27.38
39.44
47.19
45.77
33.92
15.14
-3.87
-16.38
-19.23
-14.45
-8.26
-7.56
-15.76
-30.62
-45.19
-51.52
-45.20
-28.02
-7.03
9.26
15.80
13.76
9.35
9.74
18.12
31.36
41.51
40.63
25.79
1.39
-22.95
-37.64
-38.53
-28.94
-17.34
-11.96
-15.66
-24.38
-29.78
-24.70
-8.02
14.39
33.09
40.48
35.37
23.41
13.57
12.70
21.30
33.34
39.94
34.70
17.48
-5.49
-25.20
-34.74
-32.89
-24.26
-15.94
-13.12
-15.98
-19.99
-18.78
-8.25
10.67
32.05
47.84
51.98
43.50
26.76
9.08
-2.89
-6.60
-4.39
-1.77
-3.98
-12.88
-25.88
-37.32
-41.59
-36.29
-23.66
-9.43
0.28
2.49
-1.20
-5.41
-4.29
5.00
20.13
34.48
40.47
33.81
16.17
-5.64
-23.08
-30.75
-28.99
-23.51
-21.33
-26.05
-35.31
-42.00
-38.72
-22.76
1.67
25.38
39.06
38.85
28.36
16.62
12.60
19.72
33.78
45.52
46.19
32.90
10.49
-11.33
-23.58
-23.29
-14.84
-6.95
-6.98
-16.33
-29.50
-37.46
-33.11
-15.72
8.53
29.98
40.64
38.46
27.64
15.78
9.28
9.74
13.48
14.23
7.08
-8.20
-26.97
-42.18
-48.03
-43.15
-31.06
-18.09
-9.87
-8.34
-11.02
-12.69
-8.50
3.17
19.54
34.72
42.65
40.46
29.98
16.80
7.21
4.58
7.48
10.38
7.04
-5.41
-24.15
-41.71
-49.75
-43.83
-26.03
-3.96
13.34
20.48
18.58
14.01
14.14
22.24
35.14
44.93
43.66
28.60
4.36
-19.31
-32.93
-32.63
-22.24
-10.67
-6.54
-12.92
-25.59
-35.76
-35.42
-22.37
-1.39
18.48
29.26
28.32
19.54
10.39
7.17
11.04
17.40
19.08
10.84
-7.04
-28.67
-45.44
-50.64
-42.80
-26.20
-8.09
5.14
11.05
11.76
11.85
15.35
22.95
31.53
35.93
32.02
19.14
0.92
-16.49
-27.10
-28.21
-21.73
-12.98
-7.75
-9.03
-15.39
-21.70
-22.14
-13.51
2.53
20.26
32.77
35.90
30.29
20.95
14.36
14.37
19.75
24.64
22.13
8.58
-13.51
-36.36
-50.60
-50.31
-36.35
-15.81
1.85
10.23
9.25
4.70
4.24
12.37
27.15
41.23
46.10
37.51
18.27
-3.12
-17.19
-18.94
-10.66
-0.54
2.34
-6.52
-23.99
-41.16
-48.21
-40.09
-19.43
4.89
22.78
28.56
23.86
16.00
13.11
18.88
29.94
37.91
34.41
16.59
-10.54
-36.45
-50.63
-48.28
-32.87
-13.85
-1.21
0.22
-6.66
-13.60
-12.22
0.39
19.88
36.90
42.71
34.30
16.32
-1.85
-11.64
-10.44
-2.93
2.16
-2.39
-17.38
-36.35
-49.04
-47.38
-30.15
-3.95
20.63
34.52
34.92
26.24
16.76
13.43
17.58
24.46
26.51
18.34
0.40
-20.72
-35.95
-38.60
-28.29
-11.09
4.06
10.32
6.69
-1.75
-7.10
-3.41
9.80
26.99
39.97
42.23
32.53
15.28
-2.17
-13.63
-17.30
-16.29
-16.10
-20.77
-30.22
-40.03
-44.08
-37.92
-21.69
-0.21
19.31
30.90
32.69
27.34
20.16
16.03
16.82
20.38
22.32
18.53
7.93
-6.83
-20.75
-29.13
-30.04
-25.34
-19.33
-16.11
-17.04
-19.85
-20.11
-13.79
-0.02
18.08
34.54
43.51
42.16
32.12
18.34
6.55
0.20
-1.11
-0.96
-3.81
-11.83
-23.45
-33.98
-38.31
-33.85
-22.25
-8.61
1.18
3.88
0.80
-3.01
-1.74
7.44
22.45
36.89
43.40
37.54
20.49
-1.53
-20.43
-30.39
-30.59
-25.04
-19.68
-18.48
-20.86
-22.12
-16.58
-1.80
19.20
38.91
49.10
45.56
30.58
11.95
-1.46
-4.71
0.62
7.66
8.64
-0.28
-16.42
-31.98
-38.47
-31.86
-14.95
4.25
17.09
19.28
13.18
6.10
5.62
14.55
28.87
39.76
38.89
23.51
-1.70
-26.92
-42.55
-44.33
-35.11
-22.46
-13.70
-11.58
-13.21
-12.61
-5.02
9.63
26.32
37.83
38.94
29.54
14.71
1.73
-3.79
-1.05
5.66
9.62
5.46
-7.65
-25.43
-40.65
-46.74
-41.03
-25.77
-6.87
9.16
18.47
21.32
21.31
22.66
27.25
33.26
36.03
30.77
16.02
-4.95
-25.05
-36.80
-36.32
-25.60
-11.46
-2.00
-1.93
-9.79
-18.78
-20.65
-10.84
8.60
29.75
43.14
43.03
30.56
13.02
-0.63
-5.21
-2.19
1.57
-1.33
-13.65
-31.35
-45.70
-48.46
-37.25
-17.10
2.47
12.90
11.72
3.56
-2.88
-0.37
12.28
29.28
41.36
41.10
27.15
4.83
-17.15
-31.22
-34.81
-30.74
-24.75
-21.51
-21.74
-22.31
-18.59
-7.84
8.64
25.76
37.36
39.28
31.88
19.66
8.88
4.52
7.42
14.10
18.50
15.32
2.86
-15.74
-34.00
-45.16
-45.39
-35.64
-20.70
-6.88
1.61
4.40
4.88
7.79
15.87
27.93
38.95
42.97
36.68
21.84
4.63
-7.39
-9.98
-4.71
1.84
1.91
-8.23
-25.66
-41.84
-47.28
-37.23
-14.74
10.98
29.54
35.12
29.41
19.83
14.64
17.39
24.92
29.49
24.18
7.72
-14.36
-32.75
-39.82
-34.11
-21.06
-9.53
-6.48
-12.69
-22.54
-27.69
-21.89
-4.94
17.31
36.18
44.77
41.33
29.68
16.36
6.95
3.16
2.32
-0.20
-7.95
-20.71
-34.39
-42.98
-41.95
-30.78
-13.35
3.82
14.81
17.19
13.23
8.40
8.44
15.92
28.62
40.42
44.32
36.43
18.19
-4.03
-22.26
-31.01
-30.29
-24.98
-21.78
-24.81
-32.73
-39.55
-38.08
-24.88
-2.90
19.60
33.54
34.08
23.48
9.81
2.14
5.13
16.11
26.92
28.76
17.70
-2.92
-24.39
-37.60
-38.56
-30.35
-20.92
-17.75
-23.04
-32.14
-36.41
-28.63
-7.70
19.90
43.68
54.63
50.37
36.09
21.39
14.71
18.58
28.47
35.80
33.48
20.02
0.42
-17.18
-26.19
-25.48
-19.62
-15.81
-19.14
-29.18
-40.24
-44.55
-36.88
-17.60
7.13
28.62
40.00
39.54
31.10
21.27
15.92
16.89
21.58
24.80
21.92
11.63
-3.39
-18.00
-27.47
-29.72
-26.44
-21.70
-19.48
-21.14
-24.34
-24.45
-17.18
-1.67
18.55
36.62
45.67
42.43
29.11
12.38
-0.09
-3.70
0.65
7.42
9.47
2.53
-12.34
-29.30
-40.93
-42.56
-34.68
-22.47
-12.41
-8.49
-9.49
-10.06
-4.17
10.63
30.68
47.92
53.76
44.22
22.33
-2.99
-21.59
-27.43
-21.53
-10.96
-4.20
-5.99
-14.51
-22.64
-22.45
-10.54
9.48
28.89
38.75
35.33
22.21
8.18
1.92
6.67
18.08
26.75
24.04
7.28
-18.15
-41.84
-53.90
-50.43
-35.38
-17.82
-6.30
-3.86
-6.73
-7.22
0.80
17.55
36.52
48.13
45.31
28.07
3.81
-16.78
-25.47
-21.08
-9.69
-0.77
-1.37
-11.96
-26.29
-35.42
-33.06
-19.21
-0.03
16.18
23.58
22.06
16.76
14.41
19.00
29.10
38.62
40.26
29.84
8.78
-16.25
-36.67
-46.19
-43.64
-33.08
-21.31
-14.17
-13.65
-17.23
-19.63
-16.00
-4.96
10.53
24.61
31.57
28.99
19.22
8.02
1.51
2.37
8.20
12.78
9.62
-3.89
-24.30
-43.45
-52.60
-47.26
-29.79
-8.10
8.81
15.71
13.82
9.58
10.27
19.02
32.58
43.14
43.18
30.33
9.24
-10.72
-20.81
-18.11
-7.16
2.88
3.90
-6.16
-21.87
-33.51
-32.74
-17.64
6.04
28.15
39.91
38.58
28.60
18.27
14.55
18.72
25.62
27.07
17.30
-3.09
-26.82
-43.81
-46.65
-34.82
-15.21
1.88
8.45
3.37
-7.30
-14.06
-9.60
6.61
27.95
44.28
47.95
37.98
20.48
4.70
-2.38
-0.22
5.30
5.80
-4.09
-22.87
-42.80
-54.02
-50.18
-32.10
-7.33
13.87
24.13
22.57
14.70
8.35
8.99
16.37
25.07
27.94
20.71
4.70
-13.91
-27.63
-32.04
-27.87
-20.32
-15.51
-16.76
-22.43
-26.99
-24.47
-12.10
7.68
28.42
42.64
45.75
38.00
24.15
10.66
2.26
-0.23
0.09
-1.42
-8.03
-19.38
-31.52
-38.98
-37.88
-28.26
-13.96
-0.84
6.51
7.00
3.65
1.69
5.50
15.81
28.96
38.69
39.28
28.84
10.43
-9.29
-23.53
-28.92
-26.92
-22.54
-20.76
-23.43
-27.64
-27.63
-18.34
0.74
24.42
44.05
51.77
44.90
27.29
7.56
-5.69
-8.42
-3.19
2.83
2.41
-7.33
-22.97
-36.81
-41.20
-33.31
-16.62
1.02
12.02
13.43
8.33
3.81
6.28
17.22
31.81
41.54
39.09
22.84
-1.90
-25.56
-39.25
-39.56
-30.01
-18.60
-12.67
-14.62
-20.62
-23.19
-16.18
1.16
22.84
39.44
43.26
33.01
14.65
-1.87
-8.17
-2.38
9.86
18.68
16.13
0.90
-20.46
-37.42
-41.34
-30.48
-10.83
7.65
16.86
15.45
9.06
6.48
13.69
29.64
46.44
53.76
45.06
21.68
-7.34
-30.30
-39.00
-33.11
-19.66
-8.48
-6.21
-12.49
-20.65
-22.14
-12.25
6.81
26.90
38.67
37.00
23.80
6.97
-4.51
-5.54
2.04
11.06
13.28
4.35
-13.59
-33.27
-46.16
-47.12
-36.90
-21.25
-7.14
0.98
3.45
4.46
8.77
18.53
31.20
41.03
42.12
32.09
13.67
-6.43
-20.90
-25.47
-21.07
-13.09
-8.08
-10.14
-18.57
-28.54
-33.86
-30.44
-18.63
-2.73
11.40
19.77
22.03
21.36
22.04
26.77
34.57
41.10
41.13
31.34
12.77
-9.60
-28.78
-39.10
-38.96
-31.32
-21.80
-15.64
-14.75
-16.89
-17.33
-11.66
1.03
17.28
30.96
36.50
32.20
21.14
9.69
3.90
6.03
13.11
18.73
16.64
4.60
-14.19
-32.68
-43.56
-43.41
-34.21
-21.98
-12.94
-9.79
-10.28
-8.83
-0.35
15.92
35.13
49.20
51.13
39.37
18.81
-1.54
-13.28
-13.41
-5.62
1.89
1.53
-9.20
-26.16
-40.96
-45.73
-37.80
-21.22
-4.17
5.87
6.82
2.78
1.57
9.40
26.55
46.50
59.19
56.93
38.93
12.14
-12.46
-25.57
-24.68
-14.90
-5.62
-4.68
-13.43
-26.40
-34.42
-30.55
-14.43
7.23
24.37
29.52
22.10
8.77
-0.92
0.05
11.59
26.62
35.00
29.60
10.62
-14.59
-35.59
-44.85
-41.61
-32.03
-24.86
-25.85
-33.96
-41.92
-40.88
-25.84
0.54
29.22
49.13
53.37
42.99
26.03
12.92
10.39
17.98
28.55
32.93
25.39
7.29
-13.78
-28.71
-32.03
-25.19
-15.20
-10.27
-14.52
-25.26
-34.44
-33.43
-18.44
7.04
33.54
50.73
52.75
41.25
24.21
11.02
7.39
12.03
18.12
17.60
6.27
-13.44
-33.72
-45.81
-45.32
-34.58
-21.40
-14.12
-16.78
-26.45
-34.83
-33.22
-17.63
8.22
35.00
52.50
55.27
45.32
30.66
20.52
19.82
26.51
32.85
30.60
15.99
-7.53
-30.89
-44.55
-43.61
-30.93
-15.09
-5.65
-7.51
-18.35
-30.17
-33.94
-25.05
-5.87
15.55
30.31
33.52
27.08
18.03
14.17
19.24
30.15
38.88
37.00
21.09
-4.98
-31.72
-49.05
-51.73
-42.04
-28.21
-19.17
-19.46
-26.53
-32.71
-30.16
-15.59
7.11
29.19
41.66
40.62
29.37
16.45
10.72
16.11
29.38
41.75
44.11
32.19
9.30
-15.50
-32.54
-36.62
-29.92
-20.12
-15.79
-20.95
-32.76
-43.22
-44.00
-31.69
-9.79
12.84
27.13
28.75
20.63
10.95
8.07
15.70
30.35
43.71
47.22
37.35
17.75
-2.74
-15.21
-15.81
-7.78
0.34
0.11
-11.97
-31.89
-50.25
-57.57
-49.47
-29.25
-5.75
11.35
17.08
13.58
8.40
9.69
20.84
38.41
53.74
58.08
47.66
26.22
3.05
-12.11
-14.48
-6.87
2.46
4.42
-5.27
-23.70
-42.48
-52.57
-49.74
-36.64
-21.17
-11.49
-11.32
-17.50
-22.14
-17.39
-0.38
24.52
48.09
60.87
58.58
44.16
26.16
13.68
11.22
16.41
21.55
18.66
4.21
-18.20
-39.76
-51.24
-48.31
-34.13
-17.43
-7.85
-10.33
-22.51
-36.00
-41.29
-33.18
-13.63
9.33
26.38
31.90
27.19
19.16
16.12
22.41
35.63
47.92
50.30
38.19
14.21
-12.73
-32.30
-38.23
-31.55
-19.69
-11.88
-13.88
-24.45
-36.44
-40.91
-32.64
-13.27
9.54
26.29
30.98
24.35
13.54
7.64
12.57
27.49
45.23
56.32
54.18
38.99
17.24
-1.73
-11.43
-11.46
-7.49
-7.53
-16.73
-34.00
-52.24
-62.54
-59.26
-43.55
-22.59
-5.65
1.15
-1.75
-8.06
-9.44
-0.89
16.40
35.59
48.19
48.90
38.72
24.39
14.26
13.56
21.18
30.51
33.05
23.47
2.87
-21.77
-41.18
-49.04
-44.90
-34.25
-24.87
-22.36
-26.88
-33.26
-34.45
-25.79
-8.17
12.50
28.25
33.64
28.65
18.60
11.01
11.08
19.06
30.04
37.07
35.16
24.18
8.85
-4.21
-10.48
-10.18
-7.85
-9.61
-19.04
-34.79
-50.92
-60.07
-57.64
-44.10
-24.84
-7.06
3.85
7.18
6.60
7.65
14.15
25.76
38.39
46.30
45.88
37.72
26.55
18.46
17.33
22.58
29.39
31.60
25.22
10.93
-6.45
-20.58
-27.41
-27.22
-24.19
-23.73
-28.88
-38.52
-47.63
-50.39
-43.51
-28.33
-10.13
4.66
11.88
11.91
9.02
8.86
14.79
26.02
38.02
45.13
44.00
35.40
23.97
15.31
12.77
15.31
18.41
16.61
6.95
-9.07
-26.35
-38.87
-43.35
-40.77
-35.60
-32.82
-34.82
-39.93
-43.34
-40.16
-28.41
-10.49
8.26
22.13
28.16
27.57
24.69
24.49
29.27
37.56
44.80
46.20
39.62
26.88
13.08
3.56
0.97
3.53
6.33
3.98
-6.09
-22.02
-38.52
-49.48
-51.61
-45.85
-36.81
-29.78
-27.72
-29.56
-30.91
-26.86
-15.02
2.61
20.73
33.35
37.16
33.29
26.61
23.17
26.44
35.48
45.29
49.82
45.37
32.77
16.98
4.13
-1.99
-2.35
-1.65
-5.54
-16.82
-33.56
-49.98
-59.42
-58.30
-47.91
-33.63
-21.66
-15.57
-14.47
-13.92
-9.02
2.37
17.80
31.91
39.22
37.77
30.15
22.19
19.68
24.67
34.30
42.25
42.38
32.16
14.30
-4.85
-18.81
-24.44
-23.73
-21.91
-24.24
-32.30
-43.01
-50.21
-48.35
-36.11
-17.31
0.98
12.49
15.02
11.58
8.31
10.77
20.55
34.16
45.39
48.71
42.79
31.02
19.68
14.09
15.24
19.31
19.75
11.50
-5.97
-27.80
-46.28
-54.94
-52.04
-41.46
-30.13
-24.22
-25.49
-30.64
-33.29
-28.03
-14.01
4.46
20.08
26.97
24.02
15.95
10.46
13.90
27.17
44.80
57.86
58.57
44.97
21.85
-1.48
-16.23
-18.90
-12.81
-5.93
-6.01
-16.07
-32.44
-47.02
-51.80
-43.70
-26.44
-8.34
2.17
1.43
-7.65
-17.06
-18.37
-7.57
12.78
34.82
49.82
52.66
44.64
32.13
22.91
21.32
25.80
30.05
26.88
12.88
-9.38
-32.20
-46.97
-48.86
-39.43
-25.64
-15.83
-15.27
-23.32
-34.22
-40.37
-36.82
-23.94
-6.93
7.30
14.29
14.28
12.02
13.58
22.51
37.28
52.04
59.73
56.06
42.02
23.11
6.57
-2.78
-4.97
-4.41
-6.98
-16.15
-30.87
-45.90
-54.83
-53.66
-43.29
-28.88
-16.93
-11.53
-12.19
-14.53
-12.91
-4.15
10.52
26.07
36.76
39.56
35.77
30.27
28.40
32.75
41.24
48.37
48.22
38.05
20.03
0.03
-15.33
-22.51
-22.64
-20.74
-22.30
-29.79
-41.20
-51.16
-54.25
-48.13
-35.12
-20.59
-9.93
-5.32
-4.71
-3.50
2.63
14.67
29.61
41.76
46.31
42.00
32.01
22.22
17.86
20.43
26.55
29.99
25.18
10.86
-9.09
-27.52
-37.99
-38.41
-31.98
-25.27
-23.97
-29.52
-38.13
-43.19
-39.22
-25.26
-5.93
11.32
20.14
19.17
12.66
8.09
11.69
24.55
41.64
54.34
55.43
43.26
22.94
3.56
-6.73
-5.27
3.46
10.69
8.30
-6.22
-28.38
-48.88
-58.77
-54.23
-38.60
-20.45
-8.56
-7.16
-13.61
-20.29
-18.99
-5.96
15.66
37.54
50.62
50.26
38.57
23.33
13.44
14.12
23.97
36.04
41.93
36.50
20.73
0.86
-15.12
-22.13
-20.72
-16.23
-15.42
-21.99
-34.41
-46.73
-52.15
-47.13
-33.40
-16.83
-3.74
2.68
4.07
5.31
11.17
22.80
36.59
46.31
46.62
36.78
21.21
7.42
1.75
5.67
14.72
20.93
17.43
2.46
-19.34
-39.29
-49.45
-47.07
-36.10
-24.73
-20.74
-26.79
-39.02
-49.10
-48.99
-35.60
-12.46
11.99
29.20
34.72
30.53
23.37
20.72
26.37
38.21
49.79
53.88
47.13
31.73
14.37
2.27
-0.89
3.08
8.17
7.89
-1.03
-16.65
-33.29
-44.66
-47.63
-43.79
-37.99
-35.42
-37.91
-43.01
-45.14
-39.31
-24.22
-3.54
15.90
27.88
30.27
26.26
22.21
23.95
33.02
45.72
55.26
55.78
46.15
30.65
16.92
11.32
15.33
24.41
30.34
25.94
9.26
-14.90
-37.62
-50.41
-50.03
-40.23
-29.48
-26.13
-33.40
-47.58
-60.02
-62.21
-50.50
-28.43
-4.74
11.30
14.93
8.25
-1.40
-5.46
0.88
16.24
34.00
46.19
48.18
41.02
30.81
24.84
27.36
36.86
47.19
51.07
44.58
29.44
11.76
-1.37
-6.27
-4.58
-1.96
-4.39
-14.25
-28.97
-42.49
-49.06
-46.62
-38.22
-30.03
-27.61
-32.62
-41.75
-48.91
-48.67
-39.84
-26.07
-13.72
-7.92
-9.32
-13.72
-14.27
-5.84
11.93
33.82
51.89
59.69
55.82
44.80
34.45
31.79
38.92
51.86
62.85
64.61
54.66
36.70
18.85
8.89
9.99
18.63
26.67
26.02
13.29
-8.03
-29.58
-42.79
-43.83
-35.67
-26.22
-23.79
-32.09
-48.35
-64.77
-73.05
-68.92
-54.42
-36.54
-23.23
-19.27
-23.75
-31.12
-34.48
-29.59
-17.06
-1.64
10.72
16.57
16.69
15.52
18.07
26.71
39.63
51.85
58.38
57.16
50.46
43.29
40.32
42.82
47.84
50.08
45.08
32.39
16.00
2.29
-3.73
-1.44
4.80
8.01
2.73
-11.71
-30.38
-45.52
-50.71
-44.85
-32.80
-22.80
-21.96
-31.92
-48.08
-61.87
-65.55
-56.36
-37.92
-18.30
-5.59
-3.65
-10.29
-18.92
-22.29
-16.67
-3.85
10.15
18.57
18.11
10.76
2.93
1.59
10.31
27.09
45.41
57.99
60.70
54.92
46.03
40.33
41.03
46.49
51.60
50.89
42.32
28.31
14.51
6.29
5.49
9.35
12.12
8.76
-1.94
-16.37
-28.29
-32.45
-28.06
-19.60
-14.35
-18.23
-31.88
-50.18
-64.67
-68.43
-60.00
-44.34
-30.13
-24.78
-30.31
-42.10
-51.75
-51.61
-39.30
-19.08
0.70
12.00
11.80
3.39
-5.43
-6.89
2.44
19.70
37.53
48.27
48.23
39.87
29.99
26.06
31.57
44.24
57.41
63.87
60.11
48.02
33.81
24.02
21.86
25.47
29.43
28.24
19.76
6.68
-5.36
-11.10
-9.15
-2.91
1.39
-1.54
-12.69
-27.84
-39.92
-43.34
-37.35
-26.93
-19.90
-22.49
-35.36
-52.92
-66.43
-68.64
-58.13
-40.03
-23.36
-15.97
-20.22
-31.85
-42.44
-44.14
-33.96
-15.42
3.58
14.93
14.91
5.87
-5.24
-10.71
-6.44
6.11
20.88
31.18
33.50
29.47
24.50
24.28
31.12
42.25
51.82
54.39
48.51
37.67
28.20
25.64
31.03
40.51
47.38
46.22
36.10
21.36
9.16
5.47
11.53
22.84
31.88
31.96
21.52
5.00
-9.41
-14.37
-7.85
5.73
17.64
20.03
10.22
-7.53
-24.55
-32.64
-28.67
-16.30
-3.64
1.20
-5.09
-19.48
-34.55
-42.67
-40.48
-30.44
-19.39
-14.30
-18.29
-28.82
-39.53
-44.04
-39.88
-29.95
-20.52
-17.44
-22.18
-31.16
-38.01
-37.48
-29.08
-17.33
-9.24
-9.78
-18.72
-30.54
-37.39
-33.67
-19.38
-0.53
14.23
18.10
10.09
-4.44
-16.78
-19.51
-10.95
4.14
17.18
20.77
12.91
-1.78
-14.76
-18.39
-10.28
5.38
20.54
27.64
23.96
12.84
1.39
-3.51
0.63
10.97
21.12
25.03
20.65
11.00
2.34
0.25
6.33
17.13
26.31
28.47
22.50
12.26
4.07
2.91
9.15
18.40
24.19
22.10
12.56
0.83
-6.20
-4.15
6.03
18.35
25.17
21.59
8.46
-7.77
-18.66
-18.15
-6.32
10.56
23.39
25.18
15.02
-1.43
-15.10
-18.54
-10.24
4.73
17.66
21.16
13.27
-1.56
-15.31
-20.89
-16.07
-4.44
7.14
12.53
9.90
2.38
-4.12
-4.54
2.00
12.01
19.52
19.93
12.76
2.15
-5.54
-5.59
2.24
13.18
20.39
18.92
9.01
-3.75
-11.63
-9.06
3.56
20.09
31.76
32.09
20.60
3.11
-11.46
-15.95
-8.87
4.98
17.33
20.93
13.66
-0.64
-14.48
-20.84
-17.31
-6.91
3.71
8.52
5.63
-1.78
-7.60
-6.89
0.85
11.17
17.36
14.68
3.52
-10.40
-19.42
-18.25
-7.38
7.05
16.70
15.76
4.58
-10.41
-20.18
-18.16
-4.09
15.59
31.20
34.97
25.34
7.69
-8.80
-16.13
-12.02
-0.65
9.95
12.69
5.72
-7.02
-18.25
-21.79
-16.25
-5.54
3.56
5.65
-0.15
-9.77
-16.96
-17.16
-10.35
-1.23
3.75
0.36
-10.45
-22.89
-29.51
-25.52
-12.09
4.01
13.92
11.79
-1.75
-19.66
-32.36
-32.90
-20.96
-3.04
11.35
14.71
5.86
-9.89
-23.90
-28.95
-23.47
-11.72
-1.23
1.77
-4.22
-15.39
-25.12
-28.06
-23.13
-14.08
-6.87
-6.14
-12.18
-20.84
-26.19
-24.05
-15.07
-4.29
1.61
-1.53
-12.51
-25.15
-31.69
-27.34
-13.32
3.47
14.19
13.02
0.74
-15.66
-26.90
-26.34
-14.01
3.72
17.65
20.89
12.70
-1.50
-13.36
-16.33
-9.19
3.53
14.49
17.75
12.06
1.38
-7.89
-10.38
-5.08
4.48
12.49
14.52
10.32
3.81
0.56
4.15
13.67
23.99
28.81
24.55
12.88
-0.06
-7.27
-4.75
5.83
18.18
24.82
21.32
9.03
-6.00
-16.25
-17.11
-9.36
1.32
7.69
4.90
-7.07
-23.20
-36.72
-42.84
-41.67
-37.91
-37.65
-44.56
-57.28
-70.47
-77.59
-75.23
-65.44
-54.60
-49.17
-51.37
-57.14
-58.07
-46.43
-18.60
22.68
70.35
117.18
158.22
193.39
226.20
260.46
296.67
332.11
361.63
380.01
383.87
372.24
345.92
306.50
260.00
209.16
157.67
110.60
72.77
46.62
30.66
19.45
6.51
-13.51
-43.06
-79.95
-119.29
-156.21
-187.75
-213.02
-232.24
-245.69
-253.20
-255.30
-252.83
-247.47
-241.35
-236.62
-234.43
-234.76
-236.48
-237.82
-237.61
-235.00
-229.58
-221.25
-209.73
-194.00
-172.38
-144.36
-107.85
-61.56
-5.69
57.87
125.59
192.92
255.15
307.89
347.45
371.42
378.19
367.22
338.95
294.71
235.90
165.95
89.30
10.37
-66.81
-139.36
-205.55
-264.75
-317.22
-363.81
-405.47
-442.94
-476.75
-506.79
-532.41
-552.57
-565.88
-570.77
-565.59
-549.76
-521.18
-477.45
-416.41
-337.04
-240.12
-128.61
-7.56
116.44
235.97
344.68
438.13
514.23
572.86
614.87
641.27
652.66
649.40
632.39
603.79
567.06
526.41
485.84
448.21
415.03
386.82
363.34
343.56
325.21
304.40
276.29
237.33
187.15
129.82
72.65
22.99
-15.16
-42.86
-64.95
-86.47
-108.44
-127.81
-138.85
-137.09
-122.90
-102.17
-83.92
-76.39
-83.24
-102.41
-127.91
-153.10
-173.66
-188.64
-199.51
-208.41
-216.45
-223.58
-228.72
-231.12
-230.90
-229.04
-227.03
-226.09
-226.95
-229.72
-233.53
-237.11
-238.95
-237.38
-230.78
-217.66
-195.95
-163.35
-117.98
-59.84
7.65
77.08
138.54
182.41
203.49
203.32
189.24
170.94
156.28
148.47
146.15
145.83
144.29
140.48
135.24
129.90
125.02
120.00
113.82
105.94
96.74
87.25
78.92
72.69
68.73
66.53
65.21
63.97
62.32
60.13
57.56
54.98
52.67
50.88
49.82
49.37
49.21
48.76
47.29
44.00
38.00
28.07
12.45
-10.21
-39.65
-72.81
-103.83
-125.71
-133.18
-124.78
-105.14
-82.66
-65.81
-59.70
-64.35
-75.63
-88.00
-97.55
-103.12
-106.17
-109.02
-113.02
-118.27
-123.75
-128.10
-130.35
-129.95
-126.24
-118.06
-103.85
-82.47
-54.96
-25.36
0.13
15.69
18.80
11.90
1.39
-4.99
-1.90
11.29
30.94
51.70
69.22
81.68
89.65
94.20
95.90
94.55
89.85
82.20
72.98
64.03
57.14
53.01
51.11
50.07
48.31
44.78
39.33
32.81
26.54
21.74
18.96
17.90
17.66
17.16
15.63
12.91
9.44
6.01
3.35
1.82
1.27
1.26
1.21
0.73
-0.29
-1.65
-3.01
-4.05
-4.61
-4.74
-4.61
-4.44
-4.37
-4.44
-4.63
-4.84
-4.99
-5.05
-5.03
-4.93
-4.78
-4.60
-4.41
-4.25
-4.14
-4.10
-4.14
-4.22
-4.29
-4.28
-4.20
-4.05
-3.90
-3.79
-3.79
-3.88
-4.01
-4.12
-4.14
-4.04
-3.87
-3.72
-3.70
-3.89
-4.29
-4.78
-5.19
-5.37
-5.25
-4.94
-4.69
-4.81
-5.48
-6.68
-8.12
-9.37
-10.05
-9.99
-9.43
-8.96
-9.21
-10.59
-13.06
-16.04
-18.63
-20.06
-20.05
-19.03
-18.03
-18.16
-20.19
-24.04
-28.82
-33.11
-35.87
-36.60
-35.77
-34.51
-34.02
-35.22
-38.68
-44.63
-52.72
-61.48
-67.95
-68.14
-58.54
-38.02
-9.08
22.62
50.40
69.31
77.98
78.59
74.99
70.45
66.27
61.97
56.73
50.64
45.04
41.68
41.56
44.02
47.09
48.54
46.75
41.86
35.53
30.18
27.84
29.23
33.38
38.07
41.01
40.66
37.09
31.87
27.26
25.35
27.35
33.29
41.71
49.92
54.34
51.73
40.36
20.82
-4.04
-30.12
-53.32
-70.49
-79.29
-78.39
-67.00
-45.50
-16.03
17.30
49.31
75.49
93.10
101.59
101.51
93.52
77.93
55.33
28.27
0.84
-22.00
-37.24
-44.68
-47.42
-50.07
-55.84
-63.95
-69.39
-65.50
-48.18
-19.30
13.18
38.33
47.61
39.15
18.73
-3.22
-17.28
-19.17
-11.33
-0.17
8.38
12.04
12.40
13.06
16.15
20.87
24.19
22.85
15.18
2.25
-12.52
-25.63
-34.31
-37.74
-37.02
-34.56
-32.81
-33.27
-35.89
-39.30
-41.62
-41.32
-37.93
-32.18
-25.91
-20.77
-17.97
-17.54
-18.52
-19.75
-20.47
-20.78
-20.46
-19.03
-15.43
-8.73
0.93
11.64
20.18
23.62
20.81
13.25
4.20
-2.99
-6.58
-6.94
-5.89
-5.21
-5.48
-6.09
-5.94
-4.54
-2.33
-0.42
0.28
-0.46
-2.37
-4.36
-5.56
-5.49
-4.35
-2.79
-1.63
-1.45
-2.37
-4.07
-5.91
-7.24
-7.72
-7.41
-6.70
-6.18
-6.29
-7.27
-9.02
-11.17
-13.27
-14.88
-15.86
-16.34
-16.67
-17.29
-18.67
-21.02
-24.19
-27.76
-31.13
-33.81
-35.58
-36.61
-37.30
-38.32
-40.11
-42.62
-45.38
-47.56
-48.82
-48.65
-47.20
-45.21
-43.96
-44.72
-48.51
-55.63
-65.41
-74.89
-81.57
-83.13
-76.53
-61.59
-40.62
-17.62
3.10
18.31
26.79
29.28
28.15
26.47
26.91
31.47
41.14
55.63
73.35
91.95
108.86
121.92
129.97
132.24
128.60
119.41
105.47
88.29
70.25
54.19
42.62
36.99
36.77
39.81
43.24
44.55
42.33
36.54
28.17
18.00
7.09
-4.45
-16.99
-30.71
-45.13
-59.36
-72.22
-82.80
-90.99
-97.17
-102.20
-106.88
-111.56
-116.00
-120.05
-123.12
-124.54
-124.14
-121.77
-117.32
-110.45
-101.31
-88.90
-72.94
-53.34
-30.23
-4.60
22.21
48.82
73.92
96.54
116.14
132.10
142.69
148.97
151.74
151.65
149.21
144.76
138.44
131.96
123.69
112.81
99.07
82.11
61.90
39.21
14.96
-9.66
-33.33
-55.17
-73.97
-88.74
-99.27
-105.91
-108.82
-108.83
-107.04
-104.55
-102.60
-101.71
-101.87
-102.89
-104.06
-103.64
-100.07
-92.01
-78.51
-59.10
-33.70
-2.67
32.93
67.34
97.46
121.48
138.76
149.58
154.73
155.40
152.66
147.04
139.20
130.29
121.01
112.07
104.11
97.70
93.32
90.87
89.27
87.62
85.51
82.59
79.00
75.35
72.54
71.31
73.49
76.61
78.83
79.23
77.47
74.00
69.88
66.47
65.16
66.59
70.86
78.53
89.40
101.37
110.26
110.56
98.24
73.10
38.20
-0.69
-36.07
-61.97
-76.07
-79.27
-75.68
-69.30
-62.59
-58.58
-60.20
-68.53
-83.58
-100.25
-113.75
-122.58
-126.94
-128.15
-131.10
-141.70
-162.76
-193.74
-231.94
-272.62
-314.54
-357.94
-387.40
-394.48
-382.72
-363.12
-345.23
-346.03
-355.15
-360.12
-352.60
-331.09
-292.57
-244.78
-196.57
-153.67
-117.18
-82.66
-46.86
-7.36
36.66
81.51
119.59
143.49
147.51
129.18
92.56
45.13
-1.67
-36.01
-51.30
-48.77
-34.16
-14.37
5.99
27.10
50.53
77.71
107.96
137.58
161.38
176.64
184.44
189.00
196.28
210.85
235.51
270.79
314.72
362.28
406.30
438.42
451.19
440.80
408.32
359.49
302.57
244.99
190.72
140.04
90.94
40.94
-11.61
-67.40
-126.26
-186.95
-246.42
-299.48
-339.70
-361.73
-363.80
-348.86
-323.84
-297.00
-275.02
-261.33
-256.05
-257.45
-263.38
-271.96
-281.30
-289.06
-292.47
-288.97
-277.22
-257.70
-232.62
-205.28
-178.73
-154.62
-132.65
-110.92
-86.78
-58.14
-24.47
12.91
51.31
87.88
120.80
150.02
177.17
204.79
235.27
270.14
309.82
353.65
399.89
445.27
484.77
512.27
522.43
512.94
486.04
448.04
406.84
368.57
335.41
305.61
275.64
243.23
208.90
175.58
146.54
123.10
103.85
85.66
65.63
42.57
17.25
-8.55
-33.36
-56.46
-77.79
-97.20
-113.97
-126.84
-134.79
-137.69
-136.63
-133.50
-130.04
-127.32
-125.59
-124.78
-124.82
-125.36
-125.20
-122.05
-113.26
-97.51
-76.42
-54.83
-39.26
-34.96
-43.09
-59.82
-78.09
-90.97
-94.89
-90.82
-82.89
-75.59
-71.26
-69.36
-67.50
-63.30
-55.64
-44.69
-31.06
-14.78
4.81
28.12
54.18
80.02
101.39
114.33
116.90
109.81
96.08
79.47
63.20
49.16
38.00
29.71
24.10
21.11
20.76
22.83
26.66
31.04
34.29
34.66
31.19
24.33
16.17
9.77
7.65
10.30
15.66
19.98
19.76
13.74
3.84
-5.77
-10.64
-8.23
1.00
14.18
27.46
37.83
44.38
48.51
53.52
63.66
83.07
114.67
158.98
213.34
271.67
325.39
365.44
384.78
380.31
353.58
309.75
255.67
197.59
140.06
85.41
34.24
-14.01
-60.60
-106.84
-153.29
-198.92
-240.72
-274.33
-295.56
-302.14
-294.71
-276.38
-251.25
-222.83
-193.20
-163.41
-134.34
-107.31
-83.97
-65.69
-52.90
-45.00
-40.94
-39.87
-41.49
-45.77
-52.43
-60.31
-67.38
-71.21
-69.83
-62.62
-50.61
-36.22
-22.21
-10.67
-2.17
4.05
9.44
15.13
21.44
28.08
34.67
41.30
48.26
55.33
61.12
63.11
58.84
47.51
31.09
13.82
0.44
-6.09
-6.24
-3.69
-3.74
-11.12
-28.09
-53.76
-84.70
-116.12
-143.43
-163.24
-173.82
-175.12
-168.40
-155.61
-138.65
-118.56
-94.98
-66.36
-30.85
12.27
61.36
112.17
158.91
196.05
220.11
230.31
227.82
214.38
191.44
160.37
123.52
85.04
50.48
25.18
12.56
13.19
25.14
45.40
71.02
99.69
129.46
158.39
184.58
206.55
223.47
235.02
240.88
240.17
231.47
213.40
185.37
148.17
104.12
56.87
10.46
-31.40
-66.44
-94.47
-117.43
-138.68
-162.34
-192.16
-230.64
-278.16
-332.16
-387.15
-435.53
-469.56
-483.47
-475.15
-446.49
-402.59
-350.37
-297.17
-250.04
-215.09
-196.86
-197.24
-214.31
-242.01
-271.13
-291.97
-297.53
-285.91
-260.92
-230.10
-201.71
-181.09
-168.72
-160.34
-149.24
-129.57
-99.38
-61.61
-22.77
10.01
32.07
42.69
44.69
42.31
38.95
35.81
32.04
26.17
17.63
7.62
-1.25
-6.04
-4.65
3.69
18.70
39.72
66.08
97.03
131.54
168.25
205.83
243.59
281.75
321.14
362.18
403.81
443.00
475.31
496.25
503.04
495.48
475.88
448.15
416.22
383.15
350.82
320.27
292.08
266.53
243.05
219.89
193.96
161.61
120.10
69.20
12.00
-45.63
-96.73
-135.65
-159.78
-170.01
-169.83
-163.63
-155.21
-147.09
-140.47
-135.56
-132.00
-128.92
-125.19
-119.66
-111.61
-101.10
-88.96
-76.51
-64.98
-55.27
-47.91
-43.23
-41.35
-42.08
-44.56
-47.37
-48.86
-47.92
-44.67
-40.43
-37.12
-36.22
-37.67
-39.61
-38.95
-32.84
-20.11
-2.17
17.28
33.73
43.65
46.12
43.34
39.74
40.04
47.50
62.72
84.05
108.70
134.02
158.19
180.14
199.29
215.80
231.18
248.42
271.11
301.18
336.77
371.77
397.69
407.45
398.85
375.65
345.59
316.49
292.55
273.12
254.13
230.95
200.78
163.12
118.87
68.58
11.68
-53.13
-126.68
-208.47
-296.57
-388.04
-479.31
-566.05
-642.94
-703.95
-743.49
-758.25
-748.72
-719.36
-677.08
-629.01
-580.43
-534.20
-491.39
-452.48
-418.01
-388.28
-362.56
-338.64
-313.36
-284.01
-249.69
-211.88
-173.85
-139.44
-111.29
-89.68
-71.98
-53.54
-29.37
3.25
42.73
82.34
111.79
120.54
101.44
53.46
-17.74
-101.12
-183.06
-250.51
-293.69
-307.73
-293.03
-254.63
-200.46
-139.25
-78.41
-22.79
25.32
65.41
97.82
123.31
143.17
159.58
175.43
193.57
216.10
243.81
276.35
312.50
350.34
387.20
419.71
444.04
456.73
455.77
441.32
415.79
382.83
346.15
308.57
271.76
236.58
203.64
173.63
147.19
124.53
105.12
87.74
71.06
54.23
37.32
21.53
8.60
0.06
-3.64
-3.46
-1.48
-0.04
-0.75
-3.91
-8.49
-12.77
-15.29
-15.44
-13.61
-10.82
-8.05
-5.69
-3.48
-0.62
3.59
9.43
16.52
23.98
30.84
36.43
40.58
43.51
45.57
46.93
47.56
47.33
46.20
44.33
42.02
39.55
37.02
34.24
31.00
27.21
23.00
18.72
14.72
11.26
8.45
6.27
4.59
3.29
2.21
1.14
-0.08
-1.58
-3.44
-5.67
-8.27
-11.20
-14.42
-17.83
-21.21
-24.24
-26.62
-28.06
-28.51
-28.08
-27.04
-25.70
-24.28
-22.84
-21.29
-19.57
-17.68
-15.70
-13.70
-11.66
-9.44
-6.83
-3.76
-0.35
2.99
5.66
7.03
6.62
4.29
0.23
-4.98
-10.66
-16.06
-20.62
-24.03
-26.28
-27.51
-27.97
-27.91
-27.45
-26.72
-25.76
-24.61
-23.27
-21.81
-20.23
-18.61
-17.05
-15.60
-14.38
-13.47
-12.88
-12.59
-12.50
-12.39
-11.94
-10.85
-8.88
-6.03
-2.52
1.23
4.70
7.43
9.14
9.80
9.54
8.60
7.14
5.27
3.06
0.58
-2.01
-4.46
-6.53
-8.06
-9.10
-9.81
-10.36
-10.83
-11.18
-11.26
-10.94
-10.25
-9.29
-8.19
-6.97
-5.54
-3.73
-1.47
1.10
3.62
5.72
7.07
7.53
7.11
5.80
3.51
0.10
-4.50
-10.21
-16.60
-23.00
-28.71
-33.22
-36.30
-38.03
-38.59
-38.21
-37.03
-35.13
-32.60
-29.62
-26.45
-23.37
-20.50
-17.90
-15.47
-13.08
-10.65
-8.09
-5.38
-2.49
0.52
3.52
6.33
8.72
10.49
11.57
11.95
11.78
11.25
10.57
9.90
9.31
8.82
8.36
7.80
7.01
5.89
4.42
2.65
0.68
-1.37
-3.38
-5.29
-7.06
-8.65
-10.05
-11.24
-12.17
-12.83
-13.26
-13.49
-13.52
-13.27
-12.65
-11.56
-10.00
-8.11
-6.09
-4.18
-2.45
-0.92
0.53
2.03
3.59
5.12
6.39
7.22
7.53
7.39
6.95
6.42
5.93
5.52
5.13
4.64
4.02
3.30
2.54
1.77
1.03
0.29
-0.39
-0.96
-1.33
-1.44
-1.34
-1.23
-1.36
-1.93
-3.02
-4.58
-6.33
-7.98
-9.19
-9.72
-9.49
-8.49
-6.84
-4.70
-2.28
0.25
2.65
4.68
6.19
7.09
7.45
7.43
7.26
7.14
7.21
7.49
7.88
8.23
8.39
8.22
7.68
6.83
5.76
4.54
3.13
1.42
-0.71
-3.28
-6.09
-8.80
-11.04
-12.52
-13.20
-13.26
-13.02
-12.74
-12.53
-12.40
-12.21
-11.85
-11.20
-10.13
-8.54
-6.31
-3.47
-0.16
3.26
6.41
8.91
10.57
11.45
11.76
11.70
11.43
10.98
10.41
9.77
9.17
8.72
8.43
8.22
7.92
7.30
6.22
4.69
2.83
0.89
-0.92
-2.42
-3.54
-4.27
-4.60
-4.53
-4.03
-3.07
-1.71
-0.11
1.40
2.50
2.88
2.46
1.28
-0.42
-2.34
-4.12
-5.44
-6.08
-5.97
-5.18
-3.94
-2.53
-1.32
-0.53
-0.35
-0.83
-1.91
-3.47
-5.42
-7.60
-9.85
-12.03
-13.96
-15.44
-16.35
-16.65
-16.38
-15.71
-14.75
-13.59
-12.30
-10.95
-9.70
-8.77
-8.33
-8.44
-8.91
-9.45
-9.77
-9.76
-9.49
-9.17
-8.99
-9.00
-9.13
-9.25
-9.34
-9.45
-9.69
-10.08
-10.47
-10.57
-10.04
-8.70
-6.59
-3.94
-1.07
1.70
4.20
6.33
8.01
9.22
9.87
9.90
9.33
8.28
6.93
5.58
4.54
4.01
4.03
4.50
5.15
5.67
5.83
5.48
4.61
3.32
1.69
-0.14
-2.04
-3.87
-5.49
-6.76
-7.56
-7.82
-7.51
-6.75
-5.72
-4.66
-3.87
-3.45
-3.40
-3.51
-3.41
-2.81
-1.59
0.22
2.32
4.31
5.89
6.90
7.37
7.45
7.35
7.16
6.90
6.52
5.99
5.41
4.93
4.64
4.51
4.39
4.00
3.16
1.79
0.03
-1.82
-3.45
-4.60
-5.22
-5.44
-5.55
-5.81
-6.44
-7.48
-8.78
-10.16
-11.40
-12.37
-13.02
-13.39
-13.54
-13.61
-13.77
-14.16
-14.83
-15.62
-16.18
-16.01
-14.69
-12.03
-8.10
-3.25
2.04
7.31
12.21
16.50
20.09
22.99
25.28
27.08
28.51
29.63
30.40
30.66
30.18
28.72
26.16
22.58
18.22
13.43
8.55
3.73
-0.95
-5.52
-9.93
-14.00
-17.51
-20.22
-22.06
-23.08
-23.44
-23.28
-22.67
-21.63
-20.16
-18.29
-16.15
-13.99
-12.08
-10.73
-10.13
-10.28
-10.93
-11.67
-12.00
-11.48
-9.92
-7.35
-4.04
-0.34
3.43
7.03
10.26
13.03
15.24
16.86
17.93
18.55
18.86
18.97
18.89
18.52
17.79
16.64
15.11
13.39
11.66
10.05
8.62
7.35
6.19
5.13
4.15
3.17
2.13
0.87
-0.68
-2.50
-4.40
-6.16
-7.55
-8.55
-9.21
-9.60
-9.85
-9.96
-9.87
-9.57
-9.11
-8.67
-8.51
-8.82
-9.67
-10.98
-12.42
-13.49
-13.70
-12.68
-10.32
-6.78
-2.51
1.99
6.22
9.76
12.37
13.87
14.23
13.57
12.16
10.37
8.64
7.25
6.34
5.86
5.66
5.68
5.88
6.27
6.79
7.37
7.86
8.18
8.29
8.20
7.95
7.50
6.81
5.87
4.73
3.48
2.20
0.90
-0.43
-1.88
-3.49
-5.25
-7.11
-8.97
-10.76
-12.38
-13.68
-14.45
-14.46
-13.54
-11.60
-8.77
-5.35
-1.71
1.75
4.75
7.13
8.87
10.02
10.67
10.91
10.86
10.63
10.28
9.86
9.34
8.71
7.97
7.13
6.26
5.44
4.71
4.16
3.83
3.71
3.71
3.66
3.38
2.80
1.99
1.16
0.50
0.08
-0.21
-0.63
-1.43
-2.76
-4.58
-6.76
-9.05
-11.21
-13.06
-14.42
-15.17
-15.21
-14.50
-13.09
-11.19
-9.01
-6.81
-4.83
-3.13
-1.69
-0.40
0.82
1.95
2.85
3.44
3.70
3.71
3.70
3.84
4.18
4.63
5.03
5.28
5.35
5.36
5.37
5.40
5.30
4.89
4.01
2.62
0.80
-1.32
-3.63
-6.10
-8.72
-11.49
-14.37
-17.21
-19.90
-22.35
-24.46
-26.19
-27.51
-28.32
-28.47
-27.77
-25.98
-22.93
-18.57
-13.08
-6.83
-0.41
5.60
10.75
14.83
17.82
19.88
21.16
21.82
22.03
21.97
21.87
21.92
22.20
22.60
22.87
22.72
21.97
20.67
19.02
17.31
15.75
14.41
13.18
11.91
10.44
8.73
6.82
4.87
2.93
1.00
-1.08
-3.48
-6.25
-9.32
-12.45
-15.33
-17.66
-19.30
-20.12
-20.08
-19.08
-17.00
-13.84
-9.73
-5.04
-0.30
3.94
7.22
9.29
10.14
9.97
9.05
7.69
6.13
4.50
2.89
1.38
0.08
-0.85
-1.24
-1.04
-0.29
0.77
1.80
2.48
2.60
2.18
1.40
0.50
-0.37
-1.14
-1.81
-2.45
-3.05
-3.62
-4.11
-4.48
-4.77
-5.09
-5.56
-6.33
-7.47
-8.96
-10.74
-12.64
-14.47
-16.02
-17.04
-17.33
-16.75
-15.24
-12.92
-10.15
-7.40
-5.11
-3.55
-2.66
-2.16
-1.68
-0.92
0.28
1.88
3.77
5.78
7.76
9.60
11.12
12.17
12.63
12.44
11.63
10.31
8.59
6.50
4.07
1.19
-2.15
-5.83
-9.60
-13.10
-15.97
-18.06
-19.43
-20.22
-20.68
-20.99
-21.19
-21.28
-21.16
-20.71
-19.72
-17.95
-15.20
-11.39
-6.68
-1.43
3.84
8.73
12.94
16.40
19.15
21.17
22.37
22.60
21.77
20.02
17.71
15.35
13.35
11.92
10.95
10.21
9.47
8.65
7.79
7.03
6.41
5.87
5.41
5.08
5.15
5.86
7.34
9.36
11.38
12.73
12.89
11.63
9.12
5.80
2.23
-1.19
-4.12
-6.36
-7.77
-8.20
-7.64
-6.27
-4.39
-2.42
-0.81
0.23
0.69
0.80
0.85
1.04
1.34
1.63
1.70
1.41
0.73
-0.21
-1.27
-2.29
-3.12
-3.68
-3.99
-4.17
-4.39
-4.89
-5.80
-7.10
-8.56
-9.86
-10.76
-11.16
-11.19
-11.00
-10.71
-10.36
-9.99
-9.64
-9.46
-9.60
-10.08
-10.73
-11.17
-10.97
-9.79
-7.60
-4.61
-1.14
2.44
5.82
8.72
10.90
12.16
12.45
11.81
10.45
8.76
7.13
5.93
5.33
5.35
5.87
6.78
7.99
9.39
10.87
12.12
12.77
12.44
10.81
7.83
3.72
-1.06
-6.03
-10.76
-15.00
-18.61
-21.46
-23.47
-24.59
-24.86
-24.42
-23.58
-22.62
-21.69
-20.70
-19.35
-17.22
-14.06
-9.88
-4.96
0.24
5.16
9.35
12.55
14.73
15.98
16.46
16.31
15.64
14.57
13.28
11.96
10.77
9.81
9.09
8.55
8.08
7.61
7.12
6.59
5.98
5.23
4.30
3.15
1.82
0.37
-1.14
-2.63
-4.03
-5.28
-6.33
-7.21
-7.97
-8.72
-9.55
-10.50
-11.45
-12.18
-12.37
-11.67
-9.89
-7.01
-3.23
1.02
5.24
9.00
11.96
14.04
15.30
15.85
15.77
15.09
13.81
12.00
9.86
7.67
5.74
4.31
3.42
3.01
2.91
2.91
2.86
2.58
1.98
1.01
-0.28
-1.79
-3.40
-4.94
-6.37
-7.68
-8.93
-10.24
-11.61
-12.99
-14.30
-15.39
-16.04
-16.04
-15.10
-12.98
-9.54
-4.93
0.39
5.71
10.26
13.46
15.08
15.29
14.50
13.22
11.78
10.40
9.12
8.02
7.17
6.68
6.62
6.99
7.62
8.27
8.70
8.74
8.34
7.51
6.38
5.01
3.53
2.05
0.74
-0.17
-0.50
-0.28
0.17
0.29
-0.54
-2.69
-5.96
-9.69
-12.85
-14.52
-14.25
-12.14
-8.74
-4.79
-0.94
2.46
5.23
7.36
8.85
9.73
10.01
9.76
9.05
8.00
6.72
5.34
3.99
2.81
1.90
1.30
0.97
0.80
0.68
0.56
0.35
0.05
-0.40
-1.07
-1.91
-2.88
-3.83
-4.68
-5.43
-6.18
-7.06
-8.11
-9.21
-10.05
-10.31
-9.77
-8.37
-6.26
-3.67
-0.86
1.96
4.51
6.56
7.83
8.20
7.67
6.48
4.97
3.53
2.44
1.81
1.60
1.68
1.90
2.16
2.38
2.49
2.45
2.24
1.85
1.29
0.60
-0.28
-1.36
-2.69
-4.20
-5.81
-7.33
-8.67
-9.81
-10.84
-11.92
-13.09
-14.35
-15.50
-16.25
-16.19
-14.98
-12.36
-8.32
-3.12
2.71
8.48
13.51
17.37
19.83
20.95
20.85
19.64
17.42
14.27
10.37
6.06
1.78
-2.12
-5.42
-8.16
-10.53
-12.66
-14.47
-15.75
-16.24
-15.91
-14.89
-13.52
-12.14
-10.92
-9.89
-8.88
-7.81
-6.70
-5.73
-5.13
-5.07
-5.56
-6.45
-7.40
-7.99
-7.87
-6.76
-4.64
-1.69
1.74
5.24
8.43
11.04
12.89
13.86
13.96
13.27
11.94
10.22
8.34
6.56
5.03
3.88
3.17
2.94
3.18
3.74
4.43
5.01
5.31
5.28
4.97
4.46
3.83
3.10
2.32
1.54
0.81
0.14
-0.51
-1.21
-2.09
-3.20
-4.46
-5.71
-6.59
-6.74
-5.78
-3.52
-0.06
4.12
8.33
11.85
14.16
15.14
15.01
14.18
13.06
11.89
10.73
9.61
8.60
7.77
7.29
7.18
7.34
7.57
7.65
7.46
7.01
6.42
5.83
5.37
5.05
4.79
4.47
3.91
2.95
1.46
-0.62
-3.27
-6.31
-9.54
-12.71
-15.52
-17.68
-18.92
-18.99
-17.76
-15.31
-11.84
-7.81
-3.76
-0.18
2.57
4.39
5.39
5.81
5.90
5.82
5.65
5.39
5.06
4.71
4.36
3.97
3.34
2.25
0.54
-1.70
-4.20
-6.51
-8.28
-9.33
-9.66
-9.42
-8.76
-7.86
-6.94
-6.25
-6.11
-6.70
-8.03
-9.83
-11.68
-13.12
-13.82
-13.63
-12.58
-10.85
-8.68
-6.49
-4.64
-3.47
-3.07
-3.35
-4.09
-5.04
-6.00
-6.87
-7.58
-8.05
-8.21
-8.01
-7.50
-6.80
-6.06
-5.35
-4.68
-4.04
-3.44
-2.92
-2.55
-2.33
-2.12
-1.85
-1.49
-1.10
-0.87
-0.90
-1.20
-1.64
-2.03
-2.16
-1.86
-1.03
0.43
2.54
5.26
8.34
11.36
13.79
15.16
15.19
13.90
11.55
8.47
5.01
1.47
-1.90
-4.83
-7.03
-8.23
-8.32
-7.40
-5.83
-4.09
-2.51
-1.22
-0.13
0.91
1.91
2.74
3.08
2.65
1.41
-0.35
-2.13
-3.44
-3.98
-3.85
-3.42
-3.19
-3.56
-4.65
-6.18
-7.57
-8.07
-7.08
-4.35
-0.09
5.08
10.39
15.10
18.76
21.20
22.55
23.03
22.88
22.30
21.45
20.49
19.50
18.58
17.73
16.95
16.29
15.81
15.54
15.48
15.48
15.34
14.91
14.12
13.03
11.81
10.54
9.22
7.73
5.98
3.92
1.65
-0.68
-2.95
-5.10
-7.11
-8.99
-10.62
-11.79
-12.31
-12.10
-11.25
-10.05
-8.78
-7.75
-7.16
-7.02
-7.17
-7.33
-7.20
-6.63
-5.69
-4.63
-3.81
-3.50
-3.75
-4.41
-5.23
-5.99
-6.65
-7.23
-7.73
-8.08
-8.10
-7.73
-7.06
-6.43
-6.22
-6.65
-7.76
-9.29
-10.92
-12.38
-13.46
-14.18
-14.55
-14.62
-14.42
-13.95
-13.22
-12.19
-10.83
-9.11
-7.09
-4.93
-2.88
-1.23
-0.09
0.56
0.95
1.31
1.80
2.39
3.01
3.52
3.91
4.28
4.81
5.63
6.76
8.14
9.65
11.13
12.39
13.26
13.55
13.14
11.96
10.00
7.35
4.07
0.19
-4.34
-9.41
-14.82
-20.21
-25.05
-28.79
-30.85
-30.79
-28.40
-23.79
-17.41
-10.05
-2.61
4.15
9.75
14.06
17.21
19.37
20.70
21.28
21.23
20.69
19.96
19.28
18.85
18.66
18.59
18.54
18.39
18.17
17.84
17.34
16.33
14.46
11.40
7.09
1.86
-3.75
-9.09
-13.66
-17.27
-20.07
-22.36
-24.44
-26.39
-28.03
-28.93
-28.51
-26.30
-22.10
-16.14
-9.04
-1.61
5.32
11.23
15.83
19.12
21.25
22.34
22.52
21.95
20.82
19.34
17.80
16.35
15.10
14.10
13.27
12.57
12.02
11.65
11.57
11.86
12.46
13.15
13.57
13.34
12.28
10.56
8.67
7.16
6.49
6.69
7.41
8.06
7.97
6.73
4.19
0.60
-3.46
-7.16
-9.71
-10.52
-9.42
-6.80
-3.30
0.29
3.40
5.69
7.10
7.59
7.18
5.88
3.77
1.12
-1.67
-4.14
-5.92
-6.85
-7.01
-6.72
-6.32
-6.13
-6.30
-6.75
-7.29
-7.68
-7.81
-7.77
-7.76
-8.02
-8.69
-9.71
-10.87
-11.86
-12.46
-12.57
-12.28
-11.78
-11.31
-11.06
-11.12
-11.52
-12.14
-12.79
-13.13
-12.81
-11.54
-9.17
-5.78
-1.70
2.61
6.62
9.94
12.41
14.00
14.75
14.74
13.96
12.51
10.49
8.19
5.95
4.17
3.09
2.73
2.89
3.23
3.39
3.02
1.92
0.03
-2.51
-5.43
-8.32
-10.83
-12.69
-13.77
-14.10
-13.85
-13.31
-12.77
-12.63
-13.14
-14.45
-16.41
-18.59
-20.30
-20.87
-19.88
-17.32
-13.56
-9.22
-4.99
-1.31
1.59
3.74
5.29
6.33
6.93
7.09
6.83
6.29
5.64
5.04
4.63
4.42
4.36
4.38
4.44
4.56
4.70
4.84
4.89
4.78
4.43
3.83
2.97
1.90
0.64
-0.73
-2.15
-3.54
-4.86
-6.16
-7.56
-9.13
-10.83
-12.42
-13.51
-13.61
-12.30
-9.36
-4.84
0.86
7.11
13.18
18.41
22.36
24.86
25.96
25.93
25.10
23.84
22.51
21.34
20.49
20.05
19.96
20.03
20.07
19.84
19.18
17.99
16.24
13.95
11.12
7.67
3.45
-1.57
-7.24
-13.16
-18.69
-23.25
-26.39
-27.95
-28.12
-27.25
-25.75
-23.98
-22.18
-20.40
-18.55
-16.38
-13.53
-9.69
-4.73
1.19
7.61
13.93
19.62
24.27
27.69
29.84
30.70
30.28
28.66
25.97
22.47
18.52
14.40
10.42
6.80
3.69
1.22
-0.53
-1.58
-2.07
-2.16
-2.09
-2.05
-2.11
-2.36
-2.79
-3.39
-4.10
-4.79
-5.22
-5.18
-4.56
-3.48
-2.27
-1.36
-1.11
-1.64
-2.80
-4.29
-5.80
-7.17
-8.33
-9.27
-9.81
-9.65
-8.47
-6.13
-2.77
1.14
4.98
8.25
10.57
11.83
12.08
11.54
10.60
9.79
9.63
10.42
12.07
13.94
15.16
14.93
12.90
9.21
4.53
-0.41
-4.96
-8.74
-11.67
-13.77
-15.08
-15.58
-15.26
-14.21
-12.66
-10.95
-9.46
-8.50
-8.20
-8.48
-9.14
-9.86
-10.33
-10.24
-9.37
-7.54
-4.79
-1.35
2.27
5.40
7.40
7.86
6.77
4.47
1.59
-1.31
-3.87
-6.04
-7.95
-9.71
-11.25
-12.36
-12.82
-12.59
-11.91
-11.16
-10.70
-10.63
-10.79
-10.87
-10.62
-10.04
-9.27
-8.52
-7.84
-7.07
-5.94
-4.23
-1.82
1.19
4.64
8.19
11.50
14.18
15.94
16.61
16.29
15.21
13.73
12.06
10.36
8.68
7.12
5.82
4.97
4.56
4.38
4.04
3.17
1.60
-0.54
-2.97
-5.40
-7.70
-9.89
-12.04
-14.14
-15.97
-17.23
-17.72
-17.43
-16.66
-15.79
-15.16
-14.84
-14.73
-14.57
-14.17
-13.56
-12.89
-12.44
-12.33
-12.54
-12.90
-13.16
-13.09
-12.44
-10.89
-8.14
-3.96
1.62
8.23
15.20
21.76
27.26
31.30
33.79
34.88
34.83
33.94
32.51
30.73
28.76
26.64
24.26
21.37
17.71
13.11
7.65
1.74
-3.99
-8.81
-12.22
-14.07
-14.64
-14.45
-14.02
-13.68
-13.45
-13.17
-12.70
-12.11
-11.68
-11.81
-12.83
-14.77
-17.37
-20.02
-21.97
-22.53
-21.30
-18.23
-13.64
-8.13
-2.35
3.19
8.11
12.23
15.44
17.60
18.60
18.37
17.05
14.99
12.71
10.69
9.29
8.57
8.35
8.32
8.17
7.73
6.94
5.93
4.87
3.99
3.40
3.14
3.14
3.27
3.38
3.32
3.02
2.41
1.47
0.19
-1.47
-3.54
-5.96
-8.55
-11.07
-13.13
-14.34
-14.39
-13.11
-10.66
-7.42
-3.94
-0.76
1.72
3.34
4.15
4.29
3.92
3.10
1.86
0.26
-1.55
-3.36
-4.92
-6.04
-6.65
-6.80
-6.67
-6.49
-6.46
-6.67
-7.19
-7.87
-8.63
-9.40
-10.17
-11.02
-12.05
-13.25
-14.54
-15.75
-16.74
-17.48
-18.12
-18.86
-19.79
-20.79
-21.42
-21.09
-19.22
-15.52
-10.09
-3.51
3.41
9.83
15.11
18.89
21.16
22.10
21.97
21.01
19.39
17.39
15.30
13.49
12.31
11.91
12.22
12.91
13.53
13.66
13.08
11.71
9.65
7.13
4.33
1.43
-1.38
-3.99
-6.29
-8.26
-9.98
-11.58
-13.27
-15.22
-17.54
-20.08
-22.38
-23.77
-23.44
-20.81
-15.64
-8.30
0.36
9.19
17.11
23.26
27.27
29.23
29.56
28.85
27.75
26.71
25.94
25.44
25.01
24.44
23.65
22.77
22.12
22.01
22.51
23.34
23.86
23.30
21.02
16.80
10.87
3.82
-3.55
-10.50
-16.77
-22.67
-29.21
-38.02
-50.90
-69.16
-92.72
-119.45
-145.24
-165.02
-174.27
-170.74
-155.24
-131.07
-102.67
-73.81
-46.59
-21.48
1.71
22.92
41.51
56.64
68.11
76.53
82.84
87.50
89.94
89.05
84.03
75.25
64.11
52.43
41.36
31.09
21.29
11.80
3.22
-3.40
-7.25
-8.42
-7.78
-6.57
-5.63
-5.15
-5.09
-5.52
-6.85
-9.61
-13.96
-19.50
-25.54
-31.52
-37.27
-43.12
-49.50
-56.55
-64.09
-71.55
-78.28
-83.83
-87.95
-90.54
-91.48
-90.42
-86.80
-80.16
-70.38
-58.12
-44.69
-31.58
-19.66
-8.70
2.56
15.54
31.05
49.14
69.53
92.23
117.43
144.48
170.76
191.64
202.12
199.40
184.93
164.35
145.10
133.03
129.72
132.40
136.09
136.48
131.88
123.30
112.98
102.70
93.00
83.26
72.62
60.79
48.37
36.52
26.39
18.39
11.93
5.86
-0.93
-8.81
-17.09
-24.43
-29.48
-31.60
-31.14
-29.30
-27.54
-26.99
-27.95
-29.95
-32.07
-33.44
-33.67
-33.01
-32.32
-32.63
-34.78
-38.95
-44.46
-50.15
-54.76
-57.60
-58.83
-59.39
-60.48
-62.97
-67.01
-71.99
-77.08
-81.73
-85.92
-90.14
-95.14
-101.78
-111.00
-123.64
-140.34
-161.01
-184.26
-207.37
-226.89
-239.73
-244.49
-241.99
-235.03
-226.91
-219.88
-213.92
-207.04
-196.47
-180.33
-158.85
-134.38
-110.84
-92.32
-81.86
-80.43
-86.76
-97.62
-108.79
-116.44
-118.27
-114.11
-105.43
-94.25
-81.73
-67.84
-52.03
-34.49
-17.17
-3.06
5.61
9.25
11.32
16.78
29.49
50.03
75.42
100.72
121.62
136.15
144.89
149.46
150.95
149.37
144.20
135.71
125.73
117.19
112.59
112.89
116.81
121.49
123.81
121.26
112.97
99.82
84.90
73.05
69.69
78.39
97.98
121.51
138.49
140.01
123.72
95.56
66.41
45.87
36.91
35.28
33.58
27.02
16.96
9.37
9.99
19.77
33.82
44.38
45.66
37.09
22.77
8.44
-2.06
-8.57
-13.87
-21.66
-34.27
-51.67
-71.32
-89.32
-101.72
-105.87
-101.04
-88.24
-69.45
-46.52
-20.69
7.41
37.14
67.22
95.47
119.43
137.18
147.98
152.27
150.97
144.69
133.28
116.42
94.35
68.61
42.19
18.76
1.32
-9.28
-14.76
-18.78
-25.21
-36.31
-51.62
-68.30
-82.68
-91.96
-95.58
-95.09
-93.03
-91.32
-90.12
-87.83
-81.96
-70.41
-52.30
-28.27
0.03
30.62
61.78
92.40
122.07
150.69
177.97
203.19
225.28
243.04
255.61
262.66
264.63
262.42
257.07
249.18
238.82
225.68
209.56
190.81
170.34
149.55
129.76
111.96
96.53
83.34
71.93
61.55
51.11
38.96
23.37
2.62
-24.10
-56.14
-91.19
-125.72
-155.64
-177.30
-189.00
-191.54
-188.14
-182.87
-178.81
-176.93
-176.02
-173.87
-168.88
-161.09
-151.91
-143.01
-135.04
-127.34
-118.64
-108.15
-96.45
-85.23
-76.30
-70.51
-67.24
-64.76
-61.14
-55.31
-47.16
-37.53
-27.79
-19.16
-12.32
-7.54
-5.06
-4.95
-7.32
-11.98
-18.42
-25.52
-31.68
-35.03
-34.02
-27.85
-16.73
-1.98
14.42
30.19
43.63
53.89
61.01
65.62
68.42
69.81
69.86
68.38
65.26
60.73
55.37
49.94
45.08
41.14
38.11
35.64
33.24
30.52
27.28
23.66
19.92
16.29
12.80
9.20
5.05
-0.12
-6.65
-14.60
-23.71
-33.38
-42.56
-49.89
-53.84
-52.99
-46.57
-34.81
-18.93
-0.87
17.33
34.14
48.74
60.98
71.03
78.99
84.73
87.95
88.56
86.89
83.70
79.99
76.67
74.30
72.98
72.51
72.53
72.75
72.95
73.03
72.94
72.61
72.02
71.19
70.12
68.78
67.03
64.60
61.25
56.91
51.92
47.12
43.85
43.65
47.88
57.23
71.40
89.09
108.32
126.94
143.06
155.44
163.60
167.60
167.92
165.09
159.61
151.85
142.14
130.79
118.21
104.96
91.60
78.56
65.89
53.14
39.59
24.53
7.78
-10.05
-27.73
-43.81
-57.26
-67.77
-75.77
-82.10
-87.66
-93.11
-98.73
-104.45
-110.00
-114.77
-117.91
-118.49
-115.72
-109.33
-99.67
-87.62
-74.26
-60.58
-47.21
-34.41
-22.13
-10.12
1.86
13.94
26.08
38.14
49.94
61.47
72.93
84.77
97.52
111.57
126.89
142.87
158.37
171.95
182.05
187.24
186.33
178.46
163.24
140.75
111.64
77.20
39.29
0.15
-37.97
-73.12
-103.96
-129.76
-150.37
-166.09
-177.52
-185.48
-190.88
-194.59
-197.27
-199.29
-200.63
-200.89
-199.50
-195.99
-190.28
-182.88
-174.75
-166.90
-159.83
-153.24
-146.24
-137.81
-127.57
-116.03
-104.31
-93.35
-83.18
-72.80
-60.74
-46.11
-29.37
-12.19
3.20
15.21
23.37
28.45
31.68
34.20
36.64
39.17
41.87
44.94
48.72
53.43
59.07
65.34
71.89
78.50
85.10
91.68
98.03
103.85
108.72
112.45
115.09
116.88
118.00
118.54
118.59
118.34
118.16
118.18
117.93
116.07
110.53
99.39
81.77
58.52
32.02
5.45
-18.31
-37.32
-50.76
-58.62
-61.18
-58.86
-52.14
-41.78
-28.81
-14.32
0.66
15.34
29.13
41.54
52.19
60.95
68.01
73.79
78.59
82.29
84.27
83.61
79.71
72.75
63.84
54.65
46.66
40.55
35.97
31.81
26.72
19.69
10.28
-1.39
-14.77
-29.02
-43.13
-56.13
-67.16
-75.77
-81.91
-85.92
-88.31
-89.57
-90.03
-89.86
-89.27
-88.53
-87.92
-87.65
-87.75
-88.08
-88.52
-88.98
-89.49
-90.14
-90.99
-91.98
-92.95
-93.69
-93.96
-93.61
-92.59
-91.00
-89.10
-87.15
-85.32
-83.63
-81.94
-80.09
-77.91
-75.41
-72.60
-69.66
-66.72
-63.92
-61.32
-58.86
-56.36
-53.53
-50.22
-46.48
-42.71
-39.46
-37.21
-36.14
-36.05
-36.56
-37.31
-38.16
-39.23
-40.78
-42.99
-45.95
-49.56
-53.48
-57.20
-60.06
-61.31
-60.32
-56.68
-50.40
-41.83
-31.73
-21.00
-10.66
-1.61
5.39
9.98
12.18
12.42
11.44
10.05
8.99
8.65
9.14
10.30
11.87
13.67
15.62
17.70
19.95
22.36
24.80
27.17
29.32
31.12
32.50
33.36
33.65
33.26
32.12
30.28
27.93
25.43
23.27
21.86
21.42
21.83
22.69
23.45
23.68
23.20
22.13
20.73
19.26
17.85
16.42
14.84
12.95
10.75
8.37
5.97
3.69
1.52
-0.62
-2.81
-5.06
-7.21
-9.08
-10.49
-11.39
-11.87
-12.11
-12.21
-12.20
-12.02
-11.54
-10.77
-9.69
-8.38
-6.95
-5.51
-4.19
-3.08
-2.25
-1.65
-1.19
-0.73
-0.26
0.12
0.22
-0.04
-0.64
-1.47
-2.37
-3.30
-4.28
-5.34
-6.46
-7.43
-7.95
-7.78
-6.87
-5.33
-3.46
-1.54
0.21
1.66
2.79
3.55
3.90
3.75
3.05
1.81
0.11
-1.90
-4.04
-6.16
-8.11
-9.72
-10.77
-11.00
-10.30
-8.75
-6.65
-4.50
-2.70
-1.48
-0.76
-0.30
0.15
0.72
1.43
2.27
3.20
4.28
5.46
6.65
7.65
8.32
8.55
8.46
8.21
7.95
7.76
7.60
7.37
6.98
6.37
5.56
4.57
3.48
2.30
1.11
-0.01
-0.89
-1.37
-1.33
-0.79
0.05
0.92
1.50
1.60
1.28
0.74
0.33
0.29
0.66
1.29
2.00
2.62
3.16
3.74
4.46
5.32
6.13
6.63
6.61
6.06
5.19
4.28
3.64
3.37
3.45
3.69
3.93
4.04
3.97
3.75
3.38
2.94
2.42
1.90
1.41
0.96
0.51
-0.04
-0.81
-1.83
-3.06
-4.37
-5.58
-6.50
-7.06
-7.22
-7.05
-6.63
-6.06
-5.36
-4.56
-3.68
-2.76
-1.92
-1.29
-0.97
-1.02
-1.39
-2.00
-2.73
-3.51
-4.27
-4.95
-5.46
-5.70
-5.66
-5.41
-5.13
-4.96
-4.98
-5.11
-5.19
-5.11
-4.82
-4.44
-4.16
-4.12
-4.36
-4.81
-5.31
-5.64
-5.73
-5.54
-5.11
-4.50
-3.73
-2.81
-1.78
-0.75
0.17
0.82
1.16
1.22
1.13
0.95
0.69
0.28
-0.30
-0.99
-1.63
-1.97
-1.87
-1.41
-0.84
-0.43
-0.42
-0.84
-1.59
-2.55
-3.64
-4.84
-6.16
-7.53
-8.75
-9.63
-9.94
-9.57
-8.53
-6.91
-4.84
-2.47
0.10
2.68
5.01
6.80
7.81
7.96
7.38
6.35
5.23
4.29
3.55
2.92
2.20
1.22
-0.02
-1.39
-2.72
-3.88
-4.91
-5.92
-7.07
-8.40
-9.87
-11.22
-12.21
-12.63
-12.37
-11.45
-9.96
-8.05
-5.85
-3.51
-1.26
0.62
1.82
2.18
1.71
0.65
-0.61
-1.73
-2.51
-2.97
-3.25
-3.55
-3.92
-4.29
-4.55
-4.62
-4.52
-4.38
-4.37
-4.62
-5.21
-6.17
-7.43
-8.94
-10.64
-12.45
-14.23
-15.78
-16.78
-16.92
-15.97
-13.88
-10.81
-7.07
-3.04
1.01
4.87
8.47
11.62
14.16
15.87
16.66
16.65
16.15
15.59
15.38
15.84
17.07
18.99
21.44
24.21
27.11
29.94
32.54
34.75
36.56
37.97
39.02
39.76
40.17
40.19
39.77
38.94
37.90
37.11
37.15
38.57
41.59
46.04
51.34
56.63
61.10
64.16
65.62
65.64
64.57
62.72
60.22
57.05
53.09
48.21
42.21
34.87
25.96
15.34
3.19
-9.92
-23.00
-34.87
-44.44
-51.05
-54.65
-55.71
-54.96
-53.15
-50.83
-48.32
-45.77
-43.31
-41.14
-39.45
-38.31
-37.55
-36.62
-34.85
-31.61
-26.67
-20.25
-12.88
-5.20
2.31
9.37
15.76
21.13
24.93
26.43
25.06
20.66
13.66
5.06
-3.87
-11.86
-18.00
-21.84
-23.46
-23.22
-21.72
-19.53
-17.21
-15.25
-14.06
-13.89
-14.74
-16.33
-18.24
-20.06
-21.58
-22.92
-24.38
-26.25
-28.68
-31.52
-34.50
-37.32
-39.72
-41.43
-41.98
-40.72
-37.07
-30.95
-23.09
-15.13
-9.00
-6.17
-6.96
-10.47
-15.11
-19.38
-22.48
-24.35
-25.39
-25.92
-26.07
-25.91
-25.70
-25.89
-26.87
-28.45
-29.71
-29.24
-25.74
-18.57
-8.21
4.13
16.91
28.89
39.47
48.70
56.88
64.17
70.19
73.87
73.96
69.48
60.35
47.69
33.51
20.01
8.78
0.32
-5.96
-11.08
-15.94
-20.89
-25.82
-30.46
-34.76
-38.95
-43.47
-48.54
-53.95
-59.10
-63.36
-66.33
-68.20
-69.72
-71.92
-75.71
-81.49
-88.83
-96.68
-103.58
-108.04
-109.04
-106.22
-99.96
-91.17
-81.14
-71.07
-61.78
-53.36
-45.30
-36.86
-27.43
-17.12
-6.66
2.78
10.20
15.12
17.77
18.78
18.74
18.04
16.73
14.84
12.52
10.17
8.41
7.73
8.43
10.41
13.21
16.14
18.47
19.62
19.36
17.85
15.48
12.85
10.40
8.34
6.58
4.89
2.96
0.52
-2.55
-6.19
-10.09
-13.61
-15.72
-15.19
-10.93
-2.34
10.26
25.69
42.14
57.80
71.21
81.56
88.67
92.72
94.14
93.55
91.84
90.17
89.75
91.43
95.32
100.61
105.94
109.94
111.76
111.35
109.19
105.93
101.98
97.44
92.27
86.56
80.67
75.04
70.06
65.73
61.71
57.50
52.62
46.81
40.06
32.65
24.98
17.39
10.02
2.65
-5.12
-13.66
-22.92
-32.19
-40.20
-45.55
-47.34
-45.62
-41.41
-36.16
-31.19
-27.15
-24.02
-21.38
-18.97
-16.78
-15.14
-14.40
-14.64
-15.60
-16.81
-17.71
-17.94
-17.42
-16.29
-14.87
-13.52
-12.45
-11.81
-11.67
-12.10
-13.21
-15.08
-17.61
-20.46
-23.14
-25.18
-26.31
-26.61
-26.40
-26.10
-25.98
-26.07
-26.28
-26.56
-26.99
-27.72
-28.77
-29.87
-30.33
-29.16
-25.41
-18.58
-9.02
2.08
12.96
21.86
27.62
29.93
29.32
26.74
23.14
19.24
15.50
12.38
10.37
9.99
11.45
14.62
18.94
23.76
28.72
33.91
39.98
47.85
58.49
72.33
88.73
105.67
120.08
128.59
128.73
119.87
103.37
81.98
58.71
35.78
14.29
-5.34
-22.73
-37.15
-47.68
-53.85
-56.01
-55.40
-53.65
-52.04
-51.15
-50.84
-50.61
-49.95
-48.70
-46.98
-45.13
-43.56
-42.50
-41.97
-41.77
-41.46
-40.54
-38.62
-35.55
-31.45
-26.68
-21.73
-17.04
-12.95
-9.58
-6.92
-4.86
-3.29
-2.15
-1.49
-1.37
-1.75
-2.50
-3.24
-3.61
-3.40
-2.66
-1.69
-0.89
-0.55
-0.74
-1.26
-1.84
-2.37
-2.95
-3.81
-5.14
-7.00
-9.17
-11.36
-13.29
-14.76
-15.68
-16.03
-15.74
-14.78
-13.31
-11.61
-10.13
-9.27
-9.16
-9.62
-10.24
-10.60
-10.51
-10.09
-9.70
-9.70
-10.35
-11.52
-12.85
-13.81
-13.87
-12.72
-10.36
-7.07
-3.40
0.10
3.02
5.19
6.65
7.57
8.12
8.35
8.21
7.65
6.70
5.47
4.20
3.10
2.31
1.87
1.68
1.64
1.64
1.57
1.37
0.93
0.23
-0.75
-1.91
-3.09
-4.10
-4.84
-5.33
-5.69
-6.05
-6.55
-7.20
-7.97
-8.81
-9.70
-10.57
-11.38
-12.11
-12.72
-13.24
-13.77
-14.40
-15.13
-15.80
-16.06
-15.52
-13.86
-11.00
-7.16
-2.79
1.55
5.32
8.18
10.06
11.10
11.57
11.71
11.63
11.35
10.79
9.94
8.92
7.92
7.08
6.47
5.99
5.47
4.76
3.86
2.85
1.84
0.88
-0.05
-1.02
-2.09
-3.22
-4.32
-5.25
-5.91
-6.28
-6.39
-6.40
-6.47
-6.72
-7.19
-7.80
-8.41
-8.93
-9.39
-9.94
-10.74
-11.85
-13.06
-13.99
-14.14
-13.12
-10.84
-7.54
-3.78
-0.16
2.78
4.79
5.88
6.26
6.25
6.16
6.10
6.11
6.11
5.95
5.52
4.84
4.06
3.36
2.93
2.86
3.08
3.44
3.69
3.65
3.17
2.22
0.86
-0.80
-2.63
-4.43
-6.04
-7.43
-8.62
-9.69
-10.70
-11.65
-12.45
-13.02
-13.30
-13.44
-13.73
-14.48
-15.94
-18.17
-20.97
-23.92
-26.52
-28.32
-29.04
-28.68
-27.49
-25.85
-24.15
-22.56
-21.01
-19.24
-16.97
-14.16
-11.15
-8.59
-7.27
-7.80
-10.20
-13.77
-17.12
-18.45
-15.98
-8.39
4.67
22.20
41.78
59.95
73.19
79.07
77.17
69.23
58.43
47.98
39.90
34.54
30.99
28.00
24.81
21.51
18.62
16.54
15.12
13.69
11.63
8.82
5.84
3.79
3.59
5.24
7.48
8.07
4.78
-3.44
-15.67
-29.15
-40.27
-46.08
-45.39
-39.13
-29.73
-19.88
-11.58
-5.59
-1.57
1.31
3.84
6.40
8.89
10.92
12.03
12.03
11.04
9.49
7.78
6.16
4.61
2.96
1.15
-0.65
-2.02
-2.47
-1.74
0.03
2.27
4.15
4.87
3.98
1.54
-1.92
-5.54
-8.41
-9.99
-10.31
-10.05
-10.27
-11.86
-15.02
-19.18
-23.19
-25.96
-27.01
-26.68
-25.87
-25.57
-26.50
-28.97
-32.95
-38.06
-43.54
-48.27
-50.99
-50.89
-48.16
-44.11
-40.82
-40.23
-43.36
-49.80
-58.12
-66.46
-73.40
-78.33
-81.34
-82.96
-83.72
-84.03
-84.08
-83.96
-83.65
-83.05
-81.99
-80.13
-77.05
-72.39
-65.96
-57.93
-48.79
-39.22
-29.90
-21.29
-13.63
-6.98
-1.39
3.03
6.08
7.58
7.49
5.97
3.36
0.15
-3.29
-6.71
-10.19
-13.99
-18.55
-24.18
-30.87
-38.12
-44.86
-49.59
-50.74
-47.14
-38.42
-25.19
-8.92
8.52
25.37
40.44
53.21
63.66
71.94
78.15
82.22
84.13
84.02
82.40
80.04
77.79
76.30
75.76
75.97
76.47
76.71
76.42
75.57
74.29
72.80
71.16
69.15
66.44
62.71
57.84
52.02
45.67
39.22
33.00
27.07
21.29
15.34
8.94
1.79
-6.30
-15.49
-25.78
-36.81
-47.72
-57.12
-63.28
-64.60
-60.13
-49.95
-35.27
-18.04
-0.41
15.82
29.44
39.94
47.19
51.32
52.59
51.44
48.56
44.90
41.48
39.15
38.35
38.97
40.50
42.18
43.31
43.40
42.35
40.37
37.80
34.88
31.60
27.62
22.52
15.98
8.05
-0.76
-9.67
-17.89
-24.98
-30.98
-36.33
-41.71
-47.75
-54.78
-62.75
-71.05
-78.48
-83.43
-84.26
-79.73
-69.55
-54.56
-36.61
-18.03
-0.90
13.42
24.51
32.61
38.30
42.06
44.16
44.76
44.14
42.78
41.28
40.10
39.33
38.69
37.63
35.73
32.87
29.30
25.46
21.60
17.67
13.21
7.63
0.47
-8.33
-18.38
-28.90
-38.97
-47.85
-55.24
-61.36
-66.96
-73.03
-80.37
-89.14
-98.61
-107.12
-112.49
-112.68
-106.51
-94.06
-76.61
-56.30
-35.41
-15.79
1.44
15.90
27.69
37.20
44.87
51.19
56.64
61.61
66.31
70.64
74.35
77.12
78.75
79.33
79.18
78.70
78.22
77.74
76.97
75.34
72.31
67.45
60.73
52.54
43.54
34.49
26.00
18.30
11.26
4.38
-2.94
-11.19
-20.48
-30.38
-39.86
-47.33
-51.02
-49.48
-42.06
-29.32
-12.86
5.03
22.02
36.46
47.62
55.67
61.33
65.31
68.07
69.80
70.54
70.44
69.86
69.25
68.90
68.83
68.72
68.17
66.88
64.83
62.22
59.32
56.23
52.74
48.49
43.14
36.62
29.24
21.56
14.16
7.41
1.25
-4.83
-11.58
-19.63
-29.29
-40.20
-51.31
-60.92
-67.12
-68.27
-63.61
-53.54
-39.50
-23.55
-7.74
6.49
18.52
28.37
36.31
42.50
46.92
49.53
50.51
50.30
49.58
48.98
48.82
49.03
49.30
49.26
48.73
47.82
46.76
45.79
44.89
43.78
42.01
39.20
35.22
30.26
24.75
19.14
13.77
8.68
3.70
-1.38
-6.74
-12.35
-18.01
-23.45
-28.43
-32.86
-36.90
-40.86
-45.24
-50.54
-57.14
-65.00
-73.44
-81.11
-86.22
-87.00
-82.34
-72.21
-57.79
-41.05
-24.18
-8.89
3.92
14.18
22.27
28.67
33.63
37.17
39.25
39.99
39.79
39.27
39.00
39.32
40.24
41.49
42.71
43.67
44.31
44.66
44.72
44.33
43.17
40.93
37.54
33.18
28.28
23.33
18.69
14.45
10.46
6.45
2.17
-2.45
-7.27
-12.05
-16.57
-20.73
-24.67
-28.76
-33.46
-39.18
-46.04
-53.61
-60.89
-66.44
-68.71
-66.52
-59.51
-48.30
-34.33
-19.43
-5.34
6.73
16.25
23.16
27.71
30.28
31.26
31.07
30.24
29.29
28.68
28.71
29.48
30.84
32.52
34.17
35.42
36.00
35.73
34.66
32.91
30.73
28.34
25.83
23.27
20.65
17.94
15.13
12.26
9.35
6.35
3.25
0.06
-3.10
-6.03
-8.48
-10.33
-11.67
-12.81
-14.16
-15.98
-18.25
-20.35
-21.22
-19.65
-14.70
-6.08
5.70
19.51
34.00
47.96
60.59
71.46
80.29
86.84
90.80
91.99
90.52
86.90
81.91
76.42
71.22
66.84
63.52
61.34
60.12
59.59
59.35
58.92
57.84
55.78
52.59
48.35
43.34
37.82
31.95
25.77
19.23
12.38
5.36
-1.46
-7.75
-13.27
-18.05
-22.35
-26.52
-30.81
-35.26
-39.71
-43.96
-47.87
-51.41
-54.63
-57.46
-59.73
-61.14
-61.38
-60.31
-58.09
-55.16
-52.11
-49.45
-47.45
-46.07
-45.01
-43.87
-42.30
-40.16
-37.50
-34.50
-31.38
-28.27
-25.21
-22.17
-19.19
-16.35
-13.78
-11.59
-9.75
-8.22
-6.94
-6.00
-5.67
-6.25
-7.95
-10.72
-14.35
-18.51
-23.02
-27.81
-32.96
-38.54
-44.55
-50.79
-57.02
-63.00
-68.49
-73.31
-77.07
-79.28
-79.38
-76.94
-71.88
-64.62
-55.98
-46.91
-38.26
-30.46
-23.53
-17.28
-11.50
-6.24
-1.78
1.52
3.46
4.16
3.99
3.50
3.15
3.21
3.77
4.70
5.83
6.90
7.74
8.21
8.24
7.91
7.31
6.50
5.46
4.11
2.39
0.35
-1.82
-3.86
-5.54
-6.75
-7.51
-8.01
-8.49
-9.17
-10.28
-11.90
-14.10
-16.77
-19.71
-22.53
-24.62
-25.32
-24.05
-20.49
-14.71
-7.16
1.45
10.31
18.71
26.14
32.26
36.85
39.78
41.03
40.68
39.01
36.47
33.63
31.05
29.12
27.97
27.44
27.21
26.88
26.15
24.92
23.25
21.27
19.10
16.83
14.48
12.05
9.51
6.84
3.96
0.85
-2.53
-6.12
-9.81
-13.48
-17.05
-20.46
-23.66
-26.63
-29.41
-32.04
-34.66
-37.28
-39.79
-41.85
-42.90
-42.37
-39.90
-35.56
-29.82
-23.49
-17.37
-12.04
-7.79
-4.56
-2.15
-0.39
0.83
1.47
1.37
0.51
-0.99
-2.83
-4.56
-5.83
-6.45
-6.48
-6.15
-5.76
-5.45
-5.25
-5.08
-4.89
-4.69
-4.68
-5.05
-5.91
-7.29
-9.05
-10.97
-12.83
-14.46
-15.80
-16.91
-17.92
-18.91
-19.90
-20.86
-21.71
-22.41
-22.94
-23.32
-23.54
-23.38
-22.54
-20.68
-17.54
-13.12
-7.67
-1.62
4.55
10.38
15.57
19.85
23.10
25.31
26.59
27.10
27.05
26.60
25.82
24.76
23.38
21.72
19.92
18.14
16.46
14.91
13.47
12.05
10.67
9.38
8.26
7.34
6.48
5.47
4.14
2.46
0.59
-1.19
-2.68
-3.84
-4.89
-6.14
-7.74
-9.67
-11.64
-13.39
-14.74
-15.72
-16.49
-17.08
-17.26
-16.45
-13.96
-9.25
-2.25
6.52
15.96
24.60
30.95
33.65
31.71
24.70
12.78
-3.16
-21.44
-39.81
-55.88
-67.74
-74.41
-76.09
-73.80
-68.86
-62.31
-54.61
-45.83
-36.16
-26.22
-17.17
-10.29
-6.45
-5.78
-7.60
-10.80
-14.34
-17.62
-20.52
-23.37
-26.56
-30.35
-34.78
-39.73
-44.88
-49.85
-54.15
-57.11
-57.94
-55.87
-50.24
-40.85
-28.04
-12.74
3.73
19.88
34.40
46.29
55.02
60.43
62.63
61.92
58.65
53.36
46.63
39.07
31.19
23.25
15.20
6.84
-2.05
-11.42
-20.92
-30.11
-38.60
-46.47
-54.21
-62.43
-71.51
-81.20
-90.63
-98.51
-103.65
-105.24
-103.16
-97.98
-90.83
-83.17
-76.47
-71.84
-69.58
-69.00
-68.53
-66.23
-60.50
-50.69
-37.30
-21.68
-5.57
9.57
22.81
33.90
42.94
50.13
55.59
59.27
61.11
61.20
59.87
57.67
55.17
52.72
50.39
47.90
44.85
40.97
36.30
31.20
26.22
21.77
17.98
14.55
10.94
6.57
1.12
-5.33
-12.29
-19.11
-25.31
-30.70
-35.49
-40.14
-45.11
-50.67
-56.86
-63.39
-69.67
-74.83
-77.82
-77.69
-73.76
-66.00
-55.07
-42.21
-28.88
-16.29
-5.28
3.80
10.90
16.11
19.60
21.56
22.39
22.61
22.84
23.71
25.70
29.07
33.74
39.33
45.08
50.15
53.72
55.43
55.55
54.95
54.80
55.91
58.46
61.71
64.53
65.85
65.25
63.07
60.18
57.51
55.49
54.06
52.74
50.99
48.44
44.92
40.49
35.36
30.13
25.97
24.61
28.00
37.66
53.85
75.06
98.23
119.57
135.78
145.15
147.89
145.55
139.87
131.63
120.17
104.09
82.40
55.82
27.12
0.46
-20.22
-32.76
-37.39
-36.32
-32.30
-27.28
-21.69
-14.94
-6.43
3.26
12.12
17.32
16.47
8.93
-3.80
-18.46
-31.34
-39.65
-42.46
-40.73
-36.60
-32.35
-29.57
-28.85
-30.01
-32.56
-36.06
-40.08
-43.99
-46.80
-47.23
-44.01
-36.52
-25.04
-10.83
4.30
18.56
30.71
40.33
47.62
53.20
57.60
61.19
64.06
66.07
66.93
66.13
63.02
56.99
47.83
36.10
23.24
11.23
1.92
-3.82
-6.35
-7.14
-7.91
-9.77
-12.72
-15.60
-16.76
-14.80
-9.19
-0.46
10.00
20.46
29.44
36.01
40.11
42.38
44.07
46.59
51.08
58.07
67.22
77.49
87.43
95.62
101.04
103.21
102.06
97.73
90.42
80.34
67.94
53.99
39.60
25.94
13.89
3.76
-4.78
-12.44
-19.96
-27.78
-35.87
-43.79
-51.01
-57.13
-62.02
-65.90
-69.09
-71.84
-74.23
-76.11
-77.27
-77.54
-76.94
-75.57
-73.62
-71.17
-68.17
-64.51
-60.17
-55.32
-50.32
-45.60
-41.54
-38.41
-36.37
-35.48
-35.79
-37.28
-39.87
-43.31
-47.24
-51.27
-55.06
-58.36
-61.09
-63.24
-64.81
-65.79
-66.13
-65.71
-64.45
-62.26
-59.10
-54.96
-49.87
-43.84
-36.92
-29.21
-20.95
-12.60
-4.81
1.64
5.96
7.65
6.67
3.63
-0.27
-3.44
-4.29
-1.66
4.83
14.73
26.93
40.00
52.59
63.78
73.08
80.32
85.50
88.60
89.50
88.18
84.68
79.33
72.71
65.50
58.33
51.60
45.36
39.35
33.29
27.00
20.64
14.60
9.26
4.74
0.71
-3.36
-8.09
-13.69
-19.94
-26.26
-32.03
-36.88
-40.78
-43.92
-46.59
-49.01
-51.37
-53.87
-56.72
-59.95
-63.26
-65.80
-66.42
-63.99
-57.87
-48.23
-36.07
-22.80
-9.89
1.57
11.04
18.44
23.91
27.67
29.87
30.65
30.17
28.80
26.93
25.07
23.55
22.53
21.92
21.39
20.58
19.23
17.32
15.00
12.58
10.29
8.19
6.13
3.75
0.74
-3.04
-7.47
-12.17
-16.66
-20.57
-23.72
-26.18
-28.26
-30.38
-32.96
-36.37
-40.73
-45.79
-50.83
-54.70
-56.00
-53.54
-46.82
-36.19
-22.86
-8.50
5.34
17.58
27.79
36.05
42.60
47.57
50.94
52.56
52.36
50.53
47.52
43.95
40.45
37.51
35.30
33.68
32.22
30.41
27.75
23.99
19.15
13.44
7.23
0.93
-5.14
-10.81
-16.02
-20.77
-25.13
-29.16
-32.91
-36.39
-39.51
-42.18
-44.34
-46.05
-47.52
-49.11
-51.19
-53.86
-56.90
-59.61
-60.95
-59.75
-55.10
-46.62
-34.60
-19.98
-4.14
11.44
25.50
37.19
46.20
52.53
56.44
58.21
58.12
56.43
53.49
49.69
45.51
41.44
37.85
34.90
32.55
30.61
28.92
27.47
26.26
25.40
24.87
24.45
23.77
22.37
19.93
16.35
11.89
6.99
2.10
-2.40
-6.41
-10.08
-13.71
-17.61
-21.99
-26.83
-31.94
-36.98
-41.61
-45.56
-48.79
-51.44
-53.82
-56.34
-59.30
-62.85
-66.87
-70.96
-74.45
-76.55
-76.45
-73.57
-67.68
-59.03
-48.29
-36.41
-24.50
-13.62
-4.67
1.74
5.33
6.25
5.17
3.39
2.76
5.37
12.95
26.12
43.94
63.73
81.75
94.35
99.27
96.42
87.77
76.26
64.49
53.83
44.35
35.45
26.80
18.69
11.95
7.28
4.73
3.64
2.97
1.92
0.19
-2.04
-4.49
-6.98
-9.40
-11.60
-13.25
-13.90
-13.22
-11.19
-8.12
-4.60
-1.19
1.66
3.65
4.52
4.03
1.96
-1.72
-6.67
-12.19
-17.19
-20.48
-20.94
-17.76
-10.54
0.54
14.66
30.47
46.21
59.97
70.08
75.26
74.81
68.60
57.05
40.96
21.55
0.22
-21.51
-42.07
-59.94
-73.61
-81.82
-83.80
-79.49
-69.57
-55.45
-38.92
-21.85
-5.89
7.67
17.95
24.45
27.03
26.00
22.02
16.10
9.35
2.81
-2.71
-6.78
-9.35
-10.80
-11.76
-12.90
-14.61
-16.96
-19.72
-22.58
-25.32
-27.98
-30.81
-34.20
-38.51
-43.71
-49.10
-53.22
-54.00
-49.43
-38.37
-21.31
-0.50
20.61
38.59
51.16
57.84
59.80
59.09
57.73
57.09
57.71
59.30
60.79
60.48
56.33
46.71
31.36
12.09
-7.37
-22.51
-29.68
-27.48
-17.18
-2.03
14.15
28.12
37.80
42.24
41.41
36.10
28.00
19.48
12.83
9.37
8.70
8.86
7.30
2.02
-7.50
-20.22
-34.22
-47.57
-58.84
-67.31
-72.71
-75.04
-74.59
-71.95
-68.10
-64.15
-60.88
-58.48
-56.42
-53.70
-49.30
-42.56
-33.39
-22.31
-10.18
2.08
13.72
24.24
33.45
41.30
47.87
53.24
57.43
60.42
62.21
62.78
62.29
61.11
59.78
58.85
58.77
59.64
61.24
63.11
64.65
65.27
64.53
62.07
57.74
51.53
43.61
34.29
24.07
13.48
3.10
-6.53
-15.00
-22.02
-27.49
-31.49
-34.23
-35.96
-37.00
-37.64
-38.23
-39.08
-40.46
-42.47
-44.97
-47.62
-49.88
-51.38
-51.98
-51.90
-51.67
-51.81
-52.61
-53.91
-55.04
-55.00
-52.85
-48.07
-40.75
-31.65
-21.92
-12.71
-4.91
1.15
5.50
8.38
10.08
10.83
10.82
10.35
9.82
9.61
9.95
10.79
11.91
13.02
13.93
14.53
14.76
14.51
13.65
12.11
9.97
7.48
5.01
2.84
1.09
-0.30
-1.42
-2.33
-2.91
-3.02
-2.55
-1.53
-0.22
1.02
1.71
1.48
0.06
-2.55
-6.10
-10.22
-14.49
-18.67
-22.72
-26.71
-30.75
-34.82
-38.83
-42.50
-45.56
-47.72
-48.75
-48.47
-46.73
-43.45
-38.70
-32.71
-25.91
-18.79
-11.82
-5.38
0.36
5.33
9.54
12.96
15.52
17.17
17.93
17.96
17.48
16.74
15.87
14.95
14.01
13.07
12.19
11.46
10.95
10.63
10.39
10.11
9.66
8.98
8.14
7.25
6.46
5.93
5.69
5.80
6.26
7.05
8.13
9.41
10.74
11.88
12.66
12.95
12.80
12.35
11.65
10.66
9.18
6.95
3.87
0.17
-3.54
-6.29
-7.11
-5.32
-0.79
5.95
13.82
21.51
27.81
31.93
33.55
32.75
29.92
25.60
20.39
14.88
9.64
5.15
1.75
-0.39
-1.39
-1.58
-1.52
-1.85
-3.20
-5.93
-10.06
-15.26
-20.93
-26.44
-31.36
-35.50
-38.92
-41.83
-44.41
-46.68
-48.50
-49.61
-49.82
-49.09
-47.69
-46.09
-44.91
-44.64
-45.49
-47.27
-49.37
-50.86
-50.73
-48.12
-42.65
-34.58
-24.80
-14.62
-5.41
1.81
6.69
9.54
11.19
12.63
14.61
17.50
21.26
25.58
30.12
34.66
39.04
43.12
46.70
49.50
51.21
51.72
51.13
49.74
47.83
45.51
42.63
38.86
33.91
27.70
20.49
12.79
5.23
-1.61
-7.30
-11.65
-14.66
-16.60
-17.94
-19.37
-21.58
-25.08
-29.86
-35.27
-40.07
-42.87
-42.59
-38.86
-32.17
-23.67
-14.75
-6.54
0.27
5.52
9.33
11.91
13.42
13.92
13.51
12.37
10.88
9.49
8.59
8.35
8.67
9.25
9.69
9.68
9.13
8.20
7.18
6.42
6.19
6.62
7.70
9.25
11.03
12.78
14.24
15.19
15.38
14.42
11.81
7.06
-0.14
-9.74
-21.18
-33.46
-45.26
-55.12
-61.76
-64.30
-62.51
-56.87
-48.55
-39.05
-29.67
-20.96
-12.52
-3.10
8.71
23.74
41.63
60.73
78.69
93.18
102.76
107.28
107.69
105.51
102.10
98.23
93.93
88.75
82.09
73.51
62.89
50.46
36.66
22.11
7.39
-6.98
-20.60
-33.20
-44.56
-54.38
-62.44
-68.70
-73.43
-77.15
-80.41
-83.46
-86.02
-87.35
-86.58
-83.15
-77.13
-69.13
-60.07
-50.69
-41.36
-32.05
-22.48
-12.43
-1.90
8.74
18.84
27.49
33.77
37.00
36.97
34.08
29.22
23.48
17.88
13.16
9.68
7.51
6.57
6.74
7.86
9.72
12.00
14.31
16.30
17.77
18.73
19.39
20.02
20.75
21.59
22.33
22.73
22.61
21.96
20.84
19.39
17.66
15.60
13.16
10.35
7.28
4.12
1.04
-1.92
-4.73
-7.29
-9.38
-10.70
-10.93
-9.98
-8.04
-5.56
-3.17
-1.53
-1.23
-2.65
-5.95
-11.05
-17.73
-25.69
-34.72
-44.77
-55.79
-67.60
-79.56
-90.39
-98.36
-101.52
-98.30
-87.90
-70.65
-47.86
-21.65
5.61
31.86
55.59
75.89
92.24
104.23
111.30
112.93
108.75
98.89
84.09
65.71
45.57
25.72
8.18
-5.29
-13.44
-15.79
-12.74
-5.53
4.15
14.60
24.50
33.05
39.86
44.68
47.26
47.35
44.86
40.07
33.69
26.67
19.94
14.19
9.67
6.28
3.76
1.82
0.26
-1.07
-2.30
-3.59
-5.17
-7.35
-10.38
-14.43
-19.46
-25.11
-30.90
-36.30
-40.99
-45.00
-48.71
-52.65
-57.35
-62.98
-69.28
-75.43
-80.22
-82.30
-80.56
-74.39
-63.93
-50.01
-33.98
-17.35
-1.57
12.29
23.62
32.23
38.34
42.34
44.62
45.56
45.43
44.55
43.37
42.44
42.18
42.70
43.68
44.51
44.52
43.31
40.92
37.73
34.22
30.64
26.92
22.69
17.55
11.28
4.03
-3.73
-11.41
-18.51
-24.86
-30.65
-36.30
-42.37
-49.32
-57.28
-65.98
-74.62
-81.94
-86.37
-86.47
-81.25
-70.58
-55.32
-37.05
-17.77
0.60
16.65
29.57
39.19
45.71
49.48
50.90
50.39
48.45
45.67
42.77
40.36
38.80
38.11
37.98
37.95
37.66
36.93
35.77
34.31
32.61
30.54
27.83
24.09
19.07
12.70
5.20
-2.90
-10.89
-18.13
-24.26
-29.39
-34.11
-39.22
-45.52
-53.36
-62.46
-71.81
-79.86
-84.79
-84.94
-79.19
-67.39
-50.46
-30.16
-8.82
11.35
28.70
42.43
52.54
59.45
63.62
65.40
64.99
62.61
58.75
54.21
49.86
46.45
44.32
43.36
43.17
43.19
42.93
42.03
40.33
37.77
34.36
30.14
25.16
19.54
13.40
6.92
0.23
-6.50
-13.20
-19.83
-26.30
-32.58
-38.48
-43.87
-48.60
-52.68
-56.34
-60.11
-64.61
-70.29
-77.05
-83.99
-89.36
-90.95
-86.79
-75.90
-58.78
-37.35
-14.34
7.50
26.20
40.85
51.49
58.65
62.98
64.96
64.94
63.36
60.77
57.86
55.33
53.59
52.74
52.59
52.77
52.95
52.90
52.46
51.55
50.05
47.78
44.63
40.60
35.76
30.28
24.33
17.97
11.13
3.80
-4.00
-12.10
-20.14
-27.74
-34.60
-40.53
-45.62
-50.19
-54.75
-59.87
-65.97
-72.98
-80.18
-86.15
-89.00
-86.90
-78.67
-64.29
-45.02
-23.11
-1.15
18.61
34.88
47.29
56.26
62.51
66.66
69.11
70.07
69.78
68.54
66.77
64.87
63.11
61.66
60.58
59.88
59.45
59.12
58.54
57.26
54.91
51.28
46.44
40.65
34.32
27.80
21.44
15.47
10.06
5.28
1.07
-2.71
-6.25
-9.65
-13.03
-16.50
-20.24
-24.53
-29.75
-36.35
-44.64
-54.64
-65.90
-77.37
-87.47
-94.36
-96.35
-92.45
-82.80
-68.60
-51.83
-34.68
-18.95
-5.78
4.48
12.04
17.41
21.10
23.54
25.00
25.65
25.75
25.57
25.55
26.06
27.37
29.45
32.07
34.77
37.12
38.76
39.46
39.12
37.70
35.25
31.95
28.07
23.89
19.58
15.15
10.44
5.30
-0.26
-6.04
-11.68
-16.85
-21.37
-25.37
-29.23
-33.45
-38.49
-44.61
-51.72
-59.29
-66.30
-71.31
-72.74
-69.22
-60.11
-45.82
-27.77
-8.14
10.82
27.28
40.29
49.67
55.85
59.46
60.97
60.71
58.83
55.60
51.33
46.56
41.86
37.75
34.52
32.22
30.65
29.46
28.34
26.97
25.12
22.60
19.26
15.01
9.89
4.14
-1.85
-7.63
-12.83
-17.30
-21.20
-24.86
-28.66
-32.92
-37.65
-42.65
-47.59
-52.17
-56.31
-60.26
-64.50
-69.60
-75.87
-83.06
-90.19
-95.66
-97.63
-94.61
-85.99
-72.33
-55.24
-36.88
-19.40
-4.36
7.45
15.91
21.33
24.14
24.78
23.69
21.36
18.38
15.40
12.99
11.54
11.15
11.73
13.01
14.75
16.81
19.15
21.74
24.41
26.85
28.57
29.12
28.23
26.02
22.89
19.47
16.23
13.40
10.79
7.97
4.46
0.03
-5.16
-10.64
-15.77
-20.07
-23.40
-26.11
-28.90
-32.68
-38.15
-45.47
-54.02
-62.29
-68.08
-69.10
-63.59
-51.05
-32.45
-10.07
13.10
34.10
50.74
61.99
67.86
69.18
67.11
62.79
57.20
51.13
45.23
40.05
35.99
33.23
31.70
31.04
30.78
30.45
29.73
28.35
26.10
22.64
17.57
10.51
1.28
-9.85
-22.14
-34.48
-45.74
-55.12
-62.43
-68.05
-72.69
-77.02
-81.33
-85.43
-88.82
-91.09
-92.11
-92.19
-91.87
-91.63
-91.77
-92.26
-92.82
-92.84
-91.37
-86.97
-77.93
-62.62
-40.13
-10.95
22.90
58.20
91.44
119.82
141.82
157.27
166.99
172.02
173.19
170.95
165.60
157.58
147.69
137.08
126.88
117.94
110.51
104.18
98.14
91.52
83.73
74.67
64.65
54.13
43.51
32.90
22.13
10.98
-0.65
-12.57
-24.31
-35.34
-45.19
-53.55
-60.43
-66.05
-70.76
-75.00
-79.19
-83.69
-88.69
-94.07
-99.21
-103.01
-104.00
-100.70
-92.11
-78.12
-59.63
-38.46
-16.85
3.11
19.92
32.91
42.06
47.82
50.72
51.31
50.04
47.46
44.20
40.96
38.35
36.79
36.35
36.75
37.51
38.16
38.39
38.11
37.37
36.22
34.51
31.93
28.03
22.55
15.51
7.35
-1.13
-9.12
-16.00
-21.54
-25.97
-29.81
-33.78
-38.53
-44.52
-51.67
-59.27
-65.92
-69.82
-69.21
-62.97
-51.06
-34.65
-15.73
3.44
20.93
35.59
46.99
55.20
60.53
63.16
63.18
60.64
55.81
49.20
41.71
34.34
27.99
23.25
20.20
18.49
17.56
16.84
15.96
14.76
13.22
11.28
8.79
5.52
1.25
-4.06
-10.28
-17.05
-23.94
-30.53
-36.48
-41.68
-46.19
-50.35
-54.59
-59.40
-65.00
-71.24
-77.36
-82.13
-83.98
-81.46
-73.69
-60.65
-43.32
-23.45
-3.22
15.39
30.92
42.68
50.67
55.33
57.29
57.09
55.18
52.02
48.16
44.22
40.88
38.54
37.23
36.59
36.06
35.16
33.67
31.63
29.29
26.86
24.40
21.79
18.82
15.24
10.92
5.84
0.10
-6.05
-12.19
-17.88
-22.75
-26.71
-30.00
-33.16
-36.87
-41.67
-47.79
-54.85
-61.94
-67.66
-70.32
-68.43
-61.01
-48.01
-30.44
-10.16
10.67
30.02
46.51
59.54
69.07
75.43
78.97
80.02
78.84
75.78
71.29
65.97
60.46
55.32
50.89
47.22
44.14
41.28
38.27
34.87
31.01
26.76
22.19
17.27
11.82
5.57
-1.63
-9.67
-18.12
-26.31
-33.55
-39.46
-44.03
-47.64
-50.93
-54.47
-58.72
-63.86
-69.73
-75.68
-80.69
-83.44
-82.61
-77.39
-67.76
-54.67
-39.65
-24.49
-10.58
1.30
10.93
18.47
24.12
28.02
30.22
30.90
30.40
29.27
28.15
27.51
27.54
28.09
28.79
29.22
29.05
28.22
26.79
24.89
22.65
20.02
16.88
13.07
8.52
3.22
-2.68
-8.95
-15.31
-21.46
-27.11
-32.08
-36.37
-40.20
-44.10
-48.68
-54.49
-61.55
-69.19
-76.03
-80.25
-80.22
-74.92
-64.46
-49.90
-33.02
-15.78
0.24
14.08
25.40
34.34
41.15
46.04
49.07
50.26
49.68
47.67
44.80
41.79
39.26
37.53
36.59
36.17
35.86
35.32
34.32
32.79
30.70
28.07
24.83
20.96
16.36
10.97
4.82
-1.94
-9.02
-16.08
-22.77
-28.95
-34.65
-40.14
-45.80
-52.11
-59.41
-67.81
-77.00
-86.07
-93.58
-97.79
-97.11
-90.65
-78.52
-61.91
-42.77
-23.29
-5.31
9.95
22.07
31.17
37.67
42.04
44.59
45.53
45.05
43.42
41.11
38.68
36.74
35.72
35.82
36.95
38.78
40.80
42.49
43.45
43.47
42.58
41.15
39.67
38.71
38.65
39.47
40.79
41.93
42.26
41.40
39.39
36.61
33.51
30.41
27.29
23.80
19.39
13.56
6.16
-2.41
-11.11
-18.32
-22.35
-21.81
-16.16
-5.91
7.54
22.21
36.16
47.71
55.83
60.01
60.31
57.19
51.27
43.29
33.94
23.96
14.13
5.31
-1.59
-5.85
-7.08
-5.45
-1.51
3.89
9.81
15.36
19.66
21.95
21.81
19.25
14.90
10.00
5.94
3.90
4.34
6.79
10.00
12.34
12.27
8.87
1.95
-7.94
-19.75
-32.29
-44.50
-55.50
-64.79
-72.08
-77.28
-80.34
-81.21
-79.76
-75.81
-69.28
-60.32
-49.45
-37.65
-26.11
-15.96
-8.04
-2.64
0.52
2.03
2.48
2.28
1.50
0.04
-2.23
-5.20
-8.52
-11.67
-14.19
-15.81
-16.54
-16.65
-16.36
-15.88
-15.22
-14.38
-13.43
-12.54
-11.92
-11.68
-11.87
-12.32
-12.93
-13.66
-14.58
-15.89
-17.68
-19.88
-22.22
-24.38
-26.12
-27.43
-28.49
-29.69
-31.40
-33.85
-36.94
-40.16
-42.64
-43.30
-41.07
-35.31
-26.04
-14.07
-0.81
12.06
23.07
31.36
36.76
39.61
40.48
39.84
37.88
34.65
30.23
24.98
19.54
14.71
11.08
8.80
7.51
6.51
5.08
2.83
-0.21
-3.71
-7.21
-10.39
-13.12
-15.33
-17.03
-18.18
-18.84
-19.24
-19.83
-21.07
-23.28
-26.42
-30.08
-33.71
-36.90
-39.55
-41.91
-44.38
-47.22
-50.37
-53.38
-55.46
-55.67
-53.18
-47.44
-38.44
-26.75
-13.44
0.17
12.82
23.67
32.31
38.74
43.12
45.57
46.06
44.59
41.34
36.83
31.90
27.50
24.35
22.79
22.66
23.44
24.52
25.33
25.55
25.06
23.88
22.09
19.78
16.95
13.59
9.65
5.15
0.18
-4.97
-9.98
-14.48
-18.24
-21.24
-23.68
-25.88
-28.20
-30.94
-34.26
-38.12
-42.12
-45.48
-47.08
-45.68
-40.30
-30.59
-17.08
-1.07
15.72
31.58
45.21
55.78
62.97
66.79
67.44
65.33
61.08
55.46
49.43
43.91
39.69
37.12
36.14
36.35
37.17
38.04
38.58
38.61
38.17
37.28
35.88
33.74
30.55
26.10
20.39
13.72
6.62
-0.34
-6.75
-12.53
-17.88
-23.21
-28.87
-34.99
-41.36
-47.52
-52.72
-56.12
-56.87
-54.28
-48.09
-38.53
-26.40
-12.97
0.30
12.08
21.45
27.94
31.58
32.56
31.23
27.88
22.91
16.85
10.49
4.73
0.41
-1.94
-2.26
-0.88
1.55
4.33
6.83
8.55
9.11
8.28
5.99
2.42
-2.12
-7.22
-12.53
-17.89
-23.35
-29.06
-35.22
-41.88
-48.96
-56.10
-62.66
-67.73
-70.24
-69.21
-64.05
-54.83
-42.40
-28.21
-13.92
-1.04
9.46
17.28
22.62
25.97
27.73
28.14
27.29
25.24
22.22
18.69
15.33
12.73
11.24
10.80
11.02
11.33
11.25
10.43
8.73
6.14
2.72
-1.43
-6.19
-11.40
-16.88
-22.49
-28.18
-34.09
-40.45
-47.41
-54.91
-62.42
-68.90
-72.94
-73.09
-68.31
-58.37
-44.06
-26.94
-9.01
7.80
22.09
33.15
40.84
45.45
47.40
47.16
45.18
41.93
37.93
33.77
29.95
26.80
24.39
22.59
21.11
19.70
18.12
16.26
14.01
11.25
7.82
3.59
-1.47
-7.22
-13.39
-19.65
-25.81
-31.86
-38.11
-44.96
-52.73
-61.30
-69.82
-76.77
-80.24
-78.51
-70.67
-57.09
-39.29
-19.56
-0.29
16.69
30.38
40.55
47.53
51.79
53.77
53.88
52.52
50.22
47.63
45.36
43.83
43.19
43.21
43.45
43.43
42.74
41.20
38.83
35.74
31.99
27.49
21.97
15.10
6.69
-3.21
-14.15
-25.36
-35.97
-45.29
-53.10
-59.69
-65.69
-71.86
-78.71
-86.31
-94.16
-101.26
-106.22
-107.48
-103.59
-93.65
-77.67
-56.84
-33.33
-9.79
11.35
28.49
41.18
49.87
55.51
59.06
61.19
62.26
62.52
62.23
61.69
61.22
61.01
61.03
61.10
60.99
60.54
59.74
58.62
57.19
55.35
52.84
49.43
44.96
39.51
33.34
26.79
20.19
13.73
7.40
1.07
-5.47
-12.35
-19.53
-26.77
-33.81
-40.44
-46.76
-53.20
-60.42
-68.90
-78.65
-88.80
-97.61
-102.83
-102.32
-94.75
-80.14
-59.99
-36.80
-13.46
7.57
24.77
37.71
46.81
52.85
56.57
58.44
58.72
57.65
55.64
53.26
51.15
49.82
49.43
49.75
50.31
50.53
50.02
48.63
46.44
43.67
40.51
36.98
33.05
28.55
23.37
17.52
11.16
4.60
-1.80
-7.69
-12.91
-17.48
-21.68
-25.96
-30.86
-36.83
-44.08
-52.39
-61.00
-68.50
-73.09
-72.98
-66.91
-54.69
-37.41
-17.20
3.29
21.64
36.27
46.63
53.14
56.69
58.25
58.47
57.72
56.16
54.00
51.63
49.54
48.18
47.80
48.32
49.31
50.21
50.49
49.80
48.09
45.48
42.17
38.38
34.21
29.65
24.61
19.00
12.74
5.87
-1.51
-9.13
-16.70
-23.90
-30.53
-36.52
-42.05
-47.55
-53.54
-60.52
-68.68
-77.64
-86.34
-93.03
-95.66
-92.39
-82.28
-65.64
-44.17
-20.48
2.59
22.79
38.91
50.86
59.32
65.10
68.78
70.49
70.16
67.78
63.68
58.56
53.20
48.30
44.21
40.97
38.48
36.60
35.26
34.33
33.60
32.58
30.73
27.63
23.18
17.69
11.66
5.64
-0.06
-5.44
-10.72
-16.11
-21.70
-27.37
-32.85
-37.96
-42.63
-46.98
-51.33
-56.10
-61.73
-68.49
-76.25
-84.23
-90.98
-94.55
-93.00
-85.07
-70.80
-51.66
-30.16
-9.06
9.45
24.26
35.30
43.07
48.18
50.91
51.37
49.77
46.61
42.85
39.55
37.62
37.55
39.28
42.45
46.53
51.04
55.55
59.69
63.09
65.37
66.23
65.49
63.16
59.37
54.42
48.62
42.30
35.73
29.12
22.59
16.25
10.26
4.74
-0.17
-4.48
-8.38
-12.25
-16.56
-21.62
-27.33
-33.03
-37.52
-39.35
-37.28
-30.64
-19.63
-5.36
10.44
25.75
38.72
48.07
53.18
54.08
51.24
45.35
37.28
28.03
18.78
10.83
5.40
3.22
4.37
8.18
13.53
19.22
24.38
28.64
31.95
34.45
36.25
37.37
37.91
38.06
38.13
38.32
38.54
38.26
36.84
33.89
29.65
24.95
20.74
17.52
14.93
11.86
6.99
-0.43
-10.12
-20.96
-31.43
-40.22
-46.47
-49.80
-49.99
-47.00
-41.08
-32.93
-23.79
-15.10
-8.04
-3.21
-0.60
0.16
-0.49
-2.25
-4.88
-8.11
-11.50
-14.67
-17.45
-20.01
-22.77
-26.05
-29.86
-33.79
-37.14
-39.24
-39.66
-38.35
-35.49
-31.38
-26.38
-20.85
-15.22
-9.99
-5.64
-2.54
-0.88
-0.58
-1.41
-2.99
-4.90
-6.79
-8.39
-9.54
-10.17
-10.28
-9.94
-9.22
-8.23
-7.09
-5.91
-4.74
-3.56
-2.29
-0.91
0.45
1.46
1.73
0.95
-0.88
-3.43
-6.12
-8.37
-9.86
-10.67
-11.18
-11.89
-13.00
-14.36
-15.44
-15.54
-14.22
-11.51
-8.09
-5.00
-3.31
-3.66
-6.04
-9.72
-13.55
-16.39
-17.50
-16.96
-15.80
-15.80
-19.10
-27.28
-40.69
-58.05
-76.68
-93.28
-104.80
-109.23
-105.89
-95.18
-78.28
-56.73
-32.38
-7.22
16.75
37.83
54.67
66.20
71.44
69.54
60.18
44.39
25.06
6.67
-6.04
-9.85
-4.49
7.18
20.45
30.78
35.50
34.53
29.72
23.50
17.65
12.78
8.58
4.56
0.56
-3.07
-5.79
-7.45
-8.46
-9.72
-12.14
-16.16
-21.38
-26.81
-31.19
-33.51
-33.45
-31.32
-27.79
-23.54
-18.90
-13.85
-8.21
-1.95
4.73
11.30
17.17
21.89
25.27
27.38
28.48
28.88
28.78
28.36
27.72
27.00
26.29
25.65
25.05
24.41
23.65
22.66
21.46
20.10
18.77
17.62
16.71
15.98
15.26
14.35
13.02
11.14
8.56
5.21
1.08
-3.77
-9.17
-14.89
-20.72
-26.56
-32.35
-38.08
-43.64
-48.85
-53.43
-57.01
-59.22
-59.67
-58.05
-54.24
-48.39
-41.01
-32.85
-24.73
-17.26
-10.73
-5.19
-0.52
3.36
6.48
8.84
10.58
11.96
13.31
14.91
16.86
19.12
21.50
23.75
25.61
26.88
27.36
26.95
25.66
23.62
21.08
18.32
15.59
13.06
10.86
9.05
7.57
6.23
4.72
2.76
0.15
-3.03
-6.37
-9.26
-10.96
-10.93
-8.84
-4.76
0.85
7.27
13.64
19.19
23.35
25.84
26.63
25.89
23.77
20.48
16.30
11.61
6.88
2.59
-0.95
-3.67
-5.72
-7.47
-9.20
-11.04
-12.89
-14.46
-15.51
-15.91
-15.79
-15.51
-15.50
-16.04
-17.06
-18.23
-19.05
-19.24
-18.95
-18.77
-19.44
-21.49
-24.86
-28.79
-32.05
-33.31
-31.67
-26.93
-19.62
-10.93
-2.31
4.81
9.36
10.83
9.39
5.74
0.89
-4.15
-8.72
-12.58
-15.78
-18.46
-20.67
-22.22
-22.92
-22.67
-21.56
-19.80
-17.59
-15.00
-12.04
-8.80
-5.64
-3.13
-1.91
-2.43
-4.75
-8.52
-13.14
-17.93
-22.35
-26.11
-29.22
-32.04
-35.09
-38.91
-43.82
-49.68
-55.79
-61.04
-64.21
-64.42
-61.45
-56.00
-49.44
-43.34
-38.90
-36.45
-35.32
-34.20
-31.74
-27.28
-21.18
-14.71
-9.45
-6.55
-6.17
-7.38
-8.65
-8.41
-5.81
-1.04
4.69
9.29
10.20
4.92
-8.26
-29.20
-55.12
-80.59
-98.53
-102.57
-89.65
-61.82
-26.04
8.05
31.51
39.12
30.69
10.34
-15.67
-41.16
-61.43
-73.59
-76.09
-68.45
-51.25
-26.52
2.19
30.37
53.67
69.34
76.91
78.10
75.73
72.41
69.50
66.97
63.84
59.17
52.75
45.34
38.26
32.81
29.73
28.90
29.46
30.20
29.88
27.62
23.01
16.21
7.86
-1.18
-10.08
-18.32
-25.87
-33.08
-40.48
-48.49
-57.26
-66.65
-76.26
-85.63
-94.35
-102.14
-108.99
-115.22
-121.40
-128.20
-136.08
-144.88
-153.63
-160.58
-163.64
-160.94
-151.43
-135.18
-113.37
-87.96
-61.10
-34.72
-10.20
11.67
30.56
46.43
59.34
69.39
76.76
81.81
85.04
87.12
88.66
90.20
91.94
93.86
95.74
97.40
98.70
99.57
99.93
99.59
98.26
95.66
91.68
86.55
80.83
75.17
70.14
65.82
61.84
57.47
52.06
45.33
37.54
29.38
21.67
14.95
9.29
4.30
-0.74
-6.62
-13.97
-23.09
-33.71
-44.81
-54.62
-60.89
-61.39
-54.71
-40.80
-21.13
1.73
24.88
45.97
63.64
77.60
88.20
95.95
101.02
103.37
102.84
99.61
94.32
88.03
81.88
76.75
72.99
70.44
68.65
67.13
65.57
63.91
62.22
60.49
58.53
55.90
52.04
46.45
38.87
29.36
18.38
6.68
-4.91
-15.62
-25.00
-32.93
-39.72
-45.99
-52.50
-59.89
-68.43
-77.84
-87.02
-94.27
-97.54
-95.03
-85.78
-70.07
-49.42
-26.18
-2.83
18.66
37.16
52.29
64.19
73.05
79.00
82.19
82.88
81.66
79.47
77.25
75.79
75.39
75.84
76.58
77.00
76.68
75.52
73.71
71.49
68.91
65.75
61.46
55.48
47.51
37.69
26.65
15.29
4.46
-5.34
-14.05
-22.06
-29.98
-38.44
-47.90
-58.49
-69.88
-81.15
-90.77
-96.86
-97.60
-91.72
-79.00
-60.48
-38.16
-14.55
7.95
27.58
43.41
55.22
63.27
67.94
69.63
68.77
65.99
62.17
58.36
55.56
54.34
54.68
55.97
57.33
57.94
57.36
55.57
52.83
49.45
45.56
41.06
35.68
29.16
21.30
12.12
1.83
-9.14
-20.19
-30.69
-40.13
-48.26
-55.16
-61.26
-67.26
-73.89
-81.67
-90.61
-99.95
-108.16
-113.11
-112.66
-105.28
-90.66
-69.86
-45.16
-19.38
4.84
25.65
42.19
54.43
62.87
68.09
70.68
71.09
69.82
67.46
64.78
62.50
61.19
61.04
61.83
63.06
64.09
64.41
63.73
62.02
59.35
55.84
51.58
46.55
40.79
34.32
27.24
19.61
11.50
3.00
-5.70
-14.32
-22.53
-30.09
-36.95
-43.39
-49.85
-56.96
-65.15
-74.57
-84.77
-94.77
-102.97
-107.50
-106.68
-99.43
-85.75
-66.82
-44.75
-22.04
-1.01
16.80
30.67
40.63
47.15
50.86
52.35
52.14
50.75
48.73
46.72
45.40
45.30
46.70
49.53
53.44
57.94
62.55
66.82
70.39
72.87
73.83
72.84
69.61
64.04
56.36
46.97
36.38
25.13
13.63
2.24
-8.75
-19.13
-28.75
-37.48
-45.32
-52.42
-59.08
-65.80
-73.02
-80.90
-89.01
-96.22
-100.88
-101.21
-95.91
-84.60
-68.01
-47.88
-26.45
-5.96
11.77
25.70
35.53
41.54
44.31
44.48
42.63
39.27
34.94
30.29
26.00
22.67
20.57
19.61
19.38
19.35
19.09
18.43
17.45
16.28
14.98
13.36
10.96
7.26
1.94
-4.94
-12.91
-21.19
-28.96
-35.71
-41.36
-46.27
-51.10
-56.54
-63.08
-70.84
-79.44
-88.04
-95.27
-99.52
-99.20
-93.16
-81.13
-63.88
-43.17
-21.28
-0.52
17.38
31.49
41.68
48.30
51.89
52.92
51.82
49.01
45.09
40.87
37.21
34.83
34.03
34.67
36.25
38.14
39.79
40.89
41.38
41.26
40.51
39.02
36.55
32.90
28.01
22.06
15.53
9.02
3.09
-1.89
-5.93
-9.39
-12.81
-16.79
-21.72
-27.67
-34.32
-40.90
-46.25
-49.02
-48.01
-42.54
-32.77
-19.76
-5.26
8.89
21.21
30.94
38.09
43.18
46.72
49.06
50.16
49.83
48.01
44.90
40.98
36.87
33.14
30.07
27.64
25.65
23.84
22.04
20.16
18.15
15.92
13.33
10.13
6.13
1.14
-4.82
-11.60
-18.87
-26.17
-33.07
-39.24
-44.62
-49.36
-53.86
-58.58
-63.95
-70.24
-77.39
-84.95
-91.92
-96.99
-98.70
-95.88
-88.01
-75.46
-59.36
-41.41
-23.34
-6.56
7.98
19.84
28.95
35.36
39.23
40.85
40.61
39.10
37.06
35.21
34.10
34.03
34.89
36.36
37.96
39.31
40.12
40.39
40.15
39.51
38.46
36.81
34.27
30.58
25.70
19.90
13.72
7.81
2.74
-1.30
-4.56
-7.59
-11.16
-15.97
-22.52
-30.91
-40.74
-51.07
-60.48
-67.34
-70.19
-68.17
-61.26
-50.39
-37.11
-23.19
-10.13
1.07
10.01
16.69
21.27
23.88
24.58
23.48
20.83
17.14
13.09
9.42
6.69
5.14
4.63
4.77
5.09
5.18
4.84
4.00
2.65
0.72
-1.96
-5.62
-10.47
-16.47
-23.31
-30.46
-37.28
-43.29
-48.34
-52.52
-56.17
-59.72
-63.50
-67.77
-72.59
-77.72
-82.44
-85.52
-85.36
-80.34
-69.45
-52.71
-31.38
-7.67
15.87
37.00
54.34
67.38
76.34
81.76
84.21
84.22
82.34
79.22
75.68
72.57
70.53
69.80
70.17
71.12
72.02
72.55
72.57
72.08
70.94
68.69
64.58
57.85
48.13
35.73
21.66
7.34
-5.82
-16.87
-25.51
-32.10
-37.42
-42.46
-48.10
-54.80
-62.47
-70.32
-76.96
-80.75
-80.15
-74.34
-63.49
-48.84
-32.37
-16.28
-2.32
8.58
16.33
21.45
24.66
26.51
27.26
27.02
25.86
24.02
21.92
20.02
18.71
18.17
18.30
18.78
19.24
19.39
19.10
18.43
17.49
16.30
14.73
12.50
9.35
5.16
0.04
-5.68
-11.52
-17.03
-21.89
-26.02
-29.61
-33.01
-36.67
-41.03
-46.30
-52.35
-58.65
-64.27
-68.02
-68.70
-65.39
-57.77
-46.26
-31.98
-16.46
-1.30
12.21
23.28
31.61
37.25
40.50
41.76
41.50
40.22
38.43
36.59
35.07
34.08
33.72
33.90
34.48
35.16
35.59
35.47
34.62
33.00
30.69
27.86
24.59
20.89
16.63
11.70
6.09
-0.02
-6.27
-12.22
-17.51
-21.99
-25.78
-29.25
-32.84
-36.99
-42.05
-48.17
-55.19
-62.52
-69.12
-73.61
-74.59
-71.15
-63.19
-51.61
-38.06
-24.42
-12.33
-2.81
3.80
7.66
9.18
8.87
7.22
4.69
1.72
-1.37
-4.32
-6.98
-9.26
-11.00
-11.97
-11.97
-10.87
-8.82
-6.26
-3.77
-1.89
-0.96
-1.05
-1.99
-3.56
-5.60
-8.13
-11.29
-15.17
-19.76
-24.85
-30.12
-35.13
-39.62
-43.49
-46.96
-50.48
-54.61
-59.83
-66.38
-73.99
-81.85
-88.71
-92.95
-93.05
-87.97
-77.45
-62.22
-43.85
-24.35
-5.66
10.75
24.17
34.47
41.90
46.80
49.46
50.13
49.14
47.08
44.69
42.79
41.98
42.48
44.06
46.13
48.03
49.20
49.41
48.65
47.01
44.56
41.17
36.60
30.69
23.46
15.30
6.87
-1.09
-8.01
-13.73
-18.57
-23.19
-28.36
-34.74
-42.64
-51.84
-61.46
-70.05
-75.74
-76.70
-71.62
-60.22
-43.45
-23.29
-2.30
17.14
33.29
45.37
53.36
57.76
59.15
58.01
54.81
50.07
44.47
38.85
34.04
30.56
28.43
27.25
26.38
25.30
23.85
22.20
20.52
18.83
16.71
13.48
8.49
1.53
-7.06
-16.48
-25.74
-34.13
-41.39
-47.81
-54.04
-60.84
-68.86
-78.34
-88.93
-99.50
-108.22
-112.86
-111.41
-102.71
-86.94
-65.73
-41.64
-17.46
4.63
23.42
38.65
50.61
59.64
65.88
69.30
69.97
68.30
65.10
61.47
58.35
56.26
55.09
54.34
53.34
51.76
49.61
47.17
44.69
41.94
38.26
32.68
24.38
13.04
-0.85
-16.25
-31.87
-46.53
-59.59
-70.92
-80.93
-90.24
-99.53
-109.12
-118.76
-127.40
-133.25
-134.17
-128.21
-114.44
-93.45
-67.39
-39.42
-12.84
9.86
27.54
40.32
49.15
55.08
58.78
60.45
60.06
57.75
54.09
50.06
46.67
44.61
43.81
43.58
42.89
40.90
37.35
32.63
27.51
22.69
18.44
14.46
10.12
4.82
-1.69
-9.16
-16.94
-24.28
-30.63
-35.78
-39.87
-43.37
-46.83
-50.96
-56.43
-63.71
-72.76
-82.70
-91.66
-97.04
-96.25
-87.53
-70.77
-47.59
-20.93
5.98
30.56
51.43
68.41
82.03
92.94
101.51
107.76
111.57
113.01
112.47
110.69
108.45
106.39
104.74
103.32
101.73
99.53
96.45
92.46
87.67
82.17
75.96
68.89
60.78
51.49
41.06
29.67
17.64
5.38
-6.65
-18.03
-28.41
-37.62
-45.75
-53.14
-60.32
-67.92
-76.50
-86.35
-97.26
-108.31
-117.91
-123.94
-124.31
-117.62
-103.67
-83.73
-60.22
-36.04
-13.74
5.00
19.64
30.40
37.91
42.75
45.34
45.99
45.15
43.54
42.06
41.64
42.82
45.65
49.69
54.20
58.56
62.43
65.84
69.02
72.08
74.80
76.59
76.68
74.46
69.83
63.28
55.79
48.42
41.94
36.52
31.75
26.90
21.13
13.88
4.99
-5.19
-15.73
-25.14
-31.56
-33.08
-28.33
-16.96
0.06
20.68
42.21
62.19
78.89
91.52
100.15
105.21
107.22
106.56
103.61
98.81
92.79
86.34
80.17
74.80
70.43
66.98
64.32
62.32
60.99
60.31
60.22
60.29
59.86
58.09
54.25
47.99
39.43
29.11
17.83
6.39
-4.65
-15.02
-24.78
-34.19
-43.67
-53.64
-64.30
-75.45
-86.23
-95.15
-100.35
-100.16
-93.69
-81.23
-64.32
-45.20
-26.26
-9.32
4.61
15.25
22.73
27.30
29.11
28.33
25.32
20.76
15.57
10.79
7.20
5.12
4.38
4.44
4.62
4.42
3.59
2.19
0.48
-1.33
-3.23
-5.54
-8.76
-13.43
-19.79
-27.62
-36.22
-44.48
-51.42
-56.43
-59.64
-61.80
-64.04
-67.46
-72.78
-79.99
-88.23
-95.97
-101.22
-102.09
-97.34
-86.74
-71.22
-52.66
-33.41
-15.70
-1.19
9.36
15.97
19.28
20.28
20.05
19.55
19.53
20.53
22.83
26.49
31.19
36.22
40.57
43.18
43.36
41.07
37.11
32.67
28.94
26.53
25.18
23.97
21.74
17.68
11.63
4.20
-3.62
-10.79
-16.73
-21.44
-25.53
-29.97
-35.77
-43.60
-53.52
-64.84
-76.12
-85.41
-90.69
-90.36
-83.83
-71.63
-55.41
-37.36
-19.70
-4.05
8.79
18.68
25.85
30.42
32.36
31.53
27.94
22.06
14.76
7.17
0.23
-5.56
-10.17
-13.84
-16.78
-18.98
-20.22
-20.29
-19.23
-17.43
-15.49
-14.12
-13.84
-14.92
-17.29
-20.58
-24.24
-27.59
-30.12
-31.56
-32.05
-32.03
-32.13
-32.88
-34.62
-37.44
-41.05
-44.73
-47.20
-46.82
-41.96
-31.66
-16.11
3.21
23.91
43.46
59.88
72.10
79.88
83.38
82.87
78.65
71.19
61.41
50.79
41.06
33.83
30.10
29.93
32.48
36.26
39.70
41.64
41.67
40.22
38.27
36.90
36.76
37.82
39.48
41.02
42.09
43.07
44.98
48.93
55.38
63.69
72.15
78.49
80.59
77.23
68.49
55.78
41.60
29.07
21.19
20.18
26.84
40.25
58.04
77.06
94.25
107.24
114.47
115.06
108.64
95.28
75.76
51.69
25.28
-1.08
-25.50
-46.92
-65.26
-81.05
-95.04
-107.93
-120.04
-131.46
-141.97
-151.30
-159.25
-166.00
-172.04
-178.10
-184.70
-191.75
-198.45
-203.52
-205.76
-204.59
-200.33
-194.22
-187.97
-183.39
-181.69
-183.17
-186.83
-190.45
-191.02
-185.50
-171.70
-148.96
-118.32
-82.21
-43.95
-7.06
25.29
50.67
67.75
76.39
77.71
73.80
67.20
60.34
55.04
52.35
52.57
55.55
60.83
67.74
75.42
82.84
88.95
92.85
94.03
92.44
88.39
82.49
75.44
67.90
60.40
53.19
46.28
39.41
32.25
24.54
16.26
7.62
-0.99
-9.21
-16.77
-23.58
-29.67
-35.18
-40.29
-45.18
-49.78
-53.62
-55.77
-54.96
-50.07
-40.63
-27.07
-10.73
6.56
23.02
37.34
48.89
57.59
63.66
67.36
68.99
68.80
67.12
64.44
61.33
58.45
56.37
55.44
55.67
56.82
58.44
60.06
61.29
61.82
61.43
59.96
57.26
53.29
48.13
42.09
35.54
28.90
22.45
16.32
10.50
4.96
-0.28
-5.15
-9.53
-13.44
-17.07
-20.82
-25.21
-30.67
-37.28
-44.57
-51.52
-56.60
-58.23
-55.17
-47.04
-34.39
-18.67
-1.75
14.50
28.67
39.97
48.19
53.52
56.31
56.94
55.72
52.95
49.02
44.49
40.07
36.56
34.59
34.42
35.81
38.11
40.48
42.24
43.05
42.89
41.98
40.53
38.62
36.14
32.89
28.75
23.79
18.32
12.80
7.67
3.22
-0.50
-3.64
-6.49
-9.36
-12.58
-16.40
-20.98
-26.31
-31.96
-37.10
-40.44
-40.63
-36.64
-28.22
-15.99
-1.36
14.02
28.60
41.37
51.81
59.78
65.28
68.38
69.23
68.13
65.68
62.63
59.73
57.55
56.36
56.17
56.80
58.06
59.87
62.29
65.39
69.15
73.29
77.26
80.34
81.90
81.74
80.25
78.37
77.27
77.79
80.09
83.49
86.72
88.36
87.43
83.66
77.67
70.73
64.45
60.23
58.78
59.62
61.02
60.36
54.75
42.09
22.08
-3.09
-28.90
-49.48
-59.44
-55.83
-39.20
-13.55
15.21
41.42
61.32
73.68
79.12
78.86
73.79
64.21
50.46
33.65
15.84
-0.35
-12.65
-19.98
-22.60
-21.71
-18.69
-14.50
-9.42
-3.44
3.18
9.72
15.02
18.23
19.64
21.06
25.14
33.84
46.93
61.61
73.72
79.85
79.36
74.73
70.09
68.89
72.07
77.71
82.55
83.96
81.30
75.88
69.65
63.77
57.97
50.87
41.09
28.30
13.41
-1.74
-15.24
-25.85
-33.53
-39.13
-43.97
-49.16
-55.13
-61.61
-67.82
-73.01
-76.90
-79.85
-82.60
-85.97
-90.37
-95.63
-101.10
-105.98
-109.67
-112.07
-113.48
-114.50
-115.65
-117.18
-119.01
-120.82
-122.25
-123.10
-123.37
-123.18
-122.69
-121.98
-121.07
-119.99
-118.80
-117.58
-116.46
-115.48
-114.61
-113.72
-112.64
-111.18
-109.21
-106.69
-103.66
-100.31
-96.81
-93.33
-89.93
-86.57
-83.12
-79.47
-75.56
-71.43
-67.24
-63.20
-59.47
-56.25
-53.70
-51.98
-51.25
-51.53
-52.77
-54.77
-57.26
-59.90
-62.34
-64.26
-65.38
-65.44
-64.33
-62.07
-58.80
-54.67
-49.66
-43.52
-35.83
-26.20
-14.67
-1.88
10.92
22.15
30.33
34.52
34.55
31.11
25.48
19.22
13.82
10.52
10.11
12.79
18.04
24.67
30.99
35.21
35.98
32.85
26.49
18.46
10.56
4.22
-0.02
-2.51
-3.99
-5.20
-6.52
-8.17
-10.56
-14.40
-20.39
-28.64
-38.34
-47.85
-55.54
-60.60
-63.50
-65.61
-68.19
-71.62
-75.22
-77.81
-78.50
-77.13
-74.08
-69.53
-63.12
-54.00
-41.64
-26.52
-10.42
4.22
15.24
21.65
23.86
23.22
21.34
19.30
17.53
15.95
14.32
12.49
10.47
8.33
6.05
3.58
1.02
-1.25
-2.57
-2.21
0.20
4.27
8.78
11.96
12.12
8.33
0.76
-9.43
-20.59
-31.30
-40.93
-49.66
-58.28
-67.52
-77.52
-87.59
-96.29
-101.92
-103.11
-99.25
-90.62
-78.30
-63.75
-48.65
-34.59
-22.93
-14.49
-9.24
-6.29
-4.27
-2.16
0.01
0.93
-1.44
-8.76
-21.31
-37.62
-55.05
-70.71
-82.39
-88.87
-89.74
-84.96
-74.68
-59.33
-39.88
-17.99
4.22
24.56
41.25
53.29
60.61
63.81
63.91
61.92
58.61
54.36
49.33
43.65
37.58
31.46
25.68
20.49
15.90
11.67
7.37
2.49
-3.38
-10.38
-18.41
-27.07
-35.86
-44.32
-52.13
-59.09
-65.20
-70.57
-75.46
-80.27
-85.47
-91.32
-97.64
-103.55
-107.56
-107.96
-103.46
-93.62
-79.06
-61.22
-41.92
-22.79
-4.88
11.37
25.93
38.87
50.06
59.19
65.95
70.40
73.04
74.71
76.28
78.34
81.05
84.26
87.73
91.35
95.15
99.11
103.01
106.35
108.53
109.02
107.58
104.30
99.56
93.94
88.02
82.26
76.86
71.66
66.19
59.91
52.39
43.68
34.44
25.88
19.59
17.07
19.47
27.21
39.92
56.51
75.45
95.23
114.60
132.70
148.80
162.25
172.33
178.46
180.48
178.72
173.89
166.71
157.59
146.60
133.83
119.80
105.65
92.86
82.65
75.42
70.54
66.66
62.39
56.84
49.84
41.76
33.15
24.49
16.07
8.03
0.39
-6.93
-14.18
-21.83
-30.32
-39.85
-50.03
-59.79
-67.59
-71.92
-71.76
-66.99
-58.36
-47.31
-35.46
-24.25
-14.68
-7.23
-1.89
1.63
3.76
4.96
5.61
5.95
6.15
6.24
6.35
6.64
7.34
8.69
10.77
13.40
16.13
18.39
19.64
19.65
18.42
16.19
13.26
9.84
6.08
2.08
-2.07
-6.33
-10.67
-15.27
-20.41
-26.32
-33.03
-40.07
-46.50
-51.07
-52.61
-50.35
-44.26
-35.07
-24.00
-12.48
-1.71
7.49
14.65
19.59
22.26
22.77
21.34
18.37
14.32
9.73
5.08
0.78
-2.88
-5.72
-7.70
-8.96
-9.71
-10.25
-10.75
-11.31
-11.92
-12.58
-13.40
-14.52
-16.12
-18.19
-20.51
-22.71
-24.51
-26.01
-27.73
-30.47
-34.90
-41.08
-48.15
-54.54
-58.45
-58.54
-54.42
-46.70
-36.67
-25.72
-15.03
-5.32
2.89
9.16
13.08
14.27
12.63
8.43
2.31
-4.88
-12.20
-18.91
-24.49
-28.68
-31.49
-33.15
-34.10
-34.80
-35.68
-36.99
-38.79
-40.96
-43.26
-45.45
-47.31
-48.69
-49.58
-50.15
-50.79
-52.02
-54.31
-57.85
-62.29
-66.64
-69.47
-69.29
-65.06
-56.55
-44.34
-29.73
-14.23
0.80
14.36
25.89
35.12
41.98
46.52
48.87
49.30
48.18
45.93
43.01
39.86
36.92
34.54
32.91
32.02
31.61
31.28
30.61
29.22
26.93
23.72
19.77
15.36
10.84
6.51
2.55
-1.03
-4.42
-7.94
-11.91
-16.49
-21.51
-26.30
-29.82
-30.93
-28.80
-23.21
-14.64
-4.13
7.08
17.81
27.27
35.03
41.05
45.49
48.65
50.86
52.43
53.64
54.69
55.81
57.16
58.95
61.27
64.03
67.04
70.10
73.14
76.16
79.25
82.25
84.78
86.27
86.21
84.50
81.59
78.43
76.10
75.46
76.82
79.83
83.60
86.99
89.06
89.45
88.73
88.38
90.38
96.44
107.14
121.37
136.31
148.19
153.45
150.06
138.35
121.11
102.73
87.88
80.06
80.58
88.25
99.94
111.65
119.78
122.17
118.45
109.82
98.37
86.24
75.09
65.82
58.62
53.11
48.46
43.52
37.04
27.88
15.51
0.30
-16.44
-32.78
-46.79
-57.06
-63.14
-65.46
-65.08
-63.33
-61.43
-60.30
-60.41
-61.77
-64.00
-66.50
-68.70
-70.23
-70.93
-70.71
-69.37
-66.53
-61.77
-54.94
-46.39
-37.03
-28.11
-20.76
-15.68
-12.80
-11.38
-10.29
-8.50
-5.53
-1.70
1.89
3.82
2.86
-1.51
-8.87
-18.14
-28.03
-37.65
-46.74
-55.69
-65.06
-75.13
-85.69
-95.99
-104.99
-111.75
-115.71
-116.76
-115.23
-111.67
-106.82
-101.48
-96.47
-92.49
-89.87
-88.43
-87.31
-85.26
-81.02
-73.98
-64.54
-54.02
-44.21
-36.59
-31.69
-29.03
-27.54
-26.13
-24.10
-21.20
-17.30
-12.25
-5.88
1.64
9.54
16.53
21.24
22.99
22.10
19.86
17.81
17.06
17.74
19.15
20.25
20.26
18.97
16.73
14.12
11.65
9.53
7.67
5.79
3.60
0.86
-2.54
-6.66
-11.42
-16.64
-21.99
-27.00
-31.12
-33.84
-34.90
-34.35
-32.59
-30.22
-27.89
-26.05
-24.86
-24.08
-23.25
-21.90
-19.73
-16.78
-13.37
-10.01
-7.13
-4.87
-3.07
-1.33
0.70
3.18
5.97
8.71
10.97
12.37
12.67
11.78
9.65
6.35
2.17
-2.37
-6.64
-10.11
-12.66
-14.63
-16.72
-19.57
-23.42
-27.89
-32.10
-35.15
-36.39
-35.77
-33.68
-30.79
-27.80
-25.27
-23.63
-23.20
-24.21
-26.65
-30.30
-34.66
-39.04
-42.72
-45.15
-46.16
-45.97
-45.13
-44.26
-43.85
-44.00
-44.47
-44.84
-44.70
-43.86
-42.46
-40.77
-39.10
-37.69
-36.59
-35.67
-34.61
-32.92
-30.03
-25.47
-19.03
-11.04
-2.30
6.18
13.48
19.04
22.70
24.59
24.91
23.92
21.88
19.25
16.64
14.58
13.35
12.82
12.54
12.09
11.36
10.58
10.12
10.19
10.63
10.99
10.83
9.95
8.46
6.66
4.80
3.01
1.30
-0.34
-1.78
-2.87
-3.55
-3.96
-4.38
-5.05
-6.01
-7.01
-7.75
-8.01
-7.83
-7.54
-7.51
-8.00
-8.95
-10.03
-10.84
-11.04
-10.54
-9.45
-7.92
-6.13
-4.15
-2.03
0.17
2.30
4.15
5.52
6.29
6.51
6.42
6.28
6.32
6.61
7.11
7.63
8.03
8.16
8.02
7.68
7.21
6.68
6.00
5.05
3.69
1.85
-0.44
-3.09
-5.95
-8.86
-11.61
-13.97
-15.71
-16.64
-16.73
-16.08
-14.92
-13.52
-12.14
-10.89
-9.85
-9.07
-8.52
-8.12
-7.78
-7.43
-7.02
-6.59
-6.11
-5.50
-4.63
-3.39
-1.80
-0.05
1.56
2.80
3.60
4.10
4.54
5.07
5.63
6.02
6.04
5.67
5.06
4.50
4.15
4.00
3.86
3.54
2.93
2.13
1.27
0.42
-0.45
-1.48
-2.77
-4.32
-6.00
-7.63
-9.02
-10.08
-10.76
-11.04
-10.88
-10.23
-9.11
-7.56
-5.68
-3.65
-1.53
0.58
2.59
4.39
5.90
7.09
7.98
8.65
9.13
9.43
9.49
9.26
8.74
8.09
7.54
7.35
7.64
8.34
9.26
10.14
10.79
11.16
11.33
11.41
11.44
11.48
11.48
11.46
11.46
11.50
11.61
11.72
11.79
11.82
11.95
12.35
13.21
14.61
16.47
18.61
20.76
22.69
24.20
25.28
25.98
26.58
27.44
28.88
31.01
33.49
35.69
36.83
36.40
34.40
31.37
28.24
25.85
24.74
24.93
25.92
26.93
27.14
25.88
22.93
18.55
13.33
8.14
3.71
0.40
-1.83
-3.31
-4.31
-4.95
-5.11
-4.72
-3.81
-2.70
-1.81
-1.49
-1.86
-2.81
-4.08
-5.37
-6.42
-7.00
-6.90
-5.98
-4.27
-2.03
0.22
1.92
2.66
2.32
1.13
-0.47
-2.12
-3.55
-4.69
-5.61
-6.36
-6.94
-7.31
-7.41
-7.20
-6.57
-5.32
-3.14
0.28
5.10
11.23
18.20
25.35
31.90
37.05
40.21
41.04
39.51
35.99
31.14
25.81
20.77
16.45
12.87
9.76
6.63
3.05
-1.27
-6.45
-12.37
-18.70
-25.08
-31.20
-36.89
-42.23
-47.35
-52.34
-57.12
-61.39
-64.88
-67.44
-69.19
-70.36
-71.18
-71.65
-71.57
-70.64
-68.70
-65.84
-62.35
-58.61
-54.98
-51.66
-48.66
-46.00
-43.68
-41.77
-40.40
-39.63
-39.40
-39.42
-39.30
-38.61
-37.06
-34.68
-31.76
-28.75
-26.05
-23.87
-22.13
-20.53
-18.72
-16.45
-13.72
-10.75
-7.84
-5.13
-2.53
0.32
3.95
8.79
14.97
22.16
29.63
36.36
41.36
43.89
43.68
41.00
36.44
30.74
24.49
18.03
11.42
4.67
-2.13
-8.69
-14.52
-19.06
-21.97
-23.21
-23.11
-22.13
-20.77
-19.36
-18.20
-17.54
-17.64
-18.67
-20.42
-22.34
-23.47
-22.87
-19.83
-14.19
-6.37
2.76
12.19
21.02
28.58
34.48
38.53
40.72
41.19
40.18
38.00
34.99
31.49
27.83
24.28
21.13
18.58
16.76
15.71
15.33
15.46
15.87
16.34
16.67
16.67
16.17
14.97
12.99
10.29
7.15
3.96
1.02
-1.51
-3.74
-5.88
-8.20
-10.72
-13.30
-15.65
-17.46
-18.60
-19.09
-19.13
-18.96
-18.81
-18.85
-19.17
-19.89
-21.05
-22.60
-24.31
-25.72
-26.13
-24.80
-21.18
-15.15
-7.15
1.93
10.94
18.82
24.81
28.65
30.48
30.68
29.71
27.91
25.58
22.91
20.20
17.75
15.90
14.84
14.56
14.84
15.33
15.73
15.86
15.72
15.36
14.79
13.95
12.72
11.02
8.93
6.66
4.50
2.71
1.41
0.53
-0.06
-0.56
-1.09
-1.73
-2.46
-3.29
-4.20
-5.18
-6.28
-7.55
-9.14
-11.23
-13.94
-17.08
-20.11
-22.11
-22.04
-19.21
-13.53
-5.70
3.01
11.23
17.90
22.49
24.98
25.72
25.13
23.52
21.19
18.36
15.29
12.28
9.59
7.51
6.20
5.76
6.11
7.03
8.18
9.18
9.71
9.60
8.89
7.71
6.25
4.59
2.79
0.82
-1.36
-3.73
-6.25
-8.78
-11.20
-13.33
-15.04
-16.20
-16.83
-17.08
-17.27
-17.76
-18.90
-20.88
-23.50
-26.22
-28.16
-28.34
-25.98
-20.82
-13.27
-4.32
4.73
12.65
18.66
22.51
24.36
24.59
23.52
21.33
18.22
14.52
10.71
7.42
5.13
4.09
4.17
4.97
5.98
6.76
7.05
6.83
6.20
5.25
4.06
2.58
0.70
-1.71
-4.65
-8.03
-11.59
-15.01
-18.01
-20.53
-22.67
-24.72
-27.00
-29.74
-32.98
-36.61
-40.29
-43.54
-45.75
-46.32
-44.79
-41.10
-35.64
-29.28
-23.15
-18.33
-15.53
-14.90
-16.10
-18.55
-21.73
-25.41
-29.58
-34.33
-39.51
-44.62
-48.88
-51.48
-51.89
-50.01
-46.05
-40.33
-33.05
-24.29
-14.14
-2.87
8.91
20.40
30.79
39.56
46.57
52.10
56.57
60.43
63.95
67.23
70.27
72.94
74.99
76.09
75.89
74.19
71.21
67.69
64.73
63.40
64.28
67.26
71.57
76.12
79.94
82.34
82.95
81.62
78.21
72.76
65.39
56.46
46.42
35.70
24.69
13.71
3.16
-6.55
-15.01
-22.05
-27.71
-32.30
-36.07
-39.17
-41.65
-43.58
-45.22
-46.98
-49.26
-52.16
-55.41
-58.50
-60.97
-62.63
-63.50
-63.66
-63.15
-61.98
-60.33
-58.56
-57.09
-56.02
-54.78
-52.20
-46.94
-38.19
-26.17
-12.17
2.04
14.80
25.18
32.97
38.41
41.84
43.48
43.52
42.35
40.70
39.54
39.74
41.74
45.31
49.65
53.80
57.01
59.10
60.39
61.52
63.00
64.89
66.58
66.96
64.86
59.44
50.66
39.24
26.48
13.90
2.79
-6.28
-13.58
-20.33
-28.34
-39.23
-53.73
-71.03
-88.78
-103.85
-113.38
-115.91
-111.89
-103.48
-93.62
-85.07
-79.50
-77.31
-77.64
-78.80
-78.98
-76.68
-71.30
-63.08
-52.97
-42.00
-30.92
-20.01
-9.33
0.96
10.36
18.24
24.22
28.48
31.89
35.60
40.56
47.02
54.41
61.55
67.13
70.16
70.29
67.86
63.69
58.79
54.00
49.76
46.11
42.76
39.39
35.85
32.23
28.84
25.99
23.95
22.81
22.55
23.05
24.21
25.98
28.30
31.10
34.19
37.22
39.75
41.38
41.87
41.30
40.03
38.60
37.62
37.56
38.64
40.90
44.18
48.12
52.12
55.33
56.57
54.47
47.87
36.23
20.25
2.01
-15.31
-28.32
-34.63
-33.71
-27.10
-17.71
-8.60
-1.75
2.39
4.59
6.06
7.57
9.14
10.26
10.36
9.29
7.42
5.45
4.01
3.37
3.34
3.42
3.09
2.06
0.27
-2.35
-6.28
-12.50
-22.29
-36.40
-54.37
-74.02
-91.89
-104.36
-109.13
-106.13
-97.65
-87.26
-78.21
-72.25
-69.18
-67.50
-65.49
-62.22
-57.89
-53.50
-50.15
-48.33
-47.71
-47.19
-45.35
-40.90
-33.16
-22.30
-9.43
3.70
15.08
22.99
26.45
25.28
19.92
11.63
2.93
-2.44
-0.53
10.53
28.36
45.88
53.63
44.07
15.88
-24.62
-65.98
-96.74
-110.36
-107.27
-93.08
-74.74
-57.04
-41.34
-27.02
-13.66
-2.40
4.48
4.93
-1.32
-12.51
-25.45
-37.03
-45.44
-50.72
-54.20
-57.66
-62.18
-67.77
-73.52
-78.31
-81.64
-84.08
-87.10
-92.26
-100.44
-111.19
-122.77
-132.82
-139.19
-140.77
-137.89
-131.97
-124.80
-117.72
-111.01
-103.86
-94.95
-83.20
-68.40
-51.25
-32.97
-14.61
3.34
20.97
38.41
55.27
70.33
81.88
88.36
89.07
84.43
75.77
64.59
52.10
38.89
25.10
10.79
-3.70
-17.78
-30.82
-42.53
-53.12
-63.28
-73.76
-84.74
-95.40
-103.94
-108.06
-105.76
-96.07
-79.33
-57.05
-31.26
-4.04
22.74
47.36
68.16
83.62
92.68
95.19
91.99
84.65
74.97
64.40
53.84
43.74
34.45
26.45
20.32
16.55
15.18
15.72
17.16
18.27
17.97
15.60
11.12
5.03
-1.89
-8.90
-15.62
-22.09
-28.79
-36.47
-45.93
-57.73
-71.84
-87.31
-102.19
-113.76
-119.09
-115.94
-103.42
-82.35
-54.96
-24.33
6.50
35.02
59.57
79.31
94.01
103.83
109.20
110.69
108.93
104.55
98.19
90.54
82.32
74.27
66.98
60.72
55.46
50.83
46.50
42.33
38.50
35.47
33.71
33.42
34.37
35.92
37.23
37.46
35.85
31.73
24.59
14.18
0.81
-14.25
-28.74
-39.75
-44.44
-41.07
-29.52
-11.40
10.45
32.92
53.41
70.37
83.27
92.36
98.20
101.39
102.43
