1543325194.00
64.000000
-0.00
-0.00
-0.00
-0.00
-0.00
-0.00
-0.00
-0.00
-0.00
-0.00
0.00
0.01
0.01
-0.00
-0.03
-0.05
-0.05
0.00
0.13
0.36
0.66
1.01
1.37
1.72
2.06
2.40
2.79
3.24
3.80
4.42
5.06
5.66
6.20
6.68
7.15
7.68
8.31
9.14
10.09
11.04
11.88
12.56
13.14
13.76
14.65
15.96
17.91
20.32
22.90
25.38
27.58
29.57
31.68
34.32
37.81
42.54
48.15
54.10
59.83
64.97
69.58
74.14
79.34
85.71
93.76
103.00
112.62
121.73
129.77
136.75
143.30
150.75
157.77
166.64
177.95
191.79
206.97
220.57
228.25
225.36
208.53
176.87
132.76
80.05
23.07
-34.94
-92.44
-149.16
-205.23
-260.37
-313.74
-363.87
-409.83
-450.91
-486.50
-515.74
-537.23
-549.22
-549.96
-538.37
-514.21
-478.67
-433.88
-382.45
-327.02
-269.84
-212.63
-156.66
-102.95
-52.37
-5.90
35.58
71.43
101.35
125.50
144.38
158.69
169.15
176.37
180.75
182.57
182.07
179.51
175.23
169.65
163.18
156.15
148.81
141.30
133.69
126.02
118.33
110.69
103.16
95.80
88.68
81.83
75.25
68.95
62.95
57.25
51.86
46.78
42.03
37.59
33.45
29.61
26.07
22.81
19.83
17.11
14.67
12.48
10.54
8.83
7.35
6.07
4.97
4.05
3.27
2.62
2.09
1.65
1.30
1.01
0.79
0.61
0.47
0.37
0.29
0.23
0.19
0.17
0.15
0.15
0.16
0.18
0.20
0.23
0.26
0.30
0.34
0.39
0.43
0.48
0.53
0.57
0.63
0.68
0.74
0.80
0.87
0.94
1.02
1.12
1.22
1.33
1.45
1.59
1.75
1.92
2.12
2.33
2.56
2.82
3.10
3.41
3.75
4.11
4.50
4.93
5.39
5.89
6.43
7.00
7.62
8.29
9.00
9.76
10.56
11.41
12.29
13.23
14.23
15.28
16.38
17.54
18.72
19.91
21.04
22.03
22.81
23.23
23.19
22.56
21.26
19.21
16.42
12.93
8.81
4.22
-0.63
-5.54
-10.28
-14.66
-18.49
-21.65
-24.06
-25.70
-26.61
-26.87
-26.59
-25.90
-24.92
-23.73
-22.42
-21.02
-19.57
-18.04
-16.45
-14.82
-13.10
-11.22
-9.07
-6.54
-3.50
0.19
4.66
9.88
15.81
22.39
29.58
37.30
45.40
53.73
62.10
70.37
78.09
84.95
90.80
95.65
99.65
103.06
106.18
109.35
112.91
116.66
120.51
124.48
128.69
133.30
138.50
144.35
150.77
157.61
163.94
169.05
172.44
173.90
173.29
170.35
164.23
153.02
138.87
121.81
101.74
78.83
53.66
27.15
0.30
-26.05
-51.38
-75.47
-98.97
-122.35
-145.93
-169.80
-193.66
-216.54
-236.70
-251.72
-259.11
-257.79
-248.15
-232.35
-213.57
-194.86
-178.00
-163.10
-149.19
-135.13
-120.92
-107.34
-95.48
-85.87
-78.10
-71.06
-63.64
-55.42
-46.77
-38.78
-32.34
-27.75
-24.62
-22.27
-20.12
-17.88
-15.56
-13.21
-10.87
-8.62
-6.73
-5.73
-6.28
-8.76
-12.89
-17.70
-21.87
-24.35
-24.92
-24.30
-23.72
-24.20
-25.89
-28.07
-29.58
-29.64
-28.34
-26.52
-25.21
-24.98
-25.59
-26.19
-25.87
-24.22
-21.48
-18.49
-16.14
-15.07
-15.41
-16.74
-18.38
-19.65
-20.11
-19.69
-18.61
-17.19
-15.55
-13.51
-10.59
-6.33
-0.60
6.26
13.48
20.24
26.06
31.04
35.82
41.25
47.97
55.99
64.80
73.39
80.75
86.22
89.66
91.35
91.63
90.70
88.44
84.75
79.59
73.31
66.45
59.57
52.96
46.63
40.50
34.48
28.72
23.44
18.77
14.55
10.35
5.70
0.40
-5.27
-10.63
-14.80
-17.25
-17.99
-17.59
-16.92
-16.66
-17.02
-17.59
-17.74
-16.97
-15.32
-13.32
-11.76
-11.21
-11.75
-12.98
-14.29
-15.29
-15.86
-16.16
-16.35
-16.51
-16.60
-16.70
-16.97
-17.63
-18.66
-19.66
-19.86
-18.55
-15.41
-10.76
-5.51
-0.73
2.78
4.70
5.35
5.42
5.77
7.05
9.43
12.54
15.44
16.99
16.30
13.14
8.10
2.35
-2.81
-6.46
-8.29
-8.56
-7.91
-6.91
-5.87
-4.96
-4.33
-4.18
-4.83
-6.64
-9.80
-14.21
-19.11
-23.23
-25.40
-25.17
-23.16
-20.91
-20.12
-21.84
-26.19
-32.00
-37.61
-41.92
-45.09
-48.24
-52.70
-59.25
-67.84
-78.27
-89.48
-100.18
-109.76
-118.62
-127.66
-137.75
-149.45
-162.95
-179.32
-198.00
-217.10
-234.94
-251.18
-266.36
-281.15
-296.36
-312.66
-332.56
-355.97
-380.33
-402.40
-419.77
-430.29
-431.52
-421.48
-398.73
-365.42
-321.70
-265.78
-196.47
-115.24
-25.23
70.51
169.21
283.28
402.39
504.49
574.26
612.21
626.28
623.97
610.53
588.78
561.48
528.71
493.65
461.78
437.70
421.07
408.81
401.52
393.62
380.64
356.64
319.93
274.00
225.62
178.86
136.23
99.98
70.78
48.14
28.78
10.90
-5.67
-21.91
-40.33
-66.32
-102.97
-150.35
-205.76
-266.53
-329.46
-391.47
-425.69
-418.13
-375.78
-319.54
-267.99
-229.04
-202.63
-184.03
-166.42
-143.18
-113.65
-80.10
-45.15
-11.19
19.49
44.92
64.81
80.45
93.81
103.02
105.38
99.95
88.23
73.50
59.33
49.12
45.21
48.08
54.38
59.96
61.92
59.37
52.37
41.20
26.44
9.50
-7.10
-21.07
-30.15
-32.92
-29.72
-23.01
-16.33
-12.50
-12.36
-14.71
-17.93
-20.72
-22.58
-23.48
-23.32
-21.59
-17.48
-10.69
-1.21
10.17
22.03
33.09
42.59
50.20
55.95
59.91
62.23
63.16
63.12
62.65
62.34
62.55
63.53
65.48
68.56
72.60
76.67
78.85
76.74
68.46
53.81
34.60
14.29
-3.46
-16.11
-23.04
-25.36
-25.00
-23.70
-22.47
-21.56
-20.91
-20.45
-20.34
-20.85
-22.16
-24.21
-26.60
-28.57
-29.34
-28.36
-25.65
-21.97
-18.52
-16.44
-16.33
-17.96
-20.43
-22.72
-24.21
-24.73
-24.73
-24.86
-25.53
-26.60
-27.33
-26.89
-24.82
-21.35
-17.32
-13.79
-11.50
-10.48
-10.19
-9.90
-9.18
-8.15
-7.36
-7.38
-8.43
-10.19
-11.94
-13.00
-12.96
-11.88
-10.20
-8.47
-7.18
-6.72
-7.28
-8.85
-11.19
-13.85
-16.20
-17.60
-17.67
-16.33
-13.83
-10.61
-7.09
-3.58
-0.29
2.55
4.71
5.95
6.23
5.80
5.13
4.77
5.08
6.04
7.23
8.13
8.32
7.72
6.57
5.24
4.07
3.22
2.69
2.40
2.20
1.90
1.31
0.28
-1.06
-2.25
-2.65
-1.65
0.89
4.55
8.44
11.61
13.43
13.85
13.27
12.27
11.32
10.55
9.76
8.53
6.34
2.72
-2.61
-9.52
-17.44
-25.38
-32.29
-37.47
-40.83
-42.92
-44.56
-46.35
-48.38
-50.15
-50.89
-49.87
-46.76
-41.64
-34.97
-27.41
-19.70
-12.46
-6.14
-0.86
3.57
7.58
11.61
15.89
20.30
24.41
27.67
29.63
30.15
29.46
28.11
26.76
25.92
25.79
26.22
26.79
27.07
26.74
25.70
24.08
22.15
20.37
19.23
19.21
20.58
23.23
26.65
30.17
33.16
35.34
36.84
37.99
39.04
39.86
40.03
39.09
36.83
33.55
29.96
26.89
24.89
24.06
24.02
24.16
23.83
22.64
20.42
17.19
13.10
8.32
3.11
-2.11
-6.75
-10.15
-11.77
-11.41
-9.39
-6.47
-3.64
-1.79
-1.39
-2.43
-4.49
-6.94
-9.16
-10.77
-11.58
-11.68
-11.28
-10.62
-10.01
-9.66
-9.73
-10.34
-11.48
-13.06
-14.91
-16.79
-18.46
-19.69
-20.31
-20.20
-19.31
-17.62
-15.18
-12.11
-8.58
-4.79
-0.98
2.61
5.74
8.13
9.56
10.01
9.63
8.79
7.91
7.32
7.11
7.19
7.37
7.45
7.34
6.96
6.27
5.21
3.66
1.56
-1.00
-3.77
-6.32
-8.19
-9.02
-8.65
-7.15
-4.78
-1.91
1.08
3.79
5.86
7.00
7.00
5.95
4.13
1.99
-0.01
-1.61
-2.82
-3.89
-5.11
-6.66
-8.53
-10.56
-12.59
-14.63
-16.83
-19.46
-22.77
-26.80
-31.29
-35.75
-39.48
-41.79
-42.06
-39.87
-35.01
-27.52
-17.77
-6.48
5.37
16.67
26.47
34.25
40.00
44.21
47.64
50.94
54.40
57.83
60.75
62.66
63.37
63.14
62.60
62.44
63.01
64.16
65.23
65.42
64.20
61.63
58.37
55.40
53.57
53.19
53.96
55.21
56.31
56.99
57.39
57.87
58.66
59.65
60.44
60.57
59.80
58.29
56.51
54.97
53.98
53.48
53.07
52.27
50.71
48.25
45.02
41.24
37.01
32.14
26.10
18.36
8.73
-2.37
-13.86
-24.32
-32.46
-37.50
-39.39
-38.72
-36.44
-33.54
-30.91
-29.19
-28.73
-29.64
-31.71
-34.51
-37.42
-39.74
-40.79
-40.15
-37.88
-34.78
-32.22
-31.72
-34.31
-40.02
-47.81
-56.09
-63.46
-69.15
-73.12
-75.60
-76.70
-76.29
-74.36
-71.39
-68.27
-65.97
-64.91
-64.84
-65.28
-65.99
-67.34
-70.03
-74.55
-80.70
-87.74
-94.77
-101.22
-106.86
-111.41
-114.16
-114.14
-110.77
-104.61
-97.42
-91.46
-88.26
-87.82
-88.73
-89.10
-87.75
-84.65
-80.63
-76.39
-71.90
-66.30
-58.65
-48.72
-37.30
-25.95
-16.14
-8.59
-2.98
1.73
6.70
12.66
19.77
27.61
35.55
43.05
49.82
55.95
61.83
67.95
74.71
82.20
90.14
98.13
105.86
113.32
120.84
128.80
137.42
146.56
155.80
164.64
172.77
180.17
187.05
193.69
200.23
206.58
212.50
217.64
221.68
224.32
225.26
224.20
220.93
215.35
207.46
197.25
184.51
168.89
150.05
127.98
103.21
76.68
49.30
21.56
-6.61
-35.58
-65.34
-95.06
-123.04
-147.12
-165.52
-177.28
-182.46
-181.87
-176.62
-167.92
-156.95
-144.93
-133.06
-122.29
-113.17
-105.70
-99.46
-93.83
-88.26
-82.43
-76.33
-70.20
-64.32
-58.91
-53.98
-49.35
-44.73
-39.91
-34.87
-29.90
-25.55
-22.44
-20.96
-21.08
-22.32
-23.85
-24.75
-24.26
-22.02
-18.12
-13.01
-7.33
-1.75
3.14
6.89
9.19
9.94
9.23
7.36
4.75
1.87
-0.85
-3.18
-5.05
-6.63
-8.14
-9.80
-11.71
-13.80
-15.93
-17.97
-19.86
-21.63
-23.28
-24.72
-25.73
-26.02
-25.47
-24.12
-22.25
-20.18
-18.15
-16.34
-14.81
-13.70
-13.14
-13.25
-14.00
-15.18
-16.46
-17.59
-18.47
-19.13
-19.60
-19.77
-19.40
-18.31
-16.51
-14.34
-12.29
-10.81
-10.10
-10.01
-10.21
-10.35
-10.19
-9.65
-8.75
-7.51
-5.96
-4.14
-2.24
-0.52
0.73
1.33
1.32
0.92
0.51
0.52
1.27
2.99
5.77
9.50
13.94
18.66
23.16
26.99
29.84
31.68
32.65
32.94
32.66
31.76
30.19
27.99
25.45
23.08
21.51
21.25
22.52
25.14
28.55
32.01
34.71
36.03
35.68
33.80
30.93
27.81
25.18
23.52
22.93
23.11
23.48
23.36
22.15
19.49
15.45
10.56
5.88
2.73
2.45
5.79
12.66
21.93
31.65
39.61
43.90
43.39
37.97
28.47
16.40
3.69
-7.66
-15.94
-20.04
-19.79
-15.96
-10.10
-4.08
0.45
2.50
1.96
-0.51
-3.80
-6.77
-8.61
-9.03
-8.18
-6.49
-4.42
-2.32
-0.53
0.69
0.93
-0.16
-2.82
-6.94
-12.04
-17.31
-21.80
-24.71
-25.53
-24.22
-21.16
-17.12
-13.07
-9.98
-8.55
-9.11
-11.53
-15.29
-19.61
-23.66
-26.66
-28.10
-27.76
-25.78
-22.53
-18.65
-14.79
-11.56
-9.36
-8.38
-8.59
-9.79
-11.69
-13.95
-16.17
-17.95
-18.96
-19.01
-18.06
-16.30
-14.04
-11.59
-9.16
-6.82
-4.47
-2.05
0.39
2.63
4.35
5.33
5.46
4.85
3.75
2.43
1.11
-0.15
-1.39
-2.76
-4.36
-6.20
-8.16
-9.99
-11.40
-12.15
-12.14
-11.35
-9.91
-7.95
-5.58
-3.01
-0.49
1.59
2.83
2.99
2.11
0.51
-1.35
-3.05
-4.41
-5.47
-6.40
-7.35
-8.33
-9.17
-9.68
-9.77
-9.53
-9.20
-9.08
-9.32
-9.87
-10.55
-11.22
-11.88
-12.68
-13.84
-15.42
-17.21
-18.74
-19.55
-19.33
-18.11
-16.12
-13.65
-10.87
-7.80
-4.39
-0.71
2.99
6.37
9.07
10.92
11.95
12.34
12.33
12.12
11.84
11.57
11.43
11.49
11.80
12.28
12.72
12.78
12.12
10.55
8.12
5.21
2.40
0.30
-0.61
-0.18
1.39
3.61
5.91
7.87
9.35
10.47
11.54
12.82
14.40
16.20
18.04
19.79
21.40
22.82
24.00
24.76
24.86
24.08
22.35
19.82
16.78
13.57
10.46
7.61
5.09
2.92
1.16
-0.12
-0.79
-0.69
0.35
2.44
5.52
9.20
12.80
15.48
16.50
15.60
13.07
9.77
6.75
4.90
4.71
6.20
9.02
12.56
16.06
18.66
19.53
18.02
13.96
7.80
0.43
-6.97
-13.43
-18.38
-21.68
-23.49
-23.98
-23.24
-21.25
-18.05
-13.84
-9.12
-4.51
-0.72
1.67
2.36
1.42
-0.78
-3.65
-6.52
-8.86
-10.28
-10.65
-10.01
-8.55
-6.54
-4.28
-2.11
-0.34
0.73
0.92
0.15
-1.46
-3.63
-5.92
-7.85
-9.05
-9.37
-8.91
-7.91
-6.63
-5.23
-3.70
-2.01
-0.22
1.47
2.76
3.41
3.41
2.97
2.44
2.10
2.08
2.28
2.51
2.62
2.54
2.33
2.05
1.72
1.29
0.69
-0.10
-1.03
-1.99
-2.87
-3.59
-4.05
-4.14
-3.72
-2.63
-0.84
1.54
4.15
6.56
8.45
9.69
10.45
11.04
11.81
12.92
14.35
15.87
17.21
18.05
18.24
17.80
17.03
16.50
16.90
18.81
22.40
27.16
32.01
35.58
36.67
34.65
29.62
22.26
13.47
4.09
-5.34
-14.54
-23.36
-31.65
-39.04
-45.09
-49.26
-51.24
-51.08
-49.33
-46.91
-44.74
-43.32
-42.44
-41.30
-38.96
-34.89
-29.43
-23.72
-19.20
-16.95
-17.19
-19.21
-21.83
-23.82
-24.46
-23.62
-21.65
-19.08
-16.52
-14.62
-14.07
-15.60
-19.69
-26.23
-34.25
-42.05
-47.51
-48.91
-45.48
-37.66
-26.84
-14.74
-2.78
8.23
18.06
26.66
33.95
39.74
43.88
46.45
47.81
48.35
48.29
47.48
45.56
42.22
37.55
32.15
26.94
22.83
20.38
19.69
20.37
21.79
23.21
23.95
23.41
21.16
16.99
11.00
3.71
-4.02
-11.13
-16.68
-20.14
-21.52
-21.28
-20.15
-18.84
-17.81
-17.22
-16.86
-16.25
-14.78
-11.93
-7.54
-1.96
4.07
9.59
13.86
16.60
18.01
18.51
18.41
17.72
16.22
13.74
10.40
6.65
3.08
0.04
-2.51
-5.03
-8.05
-11.92
-16.51
-21.24
-25.25
-27.73
-28.21
-26.75
-23.93
-20.64
-17.90
-16.52
-16.93
-19.17
-22.97
-27.88
-33.42
-39.06
-44.29
-48.59
-51.55
-53.02
-53.16
-52.42
-51.36
-50.41
-49.65
-48.79
-47.32
-44.77
-40.88
-35.70
-29.51
-22.63
-15.28
-7.51
0.72
9.41
18.45
27.54
36.29
44.32
51.34
57.29
62.23
66.32
69.72
72.52
74.84
76.81
78.66
80.61
82.70
84.71
86.15
86.43
85.17
82.35
78.30
73.57
68.64
63.82
59.26
55.07
51.40
48.33
45.85
43.73
41.63
39.29
36.65
33.88
31.22
28.81
26.59
24.39
22.10
19.76
17.59
15.81
14.58
13.87
13.59
13.75
14.50
16.08
18.64
22.03
25.74
29.06
31.34
32.25
31.92
30.79
29.46
28.37
27.65
27.08
26.31
24.93
22.74
19.74
16.11
12.08
7.85
3.55
-0.77
-5.09
-9.44
-13.85
-18.36
-22.98
-27.62
-32.05
-35.94
-38.95
-40.91
-41.83
-41.92
-41.41
-40.40
-38.83
-36.58
-33.60
-30.07
-26.43
-23.30
-21.17
-20.30
-20.64
-21.82
-23.29
-24.54
-25.20
-25.17
-24.67
-24.04
-23.72
-23.98
-24.83
-26.12
-27.57
-29.05
-30.74
-33.02
-36.30
-40.68
-45.79
-50.74
-54.46
-56.06
-55.16
-51.92
-46.86
-40.47
-32.90
-24.00
-13.62
-2.06
9.67
19.87
26.66
28.62
25.40
18.00
8.52
-0.40
-6.41
-8.13
-5.43
0.67
8.54
16.43
22.94
27.18
28.69
27.41
23.61
17.97
11.58
5.68
1.40
-0.74
-0.86
0.29
1.76
2.68
2.52
1.05
-1.74
-5.69
-10.47
-15.52
-20.08
-23.41
-24.95
-24.52
-22.28
-18.64
-14.13
-9.27
-4.59
-0.64
2.07
3.22
2.78
1.13
-1.16
-3.44
-5.26
-6.45
-7.09
-7.30
-7.18
-6.74
-5.92
-4.61
-2.75
-0.31
2.61
5.67
8.22
9.37
8.23
4.18
-2.79
-11.94
-21.92
-31.12
-38.02
-41.62
-41.64
-38.51
-33.18
-26.87
-20.76
-15.66
-12.02
-9.84
-8.81
-8.50
-8.43
-8.19
-7.47
-6.01
-3.69
-0.56
3.14
6.93
10.25
12.62
13.88
14.24
14.22
14.44
15.38
17.23
19.85
22.77
25.38
26.92
26.71
24.25
19.47
12.77
5.10
-2.34
-8.36
-12.16
-13.48
-12.59
-10.14
-7.01
-4.06
-2.07
-1.58
-2.79
-5.49
-9.11
-12.97
-16.49
-19.38
-21.69
-23.68
-25.58
-27.50
-29.34
-31.01
-32.45
-33.73
-34.99
-36.32
-37.73
-39.18
-40.58
-41.90
-43.17
-44.44
-45.80
-47.36
-49.22
-51.45
-54.05
-56.85
-59.56
-61.90
-63.64
-64.65
-64.92
-64.41
-62.95
-60.27
-55.95
-49.63
-41.06
-30.19
-17.16
-2.30
13.93
30.92
47.95
64.20
78.90
91.36
101.10
107.79
111.27
111.58
109.01
104.15
97.90
91.30
85.38
80.91
78.35
77.75
78.91
81.37
84.47
87.33
89.03
88.77
86.10
81.17
74.57
67.22
59.93
53.21
47.15
41.61
36.33
31.04
25.54
19.60
13.12
6.13
-0.97
-7.50
-12.66
-15.86
-17.02
-16.62
-15.52
-14.62
-14.51
-15.35
-16.91
-18.74
-20.46
-21.82
-22.80
-23.51
-24.10
-24.68
-25.20
-25.54
-25.53
-25.07
-24.18
-22.96
-21.60
-20.25
-19.00
-17.87
-16.87
-15.98
-15.21
-14.59
-14.16
-13.92
-13.81
-13.70
-13.45
-12.95
-12.16
-11.15
-10.11
-9.28
-8.82
-8.80
-9.07
-9.44
-9.62
-9.42
-8.74
-7.65
-6.31
-4.94
-3.72
-2.74
-2.02
-1.54
-1.26
-1.23
-1.48
-2.03
-2.83
-3.71
-4.51
-5.04
-5.21
-5.00
-4.48
-3.75
-3.00
-2.37
-2.02
-1.96
-2.10
-2.24
-2.17
-1.75
-1.01
-0.16
0.55
0.98
1.09
1.02
0.98
1.17
1.74
2.65
3.75
4.71
5.15
4.78
3.52
1.62
-0.41
-2.05
-3.02
-3.37
-3.36
-3.30
-3.31
-3.34
-3.36
-3.44
-3.86
-4.88
-6.52
-8.44
-10.06
-10.89
-10.82
-10.17
-9.55
-9.45
-9.98
-10.84
-11.50
-11.53
-10.83
-9.63
-8.36
-7.43
-7.00
-6.99
-7.20
-7.45
-7.70
-7.97
-8.31
-8.65
-8.84
-8.74
-8.33
-7.79
-7.38
-7.34
-7.71
-8.32
-8.87
-9.09
-8.87
-8.30
-7.53
-6.75
-5.99
-5.21
-4.34
-3.35
-2.23
-0.97
0.46
2.09
3.86
5.58
6.95
7.68
7.61
6.85
5.67
4.47
3.57
3.15
3.19
3.54
4.00
4.34
4.39
4.11
3.59
3.05
2.74
2.77
3.06
3.34
3.30
2.78
1.89
0.95
0.35
0.30
0.77
1.50
2.17
2.58
2.66
2.51
2.26
1.98
1.73
1.50
1.31
1.19
1.17
1.27
1.49
1.81
2.23
2.75
3.34
3.93
4.43
4.75
4.78
4.50
3.89
3.02
2.06
1.20
0.68
0.69
1.26
2.30
3.53
4.65
5.40
5.69
5.56
5.17
4.69
4.21
3.76
3.29
2.79
2.32
1.99
1.91
2.12
2.56
3.06
3.49
3.76
3.89
3.94
3.97
3.95
3.81
3.48
2.94
2.29
1.69
1.33
1.28
1.53
1.93
2.30
2.49
2.39
1.96
1.24
0.30
-0.75
-1.76
-2.58
-3.11
-3.27
-3.13
-2.79
-2.48
-2.37
-2.53
-2.95
-3.49
-3.96
-4.27
-4.45
-4.62
-4.93
-5.44
-6.07
-6.60
-6.76
-6.34
-5.33
-3.89
-2.34
-1.05
-0.33
-0.33
-0.96
-1.98
-3.05
-3.84
-4.17
-4.03
-3.54
-2.90
-2.33
-1.93
-1.77
-1.81
-1.97
-2.11
-2.09
-1.83
-1.38
-0.92
-0.67
-0.79
-1.27
-1.88
-2.35
-2.43
-2.06
-1.38
-0.64
-0.10
0.15
0.16
0.10
0.15
0.43
0.93
1.57
2.22
2.76
3.10
3.25
3.29
3.32
3.51
3.95
4.69
5.69
6.77
7.68
8.15
7.98
7.10
5.60
3.76
1.95
0.59
0.01
0.37
1.71
3.94
6.91
10.45
14.33
18.24
21.76
24.46
26.01
26.31
25.54
24.06
22.27
20.44
18.60
16.63
14.35
11.71
8.82
5.93
3.33
1.22
-0.33
-1.39
-2.13
-2.76
-3.37
-3.94
-4.31
-4.25
-3.57
-2.32
-0.77
0.60
1.29
0.94
-0.57
-3.12
-6.44
-10.21
-14.14
-17.98
-21.50
-24.53
-26.99
-28.87
-30.30
-31.44
-32.39
-33.18
-33.71
-33.86
-33.50
-32.61
-31.26
-29.56
-27.65
-25.60
-23.44
-21.17
-18.83
-16.45
-14.11
-11.87
-9.69
-7.50
-5.18
-2.60
0.22
3.16
6.02
8.58
10.65
12.11
12.91
12.99
12.32
11.03
9.38
7.88
7.11
7.55
9.43
12.61
16.68
21.06
25.20
28.71
31.38
33.17
34.19
34.70
34.96
35.24
35.63
36.09
36.43
36.38
35.74
34.32
32.07
28.97
25.09
20.62
15.86
11.18
6.87
3.13
-0.07
-2.86
-5.41
-7.81
-10.04
-12.04
-13.74
-15.21
-16.62
-18.19
-20.07
-22.28
-24.58
-26.64
-28.07
-28.59
-28.04
-26.34
-23.53
-19.71
-15.20
-10.54
-6.50
-3.87
-3.16
-4.39
-7.02
-10.22
-13.13
-15.24
-16.41
-16.82
-16.71
-16.25
-15.52
-14.58
-13.68
-13.19
-13.53
-14.96
-17.39
-20.36
-23.15
-25.03
-25.53
-24.48
-22.14
-18.96
-15.50
-12.23
-9.48
-7.43
-6.15
-5.58
-5.57
-5.86
-6.10
-5.94
-5.06
-3.22
-0.29
3.74
8.73
14.32
19.96
24.86
28.27
29.60
28.68
25.88
22.09
18.48
16.17
15.84
17.38
19.90
21.96
22.09
19.34
13.69
6.09
-1.82
-8.27
-11.89
-12.20
-9.64
-5.50
-1.43
0.93
0.55
-2.72
-7.95
-13.35
-16.66
-15.72
-9.13
3.23
20.08
38.92
56.66
70.45
78.46
80.37
77.20
70.83
63.21
55.73
48.89
42.40
35.51
27.37
17.30
5.10
-8.72
-22.70
-34.45
-41.20
-40.71
-32.26
-17.28
0.96
18.38
31.37
37.75
36.97
29.71
17.14
0.55
-18.66
-38.85
-57.98
-73.95
-85.10
-90.66
-90.88
-86.75
-79.49
-70.25
-60.00
-49.65
-40.13
-32.37
-27.09
-24.58
-24.65
-26.72
-29.99
-33.68
-37.02
-39.26
-39.73
-37.94
-33.83
-27.75
-20.41
-12.62
-5.00
2.18
8.83
14.91
20.33
24.92
28.64
31.67
34.42
37.30
40.56
44.09
47.51
50.37
52.25
52.91
52.23
50.27
47.20
43.43
39.58
36.43
34.69
34.69
36.26
38.72
41.19
42.95
43.65
43.29
41.98
39.71
36.29
31.58
25.81
19.73
14.45
10.98
9.85
10.91
13.49
16.79
20.16
23.11
25.18
25.81
24.44
20.79
15.05
8.04
0.97
-4.77
-8.00
-8.04
-4.96
0.26
5.88
9.75
9.85
4.94
-5.10
-19.23
-35.55
-51.83
-65.95
-76.23
-81.64
-81.93
-77.66
-70.16
-61.30
-53.04
-46.96
-43.91
-43.74
-45.46
-47.54
-48.44
-47.11
-43.34
-37.75
-31.52
-26.00
-22.25
-20.88
-21.99
-25.21
-29.87
-35.05
-39.68
-42.76
-43.45
-41.32
-36.42
-29.25
-20.73
-12.01
-4.26
1.63
5.22
6.59
6.31
5.17
3.89
2.85
2.08
1.33
0.35
-0.90
-2.19
-3.18
-3.68
-3.84
-4.12
-4.98
-6.63
-8.67
-10.22
-10.19
-7.85
-3.20
3.03
9.66
15.48
19.63
21.61
21.30
18.84
14.61
9.35
4.23
0.68
-0.07
2.56
8.13
15.30
22.32
27.68
30.58
31.05
29.64
27.05
23.74
19.97
16.02
12.34
9.67
8.74
9.97
13.13
17.32
21.24
23.59
23.51
20.78
15.80
9.33
2.24
-4.74
-11.00
-15.99
-19.19
-20.15
-18.66
-14.97
-9.81
-4.18
1.11
5.71
9.76
13.54
16.98
19.50
20.11
18.14
13.76
8.25
3.48
1.04
1.47
3.98
7.00
9.03
9.25
7.80
5.39
2.77
0.38
-1.62
-3.18
-4.16
-4.34
-3.58
-1.92
0.40
3.09
5.99
9.00
11.98
14.62
16.55
17.46
17.36
16.57
15.66
15.08
15.06
15.61
16.68
18.36
20.83
24.18
28.17
32.10
34.93
35.63
33.54
28.57
21.26
12.55
3.60
-4.40
-10.52
-14.13
-15.13
-13.90
-11.26
-8.22
-5.74
-4.48
-4.73
-6.42
-9.19
-12.46
-15.58
-17.91
-18.89
-18.30
-16.27
-13.29
-10.10
-7.46
-5.94
-5.78
-6.82
-8.56
-10.42
-11.89
-12.70
-12.96
-12.93
-12.93
-13.11
-13.37
-13.41
-12.87
-11.50
-9.28
-6.41
-3.23
-0.15
2.49
4.46
5.71
6.32
6.47
6.39
6.23
6.07
5.89
5.72
5.59
5.57
5.65
5.72
5.57
5.03
4.10
3.01
2.09
1.67
1.81
2.33
2.85
3.02
2.67
1.87
0.88
-0.01
-0.60
-0.83
-0.77
-0.55
-0.32
-0.19
-0.21
-0.37
-0.60
-0.76
-0.76
-0.55
-0.19
0.22
0.55
0.72
0.77
0.80
0.94
1.23
1.61
1.92
2.04
1.96
1.78
1.64
1.64
1.75
1.85
1.82
1.64
1.35
1.06
0.80
0.59
0.37
0.10
-0.20
-0.47
-0.66
-0.76
-0.82
-0.84
-0.80
-0.60
-0.15
0.62
1.58
2.52
3.12
3.18
2.66
1.79
1.00
0.71
1.10
2.00
2.94
3.40
3.01
1.85
0.37
-0.81
-1.21
-0.70
0.43
1.62
2.32
2.21
1.33
-0.05
-1.57
-2.95
-4.01
-4.70
-5.06
-5.09
-4.86
-4.48
-4.08
-3.85
-3.94
-4.44
-5.30
-6.36
-7.42
-8.30
-8.89
-9.20
-9.35
-9.51
-9.84
-10.45
-11.37
-12.54
-13.88
-15.26
-16.58
-17.75
-18.70
-19.45
-20.08
-20.73
-21.58
-22.75
-24.21
-25.73
-27.00
-27.71
-27.71
-27.01
-25.83
-24.46
-23.12
-21.96
-20.93
-19.95
-18.82
-17.42
-15.63
-13.51
-11.24
-9.04
-7.02
-5.02
-2.63
0.71
5.29
11.02
17.31
23.36
28.55
32.66
35.98
39.02
42.26
45.88
49.78
53.70
57.40
60.68
63.41
65.43
66.52
66.42
64.91
61.94
57.71
52.64
47.20
41.76
36.38
30.88
25.06
18.91
12.75
7.10
2.43
-1.18
-4.05
-6.72
-9.65
-12.93
-16.27
-19.18
-21.22
-22.24
-22.31
-21.68
-20.59
-19.16
-17.38
-15.16
-12.53
-9.64
-6.82
-4.42
-2.68
-1.60
-0.92
-0.29
0.55
1.63
2.70
3.46
3.63
3.11
1.99
0.52
-0.99
-2.17
-2.77
-2.68
-2.05
-1.24
-0.65
-0.62
-1.19
-2.18
-3.25
-4.17
-4.89
-5.56
-6.42
-7.57
-8.98
-10.47
-11.83
-12.92
-13.72
-14.28
-14.69
-15.01
-15.30
-15.61
-16.02
-16.57
-17.24
-17.97
-18.65
-19.25
-19.82
-20.49
-21.41
-22.60
-23.88
-24.93
-25.36
-24.88
-23.36
-20.92
-17.81
-14.33
-10.80
-7.44
-4.37
-1.64
0.86
3.29
5.82
8.49
11.19
13.63
15.50
16.65
17.14
17.21
17.21
17.39
17.81
18.37
18.90
19.25
19.36
19.29
19.14
18.93
18.63
18.15
17.43
16.47
15.42
14.50
13.91
13.73
13.90
14.24
14.57
14.76
14.74
14.53
14.08
13.33
12.20
10.67
8.85
6.96
5.25
3.88
2.87
2.09
1.42
0.85
0.52
0.58
1.06
1.72
2.14
1.84
0.54
-1.79
-4.88
-8.33
-11.80
-15.01
-17.77
-19.92
-21.33
-21.99
-22.06
-21.86
-21.72
-21.78
-21.93
-21.90
-21.41
-20.38
-18.98
-17.42
-15.87
-14.27
-12.49
-10.43
-8.20
-6.15
-4.68
-4.04
-4.16
-4.70
-5.21
-5.33
-4.94
-4.22
-3.48
-2.97
-2.73
-2.43
-1.45
0.86
4.94
10.73
17.65
24.79
31.21
36.32
39.98
42.44
44.18
45.65
47.29
49.43
52.23
55.53
58.65
60.50
59.88
56.03
49.10
40.16
30.81
22.55
16.15
11.55
8.09
4.99
1.85
-1.27
-4.05
-6.28
-8.05
-9.77
-11.90
-14.72
-18.21
-22.05
-25.84
-29.23
-32.10
-34.48
-36.42
-37.92
-38.85
-39.06
-38.58
-37.72
-37.04
-37.15
-38.42
-40.76
-43.68
-46.46
-48.44
-49.33
-49.27
-48.75
-48.30
-48.30
-48.80
-49.51
-49.99
-49.81
-48.73
-46.75
-44.07
-40.97
-37.78
-34.75
-32.06
-29.72
-27.59
-25.42
-22.81
-19.42
-15.02
-9.66
-3.64
2.49
8.18
12.94
16.60
19.27
21.26
22.91
24.42
25.82
27.02
27.87
28.33
28.45
28.31
28.00
27.51
26.84
25.94
24.82
23.49
21.99
20.34
18.60
16.83
15.15
13.62
12.31
11.22
10.31
9.53
8.83
8.15
7.38
6.46
5.35
4.10
2.89
1.94
1.37
1.23
1.39
1.69
1.91
1.93
1.70
1.30
0.84
0.41
0.03
-0.32
-0.74
-1.28
-1.90
-2.58
-3.29
-4.03
-4.79
-5.49
-6.00
-6.08
-5.62
-4.70
-3.55
-2.54
-1.93
-1.76
-1.88
-2.04
-2.12
-2.14
-2.28
-2.66
-3.30
-3.99
-4.49
-4.57
-4.18
-3.44
-2.56
-1.80
-1.35
-1.33
-1.77
-2.57
-3.56
-4.52
-5.22
-5.59
-5.71
-5.80
-6.09
-6.71
-7.64
-8.72
-9.76
-10.69
-11.50
-12.21
-12.73
-12.86
-12.38
-11.27
-9.77
-8.48
-8.01
-8.72
-10.54
-12.94
-15.23
-16.79
-17.41
-17.23
-16.56
-15.70
-14.80
-13.87
-12.90
-11.95
-11.17
-10.72
-10.67
-11.04
-11.73
-12.65
-13.71
-14.90
-16.18
-17.55
-19.04
-20.62
-22.28
-23.88
-25.23
-26.10
-26.30
-25.80
-24.75
-23.42
-22.13
-21.08
-20.34
-19.83
-19.37
-18.84
-18.20
-17.61
-17.19
-17.01
-16.89
-16.47
-15.34
-13.19
-9.99
-5.96
-1.45
3.23
7.88
12.47
17.00
21.43
25.65
29.56
33.08
36.20
38.94
41.30
43.25
44.74
45.75
46.39
46.86
47.51
48.72
50.88
54.24
58.76
64.09
69.58
74.47
78.09
80.04
80.21
78.69
75.64
71.18
65.42
58.54
50.89
42.96
35.31
28.37
22.33
17.09
12.40
7.98
3.73
-0.26
-3.77
-6.61
-8.76
-10.38
-11.74
-13.12
-14.62
-16.17
-17.56
-18.55
-19.02
-18.96
-18.49
-17.81
-17.12
-16.60
-16.39
-16.54
-17.05
-17.79
-18.57
-19.18
-19.46
-19.33
-18.81
-18.01
-17.03
-15.97
-14.87
-13.83
-12.93
-12.26
-11.88
-11.76
-11.78
-11.72
-11.38
-10.56
-9.13
-7.05
-4.36
-1.18
2.29
5.79
9.07
11.86
14.01
15.48
16.29
16.56
16.36
15.71
14.60
13.05
11.18
9.18
7.28
5.69
4.49
3.61
2.96
2.35
1.70
0.98
0.28
-0.31
-0.66
-0.72
-0.52
-0.13
0.34
0.80
1.20
1.51
1.72
1.82
1.84
1.86
2.01
2.37
2.93
3.52
3.87
3.72
2.97
1.73
0.27
-1.07
-2.10
-2.78
-3.19
-3.41
-3.45
-3.28
-2.88
-2.36
-1.96
-1.95
-2.43
-3.24
-4.00
-4.25
-3.71
-2.50
-1.06
0.07
0.45
0.03
-0.92
-1.92
-2.54
-2.62
-2.29
-1.85
-1.65
-1.86
-2.44
-3.15
-3.60
-3.48
-2.63
-1.14
0.66
2.39
3.72
4.59
5.20
5.89
6.92
8.32
9.89
11.27
12.26
12.84
13.30
13.96
15.01
16.39
17.78
18.80
19.21
18.95
18.19
17.18
16.15
15.23
14.47
13.91
13.59
13.58
13.83
14.11
14.03
13.08
10.94
7.63
3.55
-0.61
-4.17
-6.74
-8.31
-9.16
-9.70
-10.21
-10.82
-11.53
-12.29
-13.09
-13.95
-14.82
-15.57
-16.05
-16.13
-15.79
-15.13
-14.31
-13.39
-12.41
-11.28
-9.97
-8.60
-7.40
-6.65
-6.48
-6.79
-7.20
-7.25
-6.63
-5.29
-3.45
-1.50
0.21
1.46
2.17
2.27
1.68
0.33
-1.73
-4.20
-6.64
-8.51
-9.44
-9.40
-8.67
-7.72
-7.09
-7.13
-7.97
-9.46
-11.28
-13.05
-14.46
-15.42
-16.06
-16.71
-17.66
-19.03
-20.69
-22.34
-23.70
-24.60
-25.03
-25.00
-24.44
-23.24
-21.37
-19.06
-16.85
-15.37
-15.08
-15.97
-17.62
-19.36
-20.67
-21.39
-21.76
-22.21
-23.07
-24.46
-26.27
-28.28
-30.32
-32.28
-34.14
-35.84
-37.28
-38.33
-38.89
-38.93
-38.54
-37.82
-36.81
-35.49
-33.73
-31.37
-28.27
-24.42
-19.94
-15.10
-10.28
-5.74
-1.43
3.10
8.77
16.78
28.27
43.95
63.87
87.30
112.91
139.06
164.17
187.09
207.21
224.43
238.97
251.12
261.07
268.80
274.24
277.40
278.49
277.93
276.27
274.04
271.67
269.44
267.62
266.44
266.19
267.17
269.62
273.62
279.02
285.48
292.31
298.33
301.58
299.30
288.33
265.92
230.89
184.29
129.49
71.27
14.40
-37.64
-83.31
-122.64
-156.47
-185.43
-209.59
-228.64
-242.54
-252.00
-258.70
-264.94
-272.83
-283.75
-297.94
-314.73
-332.77
-350.35
-365.17
-374.35
-374.65
-363.41
-339.84
-305.82
-265.68
-224.64
-186.74
-153.53
-124.07
-96.45
-69.66
-44.58
-23.52
-8.61
-0.42
2.45
2.41
1.52
0.60
-0.59
-2.45
-4.54
-5.50
-3.91
0.56
6.54
11.25
11.73
6.13
-5.54
-21.62
-39.58
-56.98
-72.10
-84.04
-92.56
-97.82
-100.09
-99.69
-97.10
-93.09
-88.77
-85.58
-85.03
-88.25
-95.53
-106.02
-117.92
-128.97
-137.26
-141.87
-143.08
-142.19
-140.95
-140.97
-143.16
-147.59
-153.61
-160.23
-166.50
-171.98
-176.94
-182.34
-189.72
-200.56
-215.74
-234.71
-255.16
-273.28
-284.73
-286.06
-275.73
-254.68
-225.73
-192.45
-157.89
-123.91
-91.01
-58.91
-27.04
5.01
37.22
69.12
99.77
127.87
151.92
170.52
182.60
187.69
185.97
178.43
166.80
153.39
140.59
130.30
123.36
119.37
117.08
115.10
112.66
109.93
107.82
107.40
109.33
113.71
120.20
128.44
138.34
149.95
163.19
177.43
191.46
203.82
213.33
219.69
223.60
226.41
229.47
233.56
238.56
243.59
247.49
249.27
248.36
244.80
239.09
232.15
225.28
219.94
217.33
217.77
219.98
220.85
215.90
200.60
172.15
131.04
81.36
29.74
-16.91
-53.75
-79.32
-95.16
-104.25
-109.18
-111.16
-110.43
-107.30
-102.99
-99.54
-98.79
-101.19
-105.46
-109.28
-110.65
-109.01
-105.48
-102.05
-100.44
-101.29
-104.01
-107.31
-109.94
-111.14
-110.80
-109.20
-106.78
-103.93
-100.77
-97.05
-92.21
-85.65
-77.11
-67.03
-56.69
-47.76
-41.73
-39.18
-39.57
-41.53
-43.39
-43.86
-42.45
-39.52
-36.02
-33.23
-32.34
-34.16
-38.82
-45.59
-53.03
-59.36
-63.02
-63.20
-60.04
-54.45
-47.74
-41.09
-35.38
-31.21
-28.99
-28.96
-31.02
-34.44
-37.90
-39.80
-39.05
-35.61
-30.72
-26.31
-23.97
-24.12
-25.72
-26.84
-25.68
-21.32
-13.99
-4.65
5.70
16.44
27.31
37.92
47.46
54.62
58.17
57.64
53.85
48.80
44.95
44.32
47.61
54.11
62.04
69.40
74.66
77.06
76.52
73.23
67.33
58.86
47.89
34.73
20.07
4.80
-10.13
-23.85
-35.71
-45.21
-51.97
-55.67
-56.14
-53.47
-48.03
-40.51
-31.90
-23.30
-15.84
-10.57
-8.32
-9.53
-14.21
-21.81
-31.39
-41.86
-52.31
-62.18
-71.33
-79.82
-87.63
-94.50
-99.93
-103.39
-104.58
-103.50
-100.37
-95.54
-89.23
-81.51
-72.28
-61.39
-48.79
-34.71
-19.75
-4.96
8.45
19.42
27.49
33.01
37.04
40.76
44.95
49.58
53.90
56.94
58.07
57.37
55.51
53.39
51.67
50.55
49.91
49.58
49.58
50.09
51.22
52.84
54.53
55.82
56.44
56.53
56.51
56.91
57.99
59.59
61.12
61.83
61.11
58.79
55.26
51.37
48.13
46.37
46.42
48.06
50.61
53.30
55.58
57.29
58.60
59.81
61.09
62.42
63.61
64.40
64.67
64.43
63.76
62.78
61.54
60.03
58.18
55.96
53.34
50.30
46.79
42.71
37.94
32.41
26.10
19.18
12.01
5.13
-0.77
-5.10
-7.48
-7.90
-6.69
-4.48
-1.99
0.11
1.37
1.54
0.63
-1.23
-3.79
-6.74
-9.69
-12.27
-14.10
-14.88
-14.37
-12.43
-9.08
-4.52
0.80
6.23
11.14
15.14
18.23
20.78
23.37
26.43
30.07
34.07
38.06
41.75
45.08
48.19
51.34
54.74
58.51
62.58
66.62
69.94
71.50
70.15
65.06
56.11
44.05
30.22
16.15
3.10
-8.02
-16.52
-21.97
-24.22
-23.75
-21.70
-19.47
-18.08
-17.66
-17.38
-16.01
-12.72
-7.61
-1.56
4.35
9.47
13.72
17.40
20.77
23.84
26.50
28.69
30.51
32.05
33.09
33.06
31.12
26.61
19.26
9.37
-2.37
-15.09
-27.97
-40.34
-51.70
-61.69
-70.06
-76.54
-80.93
-83.09
-83.06
-81.21
-78.23
-74.98
-72.18
-70.16
-68.77
-67.45
-65.51
-62.47
-58.27
-53.21
-47.88
-42.85
-38.46
-34.70
-31.29
-27.86
-24.14
-20.08
-15.95
-12.16
-9.13
-7.17
-6.30
-6.36
-7.07
-8.16
-9.46
-10.86
-12.24
-13.48
-14.43
-15.02
-15.31
-15.50
-15.84
-16.45
-17.23
-17.86
-17.93
-17.14
-15.53
-13.40
-11.17
-9.11
-7.16
-5.06
-2.50
0.55
3.69
6.30
7.81
8.04
7.21
5.90
4.57
3.43
2.37
1.20
-0.15
-1.47
-2.44
-2.82
-2.65
-2.21
-1.83
-1.73
-1.86
-2.04
-2.10
-2.04
-2.06
-2.46
-3.46
-5.10
-7.19
-9.37
-11.25
-12.53
-13.06
-12.91
-12.32
-11.61
-11.06
-10.82
-10.85
-10.93
-10.82
-10.34
-9.47
-8.35
-7.21
-6.26
-5.61
-5.22
-4.96
-4.65
-4.20
-3.68
-3.32
-3.43
-4.29
-5.95
-8.22
-10.77
-13.29
-15.63
-17.86
-20.17
-22.63
-25.04
-26.94
-27.83
-27.35
-25.51
-22.65
-19.28
-15.94
-13.01
-10.81
-9.57
-9.45
-10.44
-12.29
-14.47
-16.34
-17.29
-16.99
-15.44
-12.96
-10.03
-7.18
-4.85
-3.33
-2.69
-2.72
-2.99
-2.96
-2.15
-0.34
2.30
5.28
7.91
9.59
10.08
9.50
8.39
7.46
7.33
8.24
10.03
12.13
13.86
14.65
14.27
12.84
10.84
8.80
7.18
6.24
5.98
6.27
6.86
7.50
7.97
8.14
7.97
7.55
7.03
6.61
6.39
6.40
6.55
6.74
6.90
6.98
6.99
6.90
6.71
6.48
6.33
6.45
6.94
7.67
8.33
8.46
7.82
6.44
4.76
3.35
2.67
2.75
3.22
3.50
3.09
1.77
-0.37
-3.06
-6.00
-8.94
-11.64
-13.77
-14.96
-14.84
-13.24
-10.29
-6.52
-2.67
0.47
2.37
2.87
2.27
1.18
0.27
-0.02
0.39
1.20
1.83
1.74
0.59
-1.61
-4.59
-7.88
-10.97
-13.38
-14.78
-15.04
-14.32
-13.08
-11.94
-11.44
-11.81
-12.86
-14.09
-15.04
-15.54
-15.82
-16.37
-17.61
-19.63
-22.14
-24.61
-26.60
-27.96
-28.95
-30.02
-31.75
-34.56
-38.61
-43.76
-49.58
-55.47
-60.85
-65.32
-68.85
-71.73
-74.43
-77.38
-80.70
-84.13
-86.92
-87.95
-85.75
-78.77
-65.87
-46.80
-22.79
3.48
28.40
48.45
61.37
66.85
66.42
62.60
57.79
53.40
49.57
45.77
41.45
36.65
32.11
28.79
27.35
27.83
29.65
32.00
34.30
36.34
38.22
40.04
41.59
42.37
41.76
39.43
35.62
31.23
27.44
25.31
25.24
26.81
28.88
30.03
29.14
25.77
20.21
13.23
5.66
-2.00
-9.67
-17.55
-25.75
-34.12
-42.17
-49.29
-55.02
-59.12
-61.64
-62.74
-62.53
-60.96
-57.90
-53.23
-47.05
-39.72
-31.93
-24.59
-18.57
-14.49
-12.51
-12.37
-13.45
-15.01
-16.32
-16.74
-15.61
-12.33
-6.43
2.17
12.93
24.84
36.62
47.23
56.09
63.19
68.88
73.51
77.25
80.08
81.86
82.55
82.22
81.07
79.34
77.20
74.74
71.98
68.93
65.65
62.27
59.01
56.04
53.47
51.25
49.18
47.03
44.62
41.94
39.10
36.31
33.73
31.37
29.14
26.95
24.79
22.80
21.24
20.35
20.22
20.72
21.52
22.17
22.30
21.72
20.42
18.54
16.23
13.62
10.80
7.94
5.35
3.39
2.42
2.61
3.80
5.64
7.59
9.17
10.04
10.07
9.32
7.96
6.23
4.38
2.69
1.38
0.59
0.28
0.23
0.17
-0.20
-1.00
-2.12
-3.32
-4.29
-4.84
-4.93
-4.68
-4.28
-3.90
-3.67
-3.69
-4.01
-4.65
-5.54
-6.50
-7.26
-7.57
-7.30
-6.54
-5.57
-4.75
-4.40
-4.68
-5.55
-6.79
-8.09
-9.15
-9.77
-9.87
-9.56
-9.05
-8.59
-8.47
-8.90
-9.97
-11.58
-13.43
-15.08
-16.11
-16.20
-15.34
-13.83
-12.13
-10.77
-10.12
-10.28
-11.07
-12.12
-12.97
-13.23
-12.69
-11.35
-9.36
-7.00
-4.52
-2.11
0.15
2.24
4.18
5.92
7.42
8.60
9.40
9.88
10.13
10.36
10.82
11.64
12.82
14.13
15.09
15.17
13.93
11.27
7.49
3.25
-0.58
-3.22
-4.16
-3.29
-0.87
2.54
6.25
9.59
12.05
13.34
13.45
12.65
11.32
9.86
8.51
7.23
5.82
3.89
1.11
-2.63
-7.11
-11.83
-16.06
-19.11
-20.59
-20.47
-19.15
-17.26
-15.48
-14.33
-14.12
-14.89
-16.45
-18.43
-20.28
-21.45
-21.53
-20.39
-18.22
-15.54
-12.89
-10.74
-9.25
-8.36
-7.82
-7.39
-6.89
-6.28
-5.61
-4.99
-4.52
-4.22
-4.04
-3.85
-3.56
-3.12
-2.61
-2.17
-1.91
-1.86
-1.88
-1.80
-1.47
-0.87
-0.11
0.61
1.13
1.46
1.71
2.05
2.61
3.35
4.10
4.61
4.64
4.07
2.99
1.66
0.41
-0.42
-0.64
-0.31
0.30
0.78
0.88
0.51
-0.19
-0.95
-1.65
-2.13
-2.37
-2.47
-2.59
-2.75
-2.82
-2.49
-1.51
0.01
1.78
3.37
4.25
4.11
3.02
1.39
-0.23
-1.41
-2.35
-3.18
-4.11
-5.42
-7.46
-9.96
-12.33
-13.77
-13.77
-13.27
-12.99
-13.66
-16.16
-21.02
-27.30
-33.06
-35.91
-34.33
-30.31
-25.66
-22.20
-21.78
-25.22
-30.85
-35.44
-35.52
-29.32
-20.58
-11.84
-4.22
2.49
10.25
23.27
45.97
81.84
132.24
193.00
263.35
344.57
436.92
522.81
578.60
582.50
527.48
448.56
364.12
285.43
219.29
161.44
110.49
66.17
28.84
-0.16
-19.62
-33.58
-44.04
-52.40
-60.55
-69.50
-78.64
-85.95
-88.79
-85.77
-80.82
-76.84
-75.77
-78.78
-85.40
-93.95
-102.12
-107.69
-109.51
-109.61
-109.11
-108.52
-108.27
-108.44
-109.11
-110.19
-111.32
-112.11
-113.32
-115.07
-117.22
-119.67
-122.21
-124.76
-127.20
-129.31
-130.97
-132.54
-134.18
-135.96
-137.93
-139.98
-141.98
-143.73
-144.95
-145.28
-144.39
-142.01
-137.92
-132.08
-124.66
-116.08
-106.99
-98.11
-90.06
-83.24
-77.78
-73.59
-70.33
-67.47
-64.32
-60.21
-54.74
-47.92
-40.26
-32.50
-25.26
-18.76
-12.92
-7.57
-2.73
1.34
4.37
6.41
7.99
9.98
13.05
17.36
22.37
27.23
31.32
34.64
37.75
41.41
45.97
51.18
56.37
60.90
64.64
67.99
71.51
75.49
79.52
82.71
84.10
83.20
80.15
75.64
70.45
65.14
59.96
54.95
50.11
45.49
41.16
37.19
33.60
30.54
28.29
27.20
27.53
29.23
31.87
34.72
37.08
38.51
38.99
38.88
38.69
38.83
39.43
40.37
41.32
42.00
42.37
42.68
43.31
44.51
46.17
47.65
47.87
45.81
40.92
33.39
23.88
13.12
1.60
-10.31
-21.96
-32.09
-39.04
-41.71
-40.56
-38.00
-37.61
-42.44
-53.33
-68.39
-84.08
-97.10
-105.98
-111.35
-114.76
-117.23
-118.43
-117.10
-112.24
-104.06
-94.07
-84.28
-76.04
-69.52
-63.83
-57.79
-50.62
-42.26
-33.29
-24.59
-17.03
-11.13
-6.97
-3.99
-1.23
2.29
7.09
12.89
18.79
23.75
27.21
29.34
30.89
32.56
34.57
36.49
37.59
37.32
35.80
33.79
32.42
32.55
34.28
36.80
38.68
38.56
35.87
31.23
26.28
23.00
22.68
25.24
29.16
32.01
31.64
27.05
18.93
9.32
0.82
-4.45
-5.64
-3.38
0.27
2.12
-1.68
-14.96
-40.17
-76.75
-119.96
-161.20
-190.34
-199.38
-185.96
-154.48
-114.53
-76.74
-48.62
-32.30
-25.22
-22.86
-21.77
-20.88
-20.91
-22.57
-25.15
-26.58
-24.73
-18.84
-10.22
-1.60
4.34
6.35
5.09
2.66
1.37
2.54
6.05
10.49
13.97
15.10
13.56
10.16
6.43
3.97
3.81
6.06
9.95
14.24
17.74
19.72
20.12
19.44
18.40
17.61
17.37
17.67
18.27
18.90
19.30
19.24
18.57
17.16
15.10
12.69
10.39
8.65
7.70
7.37
7.23
6.84
5.98
4.79
3.70
3.16
3.36
4.17
5.28
6.40
7.45
8.60
10.06
11.91
13.99
15.94
17.37
18.07
18.07
17.65
17.10
16.65
16.35
16.15
15.92
15.63
15.26
14.80
14.14
13.14
11.63
9.59
7.22
4.87
2.91
1.56
0.77
0.26
-0.24
-0.92
-1.68
-2.29
-2.57
-2.46
-2.14
-1.90
-1.97
-2.42
-3.16
-3.98
-4.69
-5.16
-5.34
-5.26
-4.92
-4.36
-3.64
-2.86
-2.15
-1.62
-1.30
-1.13
-0.99
-0.76
-0.43
-0.11
0.05
-0.03
-0.25
-0.31
0.12
1.23
3.06
5.35
7.77
9.94
11.64
12.75
13.29
13.35
13.06
12.56
12.03
11.64
11.49
11.64
12.08
12.71
13.43
14.11
14.65
14.98
15.02
14.74
14.10
13.16
12.04
10.92
9.98
9.36
9.07
9.02
9.11
9.27
9.59
10.17
11.14
12.48
14.05
15.62
16.96
17.93
18.46
18.57
18.32
17.80
17.09
16.25
15.34
14.36
13.30
12.17
11.02
9.97
9.11
8.44
7.85
7.15
6.19
4.98
3.62
2.30
1.13
0.11
-0.83
-1.76
-2.64
-3.29
-3.50
-3.13
-2.22
-0.99
0.32
1.52
2.54
3.39
4.11
4.65
4.93
4.87
4.48
3.90
3.35
3.02
3.02
3.32
3.83
4.42
4.98
5.44
5.74
5.81
5.56
4.93
4.01
3.02
2.25
1.99
2.37
3.32
4.54
5.71
6.54
7.00
7.24
7.53
8.05
8.90
9.95
10.94
11.67
11.99
11.93
11.68
11.47
11.57
12.11
13.09
14.28
15.37
16.01
15.93
14.99
13.22
10.83
8.27
6.21
5.41
6.48
9.57
14.29
19.69
24.72
28.51
30.72
31.44
31.04
29.83
27.97
25.52
22.70
19.89
17.69
16.61
16.95
18.62
21.20
24.14
26.89
29.09
30.62
31.60
32.33
33.12
34.20
35.61
37.21
38.81
40.34
41.83
43.45
45.32
47.34
49.19
50.36
50.40
49.02
46.24
42.16
36.94
30.64
23.28
15.01
6.21
-2.56
-10.69
-17.76
-23.71
-28.74
-33.17
-37.23
-40.90
-43.97
-46.20
-47.46
-47.78
-47.36
-46.42
-45.08
-43.35
-41.17
-38.45
-35.20
-31.53
-27.68
-23.89
-20.33
-17.03
-13.93
-11.00
-8.27
-5.86
-3.92
-2.53
-1.60
-0.91
-0.19
0.78
2.07
3.62
5.24
6.71
7.78
8.27
8.02
6.96
5.12
2.68
-0.07
-2.82
-5.28
-7.31
-8.93
-10.22
-11.27
-12.17
-12.96
-13.78
-14.82
-16.28
-18.20
-20.42
-22.59
-24.33
-25.44
-26.02
-26.43
-27.05
-28.03
-29.22
-30.17
-30.38
-29.58
-27.79
-25.30
-22.55
-19.92
-17.61
-15.70
-14.15
-12.94
-12.05
-11.43
-10.99
-10.55
-9.89
-8.81
-7.25
-5.32
-3.27
-1.41
-0.01
0.83
1.12
1.01
0.70
0.37
0.11
-0.01
0.01
0.18
0.52
0.98
1.51
1.96
2.20
2.16
1.80
1.14
0.27
-0.72
-1.66
-2.38
-2.66
-2.33
-1.36
0.18
2.03
3.94
5.63
6.90
7.66
7.92
7.80
7.53
7.39
7.66
8.44
9.65
10.99
12.15
12.83
12.98
12.64
11.97
11.07
9.99
8.73
7.33
5.92
4.69
3.82
3.33
3.14
3.05
2.90
2.67
2.43
2.33
2.44
2.73
3.08
3.33
3.47
3.61
3.98
4.79
6.13
7.83
9.64
11.21
12.31
12.88
13.05
13.05
13.15
13.55
14.35
15.58
17.18
19.06
21.08
23.15
25.15
26.98
28.55
29.63
30.00
29.39
27.73
25.16
22.12
19.23
17.12
16.20
16.57
18.02
20.18
22.66
25.20
27.66
29.90
31.76
32.88
32.80
31.05
27.28
21.39
13.61
4.39
-5.64
-15.87
-25.71
-34.72
-42.47
-48.57
-52.65
-54.51
-54.11
-51.72
-47.84
-43.15
-38.36
-34.12
-31.02
-29.54
-30.01
-32.59
-37.12
-43.19
-50.18
-57.42
-64.34
-70.58
-75.96
-80.48
-84.17
-87.05
-89.04
-89.96
-89.52
-87.37
-83.27
-77.09
-68.96
-59.25
-48.55
-37.60
-27.17
-18.03
-10.80
-5.79
-2.94
-1.80
-1.58
-1.36
-0.30
2.22
6.47
12.26
18.95
25.58
31.05
34.38
34.85
32.17
26.45
18.11
7.88
-3.21
-13.93
-22.95
-29.07
-31.61
-30.58
-26.77
-21.57
-16.51
-12.82
-11.15
-11.43
-13.01
-14.94
-16.27
-16.35
-14.93
-12.19
-8.56
-4.65
-1.00
1.93
3.85
4.55
3.99
2.25
-0.38
-3.47
-6.51
-9.12
-11.24
-13.20
-15.60
-18.96
-23.42
-28.53
-33.38
-36.90
-38.28
-37.23
-34.12
-29.79
-25.29
-21.59
-19.35
-18.72
-19.32
-20.32
-20.60
-19.08
-14.94
-7.88
1.77
13.12
24.88
35.68
44.31
50.00
52.52
52.20
49.73
46.10
42.25
39.05
37.01
36.36
36.82
37.81
38.51
38.17
36.35
33.06
28.79
24.30
20.41
17.80
16.81
17.46
19.44
22.23
25.20
27.67
29.05
28.87
26.88
23.12
17.97
12.16
6.60
2.24
-0.19
-0.34
1.71
5.48
10.28
15.33
19.91
23.45
25.60
26.23
25.51
23.82
21.61
19.24
16.81
14.15
10.98
7.12
2.66
-1.98
-6.14
-9.27
-11.08
-11.72
-11.69
-11.65
-12.17
-13.49
-15.45
-17.58
-19.19
-19.61
-18.34
-15.18
-10.31
-4.21
2.41
8.75
14.07
17.80
19.67
19.64
17.92
14.90
11.07
6.92
2.85
-0.82
-3.95
-6.50
-8.52
-10.12
-11.38
-12.25
-12.58
-12.16
-10.81
-8.57
-5.64
-2.42
0.71
3.43
5.58
7.11
8.04
8.38
8.23
7.73
7.17
6.82
6.78
6.90
6.80
6.08
4.50
2.22
-0.33
-2.50
-3.73
-3.68
-2.32
0.07
2.98
5.75
7.67
8.16
6.99
4.38
1.01
-2.13
-4.08
-4.17
-2.24
1.34
5.81
10.25
13.81
15.92
16.41
15.50
13.70
11.67
9.97
8.98
8.78
9.18
9.85
10.52
11.02
11.34
11.57
11.78
11.96
12.00
11.71
10.95
9.64
7.84
5.72
3.48
1.35
-0.47
-1.87
-2.78
-3.21
-3.21
-2.89
-2.39
-1.84
-1.38
-1.10
-1.05
-1.23
-1.61
-2.11
-2.61
-2.95
-2.97
-2.58
-1.74
-0.57
0.76
1.99
2.95
3.51
3.63
3.32
2.60
1.50
0.08
-1.50
-3.04
-4.30
-5.12
-5.45
-5.36
-5.01
-4.56
-4.13
-3.76
-3.42
-3.09
-2.72
-2.35
-2.04
-1.82
-1.67
-1.51
-1.23
-0.78
-0.19
0.40
0.86
1.09
1.10
0.99
0.91
0.92
0.97
0.98
0.81
0.41
-0.22
-0.96
-1.71
-2.36
-2.81
-3.09
-3.26
-3.47
-3.84
-4.38
-5.04
-5.61
-5.93
-5.92
-5.65
-5.31
-5.07
-5.00
-5.07
-5.11
-4.97
-4.60
-4.07
-3.56
-3.21
-3.11
-3.19
-3.32
-3.37
-3.29
-3.09
-2.89
-2.77
-2.74
-2.74
-2.72
-2.64
-2.55
-2.53
-2.68
-2.99
-3.39
-3.79
-4.10
-4.33
-4.53
-4.79
-5.09
-5.36
-5.58
-5.72
-5.68
-5.43
-4.98
-4.40
-3.77
-3.11
-2.43
-1.86
-1.51
-1.37
-1.39
-1.44
-1.44
-1.37
-1.15
-0.83
-0.79
-1.42
-2.80
-4.82
-7.33
-10.20
-13.36
-16.49
-19.24
-22.21
-25.90
-30.16
-34.77
-39.47
-44.17
-48.95
-53.25
-56.45
-59.81
-64.49
-70.35
-77.07
-84.22
-91.44
-98.49
-104.02
-106.53
-107.72
-109.35
-111.30
-113.14
-113.94
-112.25
-106.29
-92.55
-67.64
-32.90
9.44
58.66
113.63
172.99
235.28
288.05
318.39
339.02
358.64
371.72
375.21
366.78
345.44
312.07
269.25
222.51
178.02
137.39
101.17
71.15
48.41
33.50
26.44
26.66
34.28
49.10
67.41
85.23
100.37
110.97
115.78
114.32
106.91
95.39
82.21
67.87
52.61
37.35
22.65
8.86
-3.88
-15.60
-26.06
-35.17
-43.87
-53.00
-62.67
-72.63
-82.36
-91.23
-98.73
-104.41
-108.02
-109.87
-110.39
-109.88
-108.65
-106.97
-105.02
-102.87
-100.49
-97.84
-94.95
-91.90
-88.77
-85.53
-82.06
-78.17
-73.76
-68.96
-64.11
-59.61
-55.79
-52.78
-50.47
-48.61
-46.96
-45.34
-43.70
-42.06
-40.54
-39.28
-38.45
-38.24
-38.74
-39.97
-41.79
-43.97
-46.19
-48.20
-49.83
-51.01
-51.79
-52.22
-52.36
-52.25
-51.93
-51.42
-50.69
-49.69
-48.31
-46.49
-44.25
-41.71
-39.03
-36.34
-33.69
-31.08
-28.55
-26.26
-24.45
-23.37
-23.09
-23.52
-24.44
-25.66
-27.09
-28.72
-30.58
-32.50
-34.16
-35.18
-35.32
-34.66
-33.56
-32.50
-31.88
-31.79
-31.96
-31.85
-30.93
-28.88
-25.73
-21.85
-17.79
-13.99
-10.66
-7.72
-4.94
-2.16
0.63
3.31
5.69
7.72
9.55
11.42
13.56
16.03
18.69
21.31
23.68
25.69
27.32
28.63
29.64
30.44
31.16
32.10
33.56
35.75
38.77
42.69
47.67
53.93
61.65
70.70
80.45
89.89
97.87
103.44
105.95
104.89
99.72
90.17
76.89
62.06
49.34
42.72
44.83
55.56
71.78
88.65
101.72
108.66
109.75
107.06
102.94
98.78
94.81
90.68
86.26
82.08
78.86
76.98
75.96
74.56
71.42
65.67
57.30
46.98
35.66
24.05
12.38
0.52
-11.78
-24.62
-37.81
-50.88
-63.19
-74.06
-82.96
-89.66
-94.37
-97.68
-100.34
-102.92
-105.59
-108.14
-110.15
-111.36
-111.87
-112.08
-112.48
-113.35
-114.66
-115.89
-116.32
-115.04
-111.27
-104.54
-94.96
-83.26
-70.73
-58.82
-48.69
-40.88
-35.22
-31.06
-27.71
-24.67
-21.67
-18.57
-15.16
-11.30
-7.04
-2.80
0.70
2.82
3.40
2.94
2.37
2.59
3.93
6.04
8.17
9.72
10.67
11.54
12.97
15.26
18.07
20.66
22.37
23.04
23.11
23.31
24.22
26.00
28.31
30.68
32.67
34.14
35.14
35.79
36.17
36.35
36.42
36.50
36.71
37.08
37.54
37.97
38.29
38.50
38.64
38.74
38.73
38.49
37.88
36.83
35.33
33.48
31.45
29.43
27.70
26.58
26.36
27.22
29.16
31.97
35.28
38.75
42.11
45.35
48.68
52.44
56.92
62.18
67.87
73.33
77.75
80.48
81.34
80.60
78.97
77.19
75.82
75.01
74.58
74.23
73.71
72.95
72.01
70.96
69.80
68.47
66.99
65.52
64.24
63.08
61.38
57.87
51.22
40.71
26.80
11.23
-3.59
-15.52
-23.37
-27.15
-27.63
-25.81
-22.43
-17.99
-13.00
-8.22
-4.67
-3.33
-4.81
-9.08
-15.59
-23.44
-31.74
-39.79
-47.17
-53.64
-59.08
-63.28
-65.97
-66.84
-65.69
-62.55
-57.78
-52.06
-46.25
-41.21
-37.59
-35.71
-35.58
-36.86
-39.03
-41.47
-43.55
-44.70
-44.44
-42.55
-39.15
-34.81
-30.38
-26.71
-24.34
-23.27
-23.03
-22.96
-22.54
-21.63
-20.51
-19.57
-19.16
-19.45
-20.43
-22.04
-24.18
-26.71
-29.32
-31.53
-32.82
-32.84
-31.57
-29.38
-26.85
-24.63
-23.25
-23.06
-24.27
-26.97
-31.09
-36.33
-42.19
-48.05
-53.34
-57.71
-61.12
-63.75
-65.87
-67.60
-68.95
-69.87
-70.40
-70.74
-71.11
-71.66
-72.18
-72.22
-71.13
-68.45
-64.13
-58.59
-52.59
-46.94
-42.29
-38.95
-36.93
-35.98
-35.72
-35.68
-35.45
-34.73
-33.45
-31.78
-30.07
-28.68
-27.81
-27.44
-27.37
-27.34
-27.15
-26.84
-26.61
-26.78
-27.70
-29.56
-32.33
-35.70
-39.17
-42.18
-44.31
-45.37
-45.48
-44.89
-43.84
-42.43
-40.68
-38.60
-36.35
-34.30
-32.89
-32.42
-32.87
-33.81
-34.57
-34.51
-33.29
-30.99
-28.13
-25.34
-23.37
-22.91
-24.55
-28.70
-35.39
-43.95
-52.90
-60.10
-63.26
-60.73
-52.07
-38.33
-21.67
-4.68
10.43
22.32
30.60
35.55
37.59
37.00
33.71
27.42
17.94
5.44
-9.32
-24.97
-39.82
-52.23
-61.03
-65.82
-66.91
-65.04
-61.04
-55.43
-48.43
-40.16
-30.88
-21.34
-12.73
-6.31
-2.97
-2.77
-4.89
-7.92
-10.44
-11.47
-10.72
-8.36
-4.71
0.04
5.79
12.28
18.77
24.07
26.93
26.56
23.14
17.78
12.09
7.45
4.57
3.32
3.10
3.33
3.86
5.03
7.44
11.55
17.37
24.45
31.93
38.88
44.54
48.49
50.68
51.34
50.84
49.55
47.75
45.72
43.72
42.03
40.93
40.53
40.72
41.08
41.06
40.17
38.18
35.20
31.59
27.87
24.52
21.88
20.12
19.24
19.13
19.57
20.33
21.17
21.88
22.30
22.40
22.20
21.81
21.36
20.95
20.68
20.62
20.85
21.43
22.41
23.77
25.32
26.79
27.81
28.01
27.17
25.19
22.20
18.57
14.82
11.59
9.44
8.74
9.52
11.51
14.23
17.19
20.01
22.53
24.74
26.68
28.38
29.76
30.67
30.95
30.50
29.39
27.78
25.95
24.17
22.60
21.26
20.09
18.94
17.65
16.12
14.36
12.49
10.76
9.48
8.99
9.50
11.02
13.36
16.19
19.08
21.70
23.80
25.21
25.83
25.66
24.81
23.52
22.13
20.96
20.27
20.12
20.42
21.01
21.65
22.15
22.36
22.09
21.13
19.34
16.68
13.31
9.64
6.20
3.57
2.19
2.27
3.71
6.17
9.14
12.13
14.77
16.85
18.25
18.98
19.07
18.56
17.59
16.41
15.25
14.36
13.78
13.42
13.08
12.55
11.81
10.94
10.06
9.17
8.14
6.75
4.89
2.69
0.59
-0.90
-1.34
-0.56
1.28
3.78
6.47
8.97
10.98
12.33
12.95
12.82
12.06
10.90
9.63
8.57
7.95
7.84
8.15
8.67
9.12
9.26
8.90
7.95
6.39
4.36
2.11
-0.03
-1.64
-2.37
-1.99
-0.49
1.97
5.08
8.42
11.62
14.33
16.34
17.53
17.88
17.43
16.26
14.53
12.41
10.22
8.28
6.85
6.07
5.84
5.90
5.95
5.72
5.05
3.90
2.26
0.26
-1.87
-3.75
-4.93
-5.03
-3.93
-1.78
1.01
3.98
6.75
9.09
10.86
11.97
12.36
12.00
10.96
9.47
7.81
6.22
4.91
3.94
3.30
2.92
2.68
2.40
1.93
1.12
-0.06
-1.50
-3.02
-4.36
-5.31
-5.73
-5.50
-4.58
-3.05
-1.04
1.16
3.24
4.91
6.02
6.54
6.59
6.31
5.82
5.22
4.59
4.03
3.61
3.37
3.26
3.16
2.95
2.56
1.99
1.28
0.43
-0.62
-1.86
-3.21
-4.41
-5.11
-4.96
-3.83
-1.87
0.54
2.90
4.83
6.16
6.96
7.40
7.61
7.63
7.39
6.86
6.11
5.32
4.68
4.30
4.13
4.00
3.71
3.18
2.44
1.54
0.56
-0.50
-1.63
-2.77
-3.74
-4.29
-4.24
-3.56
-2.38
-1.00
0.30
1.35
2.10
2.61
2.99
3.26
3.40
3.30
2.86
2.07
1.04
0.02
-0.72
-1.02
-0.85
-0.39
0.07
0.25
-0.05
-0.87
-2.05
-3.37
-4.54
-5.34
-5.68
-5.56
-5.04
-4.25
-3.29
-2.23
-1.19
-0.29
0.30
0.49
0.25
-0.29
-0.90
-1.35
-1.47
-1.26
-0.85
-0.48
-0.36
-0.58
-1.11
-1.84
-2.64
-3.44
-4.27
-5.17
-6.09
-6.87
-7.26
-7.02
-6.08
-4.59
-2.88
-1.35
-0.32
0.12
0.07
-0.26
-0.67
-1.03
-1.35
-1.70
-2.15
-2.65
-3.14
-3.48
-3.70
-3.94
-4.49
-5.54
-7.05
-8.62
-9.71
-9.87
-9.06
-7.66
-6.35
-5.66
-5.80
-6.47
-7.18
-7.47
-7.17
-6.37
-5.34
-4.42
-3.84
-3.83
-4.51
-5.93
-7.89
-9.99
-11.72
-12.60
-12.46
-11.47
-10.07
-8.75
-7.87
-7.58
-7.88
-8.63
-9.61
-10.56
-11.13
-11.00
-9.97
-8.10
-5.71
-3.19
-0.90
1.06
2.76
4.31
5.71
6.70
6.98
6.31
4.84
2.99
1.38
0.49
0.45
0.98
1.57
1.74
1.21
0.03
-1.62
-3.52
-5.54
-7.62
-9.69
-11.60
-13.15
-14.27
-15.06
-15.82
-16.86
-18.31
-20.04
-21.62
-22.63
-22.88
-22.50
-21.99
-21.89
-22.62
-24.26
-26.69
-29.63
-32.83
-36.03
-38.76
-40.28
-39.71
-36.27
-29.68
-20.16
-8.27
5.43
20.63
37.02
54.05
70.51
84.66
94.79
100.00
100.70
98.47
95.33
92.82
91.36
90.38
88.93
86.50
83.39
80.53
78.88
78.82
79.88
81.10
81.55
80.85
79.14
76.78
73.85
69.91
64.18
56.01
45.44
33.33
21.14
10.28
1.76
-4.05
-7.17
-7.69
-5.60
-0.91
6.11
14.70
23.77
32.30
39.73
46.20
52.17
57.91
63.05
66.50
67.02
63.93
57.53
49.07
40.15
31.96
24.77
18.01
10.67
2.16
-7.37
-17.01
-25.68
-32.77
-38.48
-43.68
-49.20
-55.26
-61.17
-65.74
-68.03
-67.98
-66.50
-64.85
-63.84
-63.36
-62.57
-60.60
-57.40
-54.00
-51.96
-52.48
-55.60
-60.13
-64.32
-66.86
-67.52
-67.16
-67.05
-68.03
-70.04
-72.22
-73.50
-73.20
-71.38
-68.61
-65.64
-62.91
-60.57
-58.52
-56.75
-55.35
-54.35
-53.48
-52.05
-49.25
-44.60
-38.43
-31.96
-26.82
-24.18
-24.04
-25.00
-24.76
-21.13
-13.05
-1.08
12.89
26.34
37.03
43.54
45.44
43.19
37.91
31.19
24.85
20.56
19.39
21.49
25.97
31.25
35.68
38.09
38.11
36.05
32.56
28.24
23.50
18.54
13.57
8.95
5.10
2.43
1.09
0.99
1.84
3.33
5.24
7.43
9.72
11.73
13.01
13.21
12.33
10.83
9.47
8.94
9.45
10.65
11.80
12.12
11.19
9.15
6.48
3.77
1.36
-0.71
-2.64
-4.63
-6.74
-8.83
-10.72
-12.35
-13.84
-15.39
-17.16
-19.14
-21.08
-22.73
-23.98
-24.98
-26.05
-27.52
-29.43
-31.49
-33.18
-34.04
-33.87
-32.90
-31.59
-30.42
-29.64
-29.24
-28.99
-28.67
-28.15
-27.39
-26.32
-24.73
-22.37
-19.16
-15.38
-11.70
-8.97
-7.83
-8.36
-9.99
-11.72
-12.62
-12.14
-10.30
-7.53
-4.34
-1.11
1.93
4.62
6.68
7.83
7.86
6.84
5.11
3.20
1.54
0.33
-0.43
-0.86
-1.05
-0.96
-0.54
0.23
1.19
2.14
2.94
3.51
3.96
4.47
5.12
5.93
6.86
7.86
8.91
10.08
11.42
12.98
14.68
16.23
17.18
16.94
14.90
10.73
4.47
-3.28
-11.61
-19.50
-26.22
-31.49
-35.42
-38.32
-40.39
-41.63
-41.95
-41.39
-40.31
-39.36
-39.20
-40.13
-41.87
-43.57
-44.17
-42.82
-39.21
-33.68
-27.00
-20.06
-13.53
-7.73
-2.72
1.56
5.10
7.82
9.65
10.63
10.98
10.98
10.89
10.82
10.72
10.49
10.09
9.56
8.92
8.22
7.38
6.30
4.99
3.58
2.33
1.56
1.42
1.89
2.80
3.88
4.94
5.81
6.43
6.78
6.92
6.93
6.94
7.06
7.28
7.41
7.15
6.26
4.74
2.85
1.03
-0.35
-1.21
-1.79
-2.53
-3.76
-5.53
-7.59
-9.56
-11.12
-12.16
-12.78
-13.12
-13.24
-13.07
-12.44
-11.23
-9.48
-7.38
-5.26
-3.40
-1.92
-0.78
0.19
1.17
2.29
3.59
4.98
6.38
7.69
8.85
9.80
10.49
10.84
10.80
10.31
9.41
8.14
6.61
4.92
3.23
1.71
0.52
-0.27
-0.72
-1.02
-1.44
-2.17
-3.20
-4.31
-5.22
-5.69
-5.76
-5.72
-5.92
-6.61
-7.73
-8.98
-9.95
-10.38
-10.24
-9.72
-9.05
-8.40
-7.78
-7.19
-6.62
-6.17
-5.93
-5.90
-5.95
-5.79
-5.10
-3.68
-1.55
1.05
3.72
6.06
7.81
8.93
9.58
10.02
10.48
11.07
11.76
12.48
13.20
13.95
14.85
15.91
17.03
17.94
18.28
17.81
16.41
14.21
11.54
8.79
6.33
4.40
3.06
2.22
1.77
1.58
1.62
1.92
2.49
3.28
4.11
4.80
5.23
5.44
5.61
5.91
6.37
6.85
7.10
6.97
6.50
5.94
5.59
5.65
6.09
6.65
7.00
6.95
6.52
5.95
5.56
5.58
6.11
7.02
8.05
8.89
9.36
9.44
9.34
9.34
9.62
10.13
10.63
10.82
10.59
10.05
9.52
9.29
9.44
9.83
10.21
10.37
10.28
10.01
9.60
9.01
8.07
6.73
5.09
3.48
2.31
1.84
2.12
2.89
3.79
4.46
4.72
4.49
3.86
2.95
1.84
0.63
-0.62
-1.80
-2.77
-3.37
-3.48
-3.07
-2.21
-1.15
-0.16
0.43
0.43
-0.21
-1.35
-2.76
-4.25
-5.67
-7.00
-8.21
-9.28
-10.09
-10.52
-10.52
-10.09
-9.33
-8.36
-7.31
-6.23
-5.20
-4.29
-3.55
-3.03
-2.71
-2.62
-2.74
-3.09
-3.63
-4.25
-4.76
-5.01
-4.92
-4.61
-4.30
-4.16
-4.20
-4.21
-3.87
-2.94
-1.39
0.55
2.54
4.27
5.65
6.73
7.69
8.64
9.63
10.60
11.46
12.10
12.46
12.49
12.18
11.61
10.96
10.41
10.09
10.01
10.07
10.10
10.00
9.71
9.21
8.42
7.28
5.81
4.17
2.66
1.63
1.32
1.71
2.54
3.44
4.05
4.21
3.94
3.42
2.86
2.42
2.12
1.82
1.40
0.73
-0.10
-0.90
-1.44
-1.57
-1.39
-1.17
-1.20
-1.65
-2.44
-3.39
-4.29
-5.09
-5.82
-6.59
-7.45
-8.44
-9.65
-11.22
-13.29
-15.88
-18.79
-21.63
-24.07
-26.00
-27.61
-29.32
-31.46
-34.10
-37.09
-40.16
-43.17
-46.14
-49.07
-51.81
-53.92
-54.83
-54.12
-51.75
-48.02
-43.37
-38.09
-32.23
-25.72
-18.77
-12.13
-6.85
-3.86
-3.26
-4.09
-4.54
-2.72
2.41
10.50
19.86
28.08
33.04
33.71
30.44
24.75
18.70
14.18
12.45
13.82
17.73
23.04
28.43
32.86
35.94
37.93
39.62
41.91
45.32
49.79
54.67
59.06
62.21
63.80
64.02
63.32
62.13
60.57
58.41
55.21
50.52
44.17
36.40
27.92
19.78
13.06
8.57
6.57
6.71
7.99
9.15
9.38
8.98
9.91
15.67
30.15
55.81
92.01
134.45
176.27
210.38
231.83
238.74
231.87
213.26
185.39
151.35
115.34
82.61
58.07
44.21
39.79
40.46
41.01
37.89
30.45
20.24
9.28
-1.32
-11.41
-20.79
-28.33
-32.10
-30.50
-23.31
-11.72
2.64
19.09
38.56
63.08
94.32
132.23
174.41
216.72
254.47
283.88
303.01
311.92
312.22
306.09
295.27
280.32
260.65
235.20
203.37
165.85
124.66
82.32
40.75
0.40
-39.81
-81.62
-126.39
-174.40
-224.97
-277.09
-329.59
-380.58
-426.45
-461.64
-480.13
-478.16
-456.79
-422.30
-383.76
-348.88
-320.51
-295.79
-268.31
-231.96
-184.33
-127.74
-67.82
-10.84
38.62
78.58
109.04
130.86
144.69
150.61
148.40
138.20
121.08
99.25
75.67
53.24
34.00
18.75
7.21
-1.44
-8.03
-13.14
-17.15
-20.28
-22.73
-24.79
-27.00
-30.24
-35.58
-43.82
-54.92
-67.77
-80.54
-91.57
-100.23
-107.15
-113.72
-121.02
-129.11
-136.89
-142.76
-145.36
-144.14
-139.28
-131.44
-121.45
-110.20
-98.64
-87.66
-78.02
-70.22
-64.39
-60.44
-57.97
-56.30
-54.49
-51.58
-46.97
-40.82
-34.09
-28.18
-24.18
-22.43
-22.43
-23.39
-24.86
-26.99
-30.37
-35.38
-41.82
-48.87
-55.59
-61.51
-66.91
-72.70
-79.90
-89.15
-100.53
-113.68
-128.14
-143.65
-160.08
-177.18
-194.45
-211.07
-226.21
-239.32
-250.33
-259.51
-267.20
-273.43
-277.87
-280.01
-279.50
-276.44
-271.28
-264.33
-255.19
-242.28
-223.10
-194.88
-155.79
-105.85
-47.19
16.44
80.89
142.70
199.82
251.35
296.95
336.13
368.17
392.41
408.75
417.85
420.83
418.79
412.49
402.48
389.49
374.81
360.15
347.11
336.44
327.62
319.07
308.79
295.21
277.85
257.46
235.70
214.56
195.57
179.41
165.75
153.62
142.05
130.72
120.14
111.44
105.72
103.17
102.70
102.13
99.01
91.68
80.01
65.40
50.08
35.90
23.44
11.81
-0.68
-15.44
-32.75
-51.72
-70.79
-88.72
-105.02
-119.87
-133.56
-146.29
-158.31
-170.29
-183.28
-197.94
-213.28
-225.79
-229.74
-218.69
-187.76
-135.47
-64.61
18.21
103.89
182.74
246.27
288.81
308.48
307.21
289.84
262.48
230.66
198.24
167.24
138.60
112.92
90.49
70.70
51.29
28.71
-0.35
-36.66
-77.15
-115.46
-144.58
-160.14
-162.45
-156.05
-147.10
-140.36
-137.71
-138.65
-141.76
-145.71
-148.84
-148.19
-139.52
-119.15
-86.80
-47.23
-8.92
19.85
35.23
39.55
39.33
40.91
46.71
54.28
58.59
55.68
44.93
28.93
11.14
-6.49
-24.53
-45.25
-70.66
-100.99
-134.37
-167.71
-198.14
-224.19
-246.30
-266.63
-288.06
-312.92
-341.77
-372.73
-402.06
-425.44
-439.51
-442.77
-435.45
-418.46
-392.46
-357.39
-313.05
-260.00
-200.09
-136.08
-70.53
-4.93
60.18
123.66
181.93
228.13
253.54
251.03
219.09
163.89
98.30
37.83
-4.73
-23.24
-18.95
1.87
31.84
66.14
103.50
145.48
194.37
251.45
316.08
385.98
457.47
525.86
585.64
630.46
653.68
649.94
617.25
558.63
482.08
398.46
318.00
246.68
184.75
127.86
70.64
10.28
-51.55
-109.85
-159.24
-196.74
-222.99
-241.15
-254.76
-265.67
-273.67
-277.44
-276.51
-272.47
-268.79
-270.01
-279.91
-300.21
-328.99
-360.71
-388.06
-404.83
-408.35
-399.56
-382.25
-360.05
-335.77
-309.31
-277.82
-237.53
-186.05
-123.99
-54.06
18.84
89.99
153.93
207.52
250.24
282.53
303.40
308.99
295.56
260.87
207.76
140.93
67.43
-5.67
-73.81
-135.05
-189.04
-233.35
-266.24
-268.80
-234.39
-173.87
-110.21
-62.00
-30.86
-13.74
5.43
34.38
70.11
99.92
111.65
103.10
78.74
48.50
22.19
6.72
2.39
6.12
12.22
17.13
20.74
25.03
31.62
39.44
46.10
47.77
42.29
28.91
9.86
-10.01
-25.31
-31.85
-28.55
-16.64
0.61
20.36
40.51
60.28
79.49
97.26
111.68
119.99
120.21
111.95
97.29
79.96
64.23
53.57
49.56
51.73
57.72
64.17
67.43
64.68
54.84
39.06
20.74
4.73
-4.11
-2.65
9.06
27.64
47.65
63.89
73.63
77.47
78.53
80.34
84.79
91.31
97.51
100.94
100.45
96.62
90.98
85.00
79.52
74.85
71.22
69.17
69.15
71.02
73.52
74.39
71.18
62.32
47.98
30.25
12.39
-2.21
-11.29
-14.29
-12.39
-7.90
-3.32
-0.48
0.02
-1.32
-3.17
-4.19
-3.45
-0.67
3.84
9.33
14.84
19.46
22.52
23.83
23.71
22.99
22.82
24.42
28.69
35.78
44.82
53.85
60.31
61.72
56.63
45.30
29.66
12.71
-2.65
-14.60
-22.92
-28.73
-33.72
-39.26
-45.88
-53.26
-60.67
-67.46
-73.35
-78.31
-82.22
-84.53
-84.19
-79.88
-70.57
-55.92
-36.59
-14.22
8.83
29.95
46.69
57.45
61.86
60.98
57.10
52.88
50.45
50.56
52.35
53.66
51.96
45.28
32.80
15.07
-6.25
-28.81
-50.07
-67.63
-79.69
-85.31
-84.68
-79.06
-70.47
-61.15
-52.92
-46.55
-41.55
-36.36
-29.07
-18.38
-4.36
11.33
25.95
36.74
42.07
42.10
38.53
33.71
29.48
26.46
24.04
20.91
16.00
8.96
0.26
-9.13
-18.23
-26.36
-33.30
-39.06
-43.68
-46.98
-48.56
-47.88
-44.59
-38.69
-30.59
-20.86
-9.96
1.83
14.24
26.56
37.36
44.67
46.68
42.70
33.61
21.74
9.94
0.45
-5.83
-9.46
-11.83
-14.41
-18.18
-23.52
-30.34
-38.26
-46.60
-54.38
-60.36
-63.34
-62.54
-57.85
-49.86
-39.53
-27.77
-15.29
-2.63
9.58
20.44
28.86
33.96
35.50
34.09
30.91
27.15
23.48
19.72
14.99
8.24
-1.30
-13.79
-28.96
-46.39
-65.82
-86.98
-109.33
-131.69
-152.17
-168.72
-179.78
-184.81
-184.52
-180.42
-174.36
-168.09
-163.02
-160.03
-159.22
-159.53
-158.62
-153.45
-141.38
-121.28
-93.88
-61.24
-25.68
10.97
47.32
82.11
113.93
141.40
163.95
182.23
197.88
212.64
227.23
240.94
252.25
260.36
266.85
276.06
293.81
324.53
368.25
419.08
466.34
497.94
504.94
484.97
442.97
388.97
333.98
286.10
248.54
219.75
195.21
169.62
138.60
99.93
53.99
3.60
-46.91
-93.16
-132.00
-162.13
-183.68
-197.22
-203.01
-201.03
-191.71
-176.78
-159.25
-142.56
-129.03
-118.83
-109.96
-99.48
-85.12
-66.42
-44.77
-22.52
-2.01
15.05
27.64
35.14
37.35
34.85
29.10
22.12
15.48
9.24
1.56
-10.49
-29.33
-55.27
-86.05
-117.72
-146.29
-169.09
-184.99
-193.77
-195.48
-190.27
-178.86
-163.11
-145.90
-130.46
-119.25
-113.32
-112.31
-115.19
-121.06
-129.25
-138.78
-147.69
-152.91
-151.02
-139.53
-117.93
-87.67
-51.24
-10.80
32.49
78.11
124.92
170.17
209.53
238.28
253.28
254.01
242.23
220.70
191.99
158.14
121.30
84.44
51.26
25.36
9.02
2.55
4.49
12.32
23.16
34.03
41.89
43.96
38.35
24.71
4.42
-19.95
-45.74
-71.08
-95.11
-117.55
-138.04
-155.81
-169.92
-179.45
-183.77
-182.60
-175.94
-164.06
-147.68
-128.10
-107.09
-86.54
-68.14
-53.16
-42.37
-36.23
-34.99
-38.79
-47.66
-61.35
-79.28
-100.35
-122.85
-144.59
-163.23
-176.94
-184.86
-187.26
-185.32
-180.41
-173.49
-165.01
-155.17
-144.43
-133.77
-124.38
-116.89
-110.62
-103.51
-92.71
-75.65
-51.06
-19.33
17.69
57.39
97.04
134.32
167.65
196.46
221.12
242.54
261.58
278.44
292.40
302.23
306.91
306.39
301.76
294.87
287.56
280.90
274.82
268.33
259.93
248.19
232.10
211.24
185.73
156.14
123.47
89.14
55.02
23.26
-4.17
-26.13
-42.77
-55.78
-67.75
-81.31
-98.01
-117.76
-138.85
-158.81
-175.27
-186.77
-193.07
-194.83
-193.14
-188.95
-182.78
-174.79
-165.05
-153.83
-141.68
-129.29
-117.17
-105.50
-94.13
-82.98
-72.25
-62.43
-53.98
-46.91
-40.65
-34.24
-26.91
-18.69
-10.49
-3.62
0.82
2.59
2.38
1.40
0.73
0.78
1.33
1.83
1.84
1.33
0.67
0.31
0.57
1.45
2.72
4.06
5.25
6.20
6.93
7.51
8.03
8.45
8.67
8.49
7.70
6.23
4.29
2.35
1.06
1.03
2.62
5.89
10.59
16.29
22.41
28.36
33.50
37.26
39.27
39.52
38.46
36.83
35.51
35.09
35.79
37.34
39.20
40.80
41.78
42.05
41.75
41.13
40.41
39.72
39.05
38.24
36.94
34.65
30.91
25.54
18.79
11.32
4.00
-2.51
-7.90
-12.25
-15.69
-18.17
-19.42
-19.19
-17.72
-15.87
-14.98
-16.28
-20.28
-26.50
-33.45
-39.33
-42.48
-42.01
-37.90
-30.97
-22.48
-13.73
-5.67
1.28
7.17
12.43
17.65
23.37
29.90
37.15
44.52
50.94
55.11
55.94
52.99
46.68
38.20
29.01
20.31
12.62
5.87
-0.32
-6.22
-11.76
-16.58
-20.23
-22.39
-23.02
-22.35
-20.82
-18.96
-17.19
-15.80
-14.78
-14.00
-13.22
-12.32
-11.41
-10.79
-10.87
-11.88
-13.80
-16.21
-18.43
-19.66
-19.20
-16.53
-11.40
-3.76
6.04
17.08
27.76
35.86
39.11
36.02
26.67
13.04
-1.41
-12.90
-18.65
-17.85
-11.76
-3.08
5.26
11.04
13.25
12.03
8.16
2.68
-3.38
-9.04
-13.38
-15.69
-15.75
-13.94
-11.15
-8.51
-6.90
-6.68
-7.61
-9.03
-10.26
-10.89
-10.80
-10.12
-9.01
-7.48
-5.38
-2.45
1.60
6.83
13.06
19.71
25.87
30.53
32.78
32.13
28.68
23.18
16.88
11.12
6.96
4.88
4.63
5.49
6.53
7.02
6.65
5.47
3.80
2.02
0.45
-0.59
-0.75
0.40
3.23
7.79
13.57
19.52
24.33
26.91
26.88
24.74
21.71
19.27
18.57
20.05
23.48
28.13
33.22
38.23
42.99
47.56
51.98
56.02
59.04
60.19
58.68
54.32
47.80
40.79
35.54
34.23
38.18
47.33
60.02
73.51
84.74
91.22
91.90
87.49
80.14
72.85
68.43
68.39
72.31
77.54
79.38
72.29
51.91
17.50
-26.65
-71.94
-108.37
-128.71
-131.98
-123.90
-114.24
-112.52
-124.37
-150.21
-186.34
-226.84
-265.16
-295.01
-311.19
-310.72
-294.18
-265.82
-232.03
-198.73
-169.42
-144.98
-125.32
-110.84
-102.35
-99.42
-98.22
-91.22
-69.94
-29.31
28.86
95.86
159.43
208.68
237.72
246.65
239.72
222.38
198.81
171.00
139.23
103.35
63.80
21.89
-20.25
-59.96
-94.36
-120.40
-134.91
-134.83
-118.14
-84.99
-39.00
12.88
61.85
99.39
120.01
122.94
112.38
95.76
80.81
72.09
70.38
73.46
77.97
81.41
83.44
85.68
90.23
97.85
105.78
110.12
108.05
99.30
86.06
71.60
58.59
47.99
38.77
26.80
9.07
-14.38
-40.82
-66.93
-90.87
-112.72
-134.01
-156.70
-184.58
-218.28
-253.88
-284.22
-302.43
-305.41
-294.33
-273.55
-232.08
-167.91
-88.50
-7.01
66.38
127.79
176.17
211.47
234.28
246.12
247.10
239.04
225.33
209.57
193.79
177.56
158.26
134.29
105.61
71.61
33.39
-6.60
-45.64
-77.07
-100.66
-118.34
-132.15
-143.72
-155.55
-168.89
-182.94
-194.28
-197.86
-189.76
-167.97
-134.11
-93.82
-55.62
-26.81
-10.60
-5.43
-6.65
-10.18
-13.38
-15.50
-16.97
-18.12
-18.12
-15.48
-9.43
0.13
11.10
20.99
27.73
30.74
30.79
29.79
29.44
30.44
32.27
33.11
31.26
25.89
17.58
8.06
-0.02
-4.76
-5.74
-3.99
-1.67
-0.78
-2.14
-5.01
-7.59
-7.22
-2.42
6.60
18.13
29.98
40.80
51.19
64.01
78.96
97.52
120.53
148.16
180.09
215.43
251.83
284.64
307.26
313.20
300.09
271.14
234.88
201.65
178.92
168.25
165.50
164.10
159.11
150.03
139.40
130.12
122.80
115.17
103.72
86.48
64.98
44.11
30.41
28.66
39.57
59.06
79.76
94.01
96.88
88.05
71.44
53.08
37.95
28.03
22.05
17.11
10.68
1.97
-7.91
-17.02
-23.84
-28.27
-31.62
-36.07
-43.73
-55.76
-72.13
-91.97
-114.18
-138.05
-163.47
-190.45
-218.49
-246.20
-271.74
-293.96
-313.38
-332.30
-353.49
-377.95
-403.42
-424.54
-434.92
-429.95
-408.87
-374.59
-331.84
-284.93
-236.57
-188.21
-141.30
-97.85
-59.95
-28.52
-2.39
21.27
45.41
71.40
98.37
123.66
144.22
157.75
163.10
160.15
149.54
132.49
110.93
87.03
62.77
39.30
17.06
-3.53
-21.30
-34.29
-40.66
-39.93
-33.72
-25.27
-17.85
-13.08
-10.16
-6.56
0.44
12.37
29.20
49.90
73.33
98.48
124.30
149.24
171.48
189.60
203.31
213.75
222.96
232.88
244.36
256.94
269.10
279.08
285.54
288.01
286.80
282.63
276.10
267.22
255.20
238.65
216.25
187.41
152.85
114.39
74.39
34.80
-3.41
-40.31
-76.70
-113.77
-152.93
-195.90
-244.61
-300.64
-364.06
-432.27
-499.56
-558.05
-599.76
-619.24
-615.38
-591.51
-553.92
-509.39
-463.06
-417.50
-373.17
-329.59
-286.34
-243.57
-201.68
-161.08
-121.97
-84.65
-49.75
-18.41
8.10
28.89
43.86
53.98
60.90
66.42
71.94
78.18
85.14
92.52
100.09
108.12
117.70
130.67
149.18
174.62
206.27
240.48
270.96
290.27
292.21
273.99
237.02
186.38
128.81
70.76
16.82
-30.59
-70.82
-104.18
-131.23
-152.36
-167.78
-177.48
-181.59
-180.70
-176.05
-169.53
-163.20
-158.63
-156.37
-155.80
-155.32
-152.94
-146.63
-134.80
-116.41
-91.35
-60.60
-26.37
8.24
40.06
66.82
88.11
105.49
121.79
139.75
160.52
182.86
203.34
217.54
221.64
213.73
194.07
164.45
126.92
83.08
34.14
-18.19
-70.40
-116.82
-150.72
-166.63
-162.83
-142.52
-112.90
-82.60
-58.47
-43.58
-37.16
-35.88
-35.59
-32.60
-24.14
-8.48
14.64
43.43
73.65
99.43
115.19
117.98
108.80
92.50
75.92
65.33
64.03
71.17
82.26
91.30
93.62
88.24
78.79
72.27
76.00
94.27
126.14
165.40
202.92
230.09
241.78
237.77
222.03
200.74
180.01
164.03
154.16
149.09
145.76
140.94
132.54
120.35
105.87
91.51
79.58
71.28
66.26
62.81
58.85
53.01
45.79
39.98
40.04
50.48
73.67
108.16
148.23
185.14
209.68
215.08
199.14
164.95
119.81
72.83
32.20
2.92
-14.10
-21.51
-23.77
-25.19
-28.40
-33.88
-40.36
-45.54
-47.02
-42.94
-32.57
-16.50
3.21
23.30
39.92
49.44
49.34
38.68
18.38
-8.98
-39.58
-69.22
-94.36
-113.16
-126.11
-135.72
-145.49
-158.31
-175.26
-195.31
-215.96
-234.33
-248.27
-256.84
-260.27
-259.48
-255.56
-249.49
-241.90
-232.90
-222.14
-208.81
-192.00
-171.06
-146.11
-118.34
-89.74
-62.55
-38.70
-19.28
-4.63
5.27
10.55
11.53
9.22
5.68
3.72
5.66
12.09
21.19
29.46
33.49
31.65
24.70
15.02
5.11
-3.49
-9.97
-13.35
-12.01
-4.23
10.59
30.65
52.08
70.42
82.75
88.80
90.52
90.57
90.97
92.55
95.54
100.41
108.21
120.23
137.13
158.32
181.77
204.37
222.43
232.70
233.51
225.73
213.12
201.42
196.28
200.87
214.19
230.88
242.85
241.92
222.65
184.14
130.30
68.55
7.43
-45.68
-86.18
-112.41
-125.02
-126.01
-118.12
-104.99
-91.27
-82.17
-82.18
-93.35
-114.15
-139.85
-164.31
-182.41
-191.86
-193.52
-190.28
-185.35
-180.91
-177.42
-174.04
-169.31
-162.16
-152.42
-140.93
-129.22
-118.74
-110.29
-103.58
-97.37
-89.96
-79.75
-65.86
-48.64
-29.92
-12.75
-0.63
3.80
-0.13
-10.78
-24.70
-38.00
-47.75
-52.70
-53.02
-49.30
-41.64
-29.27
-10.95
14.42
47.56
89.08
139.55
198.98
265.62
334.85
399.15
449.85
479.84
485.94
469.65
436.39
393.68
349.51
311.05
283.71
270.12
269.11
275.56
281.69
279.70
264.68
236.26
198.07
155.38
112.54
71.41
31.59
-8.23
-48.98
-90.70
-132.79
-174.49
-214.97
-253.07
-287.37
-316.31
-338.43
-352.83
-359.29
-358.08
-349.65
-334.48
-313.12
-286.69
-257.15
-227.24
-199.83
-177.01
-159.41
-145.80
-133.36
-118.32
-97.08
-67.28
-28.39
17.95
68.20
117.44
160.61
193.86
215.34
224.96
223.47
211.47
189.27
157.37
117.11
71.44
24.90
-17.17
-50.40
-72.69
-84.33
-87.07
-80.50
-63.83
-37.40
-3.87
32.74
68.40
99.68
123.72
138.17
141.75
135.43
120.42
98.76
73.33
46.78
20.25
-7.04
-37.57
-74.35
-121.03
-176.33
-238.94
-306.27
-373.68
-434.10
-478.71
-499.87
-493.98
-463.89
-418.39
-369.17
-325.39
-290.30
-261.22
-232.41
-200.23
-164.92
-130.41
-101.56
-81.69
-70.84
-66.73
-67.05
-67.88
-68.92
-71.73
-77.95
-87.74
-99.61
-111.00
-119.51
-125.56
-129.31
-132.57
-137.23
-144.14
-152.48
-160.18
-164.38
-163.05
-155.29
-141.22
-122.50
-101.03
-78.33
-55.33
-32.49
-10.13
11.20
30.69
47.56
60.64
69.22
73.33
73.69
71.44
67.85
63.95
60.42
57.63
55.33
53.14
50.60
47.37
43.22
38.07
31.97
25.08
17.75
10.20
2.63
-4.82
-12.02
-18.76
-24.75
-29.54
-32.61
-33.41
-31.62
-27.13
-20.04
-10.64
0.84
14.25
29.58
46.84
65.91
86.51
108.13
130.22
152.45
174.70
197.12
220.00
243.64
268.32
294.56
323.30
355.57
391.68
430.48
468.93
502.71
527.51
540.43
540.87
530.40
511.65
486.79
456.83
421.80
381.90
338.57
294.54
252.55
213.71
176.45
137.14
92.46
41.90
-11.22
-60.95
-101.82
-132.10
-154.68
-175.28
-198.80
-226.41
-255.08
-279.43
-294.69
-298.63
-291.43
-274.10
-246.85
-208.84
-159.61
-101.14
-38.98
18.62
63.46
90.56
100.12
97.31
89.72
83.81
82.05
82.39
80.30
72.19
58.20
42.43
30.38
25.44
26.47
28.25
24.63
12.43
-6.39
-25.58
-37.94
-39.32
-30.80
-17.84
-7.10
-2.60
-3.49
-4.78
-0.24
13.85
36.15
60.29
77.94
83.01
74.70
57.75
39.52
26.05
19.22
16.80
14.86
10.84
4.87
-1.15
-5.76
-9.42
-14.26
-22.28
-33.45
-45.27
-54.23
-57.97
-56.60
-52.48
-48.61
-47.08
-48.50
-52.18
-56.86
-61.35
-64.76
-66.63
-66.86
-65.60
-62.60
-56.89
-46.38
-28.48
-1.40
34.28
74.96
114.95
148.65
173.04
188.42
197.34
202.36
204.21
201.64
193.11
178.78
161.39
145.29
133.64
126.52
120.89
112.58
98.67
78.97
55.44
30.32
4.72
-22.18
-51.91
-84.96
-119.61
-152.19
-178.43
-194.91
-202.62
-202.73
-197.09
-187.87
-177.07
-166.24
-156.31
-147.43
-139.08
-130.40
-120.75
-110.27
-99.93
-91.23
-85.46
-83.57
-86.24
-93.79
-105.10
-117.45
-125.74
-123.89
-107.73
-78.05
-41.44
-8.47
10.70
10.81
-6.27
-32.80
-59.23
-78.72
-89.74
-95.80
-102.89
-116.32
-136.69
-161.90
-187.77
-209.68
-224.02
-228.45
-221.22
-200.58
-165.14
-115.42
-56.02
4.44
55.52
89.38
104.98
109.83
116.76
138.00
178.60
233.23
288.72
330.02
346.54
335.89
304.10
261.24
217.16
178.21
146.25
120.18
97.72
76.35
53.28
25.77
-9.88
-55.88
-111.60
-172.32
-229.29
-272.26
-293.39
-290.51
-267.23
-231.69
-190.87
-149.19
-107.51
-63.13
-12.45
48.73
113.20
173.83
221.46
251.53
262.42
255.29
234.91
207.34
177.01
146.89
116.40
84.57
56.22
35.26
21.89
14.12
7.47
-4.65
-26.78
-64.82
-121.57
-190.08
-262.54
-332.84
-393.77
-438.86
-465.01
-451.26
-389.74
-316.75
-249.08
-180.47
-107.01
-25.48
69.85
162.81
245.79
306.22
336.23
341.31
330.99
313.61
295.93
280.50
264.51
245.69
218.80
182.01
141.22
101.67
64.65
29.39
-6.72
-47.63
-94.65
-150.08
-213.32
-278.05
-336.94
-383.79
-413.54
-423.91
-416.88
-396.49
-369.68
-342.28
-315.86
-289.40
-260.84
-227.89
-188.96
-143.67
-91.63
-33.58
28.64
91.61
149.17
193.21
216.47
215.58
192.31
152.87
105.05
56.06
11.05
-26.55
-54.29
-69.74
-70.49
-55.28
-25.36
14.97
58.85
98.22
125.45
135.20
126.65
104.60
77.98
56.35
46.00
47.67
57.30
68.52
75.94
74.63
63.11
44.03
22.34
1.70
-17.45
-35.94
-52.78
-65.94
-71.75
-66.60
-49.34
-22.19
10.29
41.74
68.50
90.31
109.45
128.80
149.83
171.16
188.90
198.44
196.65
183.56
161.98
136.21
111.25
92.18
83.64
89.02
109.01
140.56
177.07
209.91
231.26
236.95
227.84
208.39
183.60
156.30
126.20
90.90
47.87
-3.12
-58.53
-111.03
-151.73
-173.87
-176.58
-166.54
-155.84
-156.49
-173.76
-202.12
-226.65
-229.92
-201.18
-142.55
-69.07
-2.30
38.53
43.78
15.29
-36.30
-96.70
-152.47
-193.24
-212.18
-205.42
-172.19
-115.78
-44.18
30.76
96.24
142.93
168.66
179.26
185.96
200.28
229.02
271.59
320.81
366.43
399.20
413.73
408.97
387.09
351.87
307.63
258.71
209.21
162.58
121.06
85.59
55.80
30.57
8.43
-12.02
-32.00
-52.26
-72.98
-93.63
-113.38
-131.68
-148.58
-165.13
-183.11
-204.51
-231.01
-263.88
-304.27
-353.08
-410.37
-474.05
-538.89
-596.83
-638.91
-658.38
-653.19
-626.83
-586.65
-540.93
-495.88
-454.47
-416.98
-382.72
-351.34
-323.18
-298.61
-277.22
-257.61
-237.96
-217.05
-194.78
-172.17
-150.87
-132.15
-116.34
-102.76
-90.02
-76.70
-61.96
-45.68
-28.47
-11.27
5.06
20.07
33.89
47.35
61.81
78.64
98.36
119.63
139.18
152.75
156.60
148.92
130.33
103.40
71.55
38.40
7.49
-17.44
-32.35
-33.61
-19.25
9.82
49.78
95.01
140.25
182.42
221.35
259.14
298.78
342.98
393.44
450.40
512.29
575.49
634.27
681.40
709.56
713.32
690.74
643.94
578.30
500.93
418.93
338.37
264.20
200.42
150.08
114.81
94.23
85.95
86.16
90.84
96.58
100.89
101.94
97.98
87.06
67.47
38.72
2.62
-36.31
-71.64
-97.07
-108.96
-108.22
-100.22
-92.82
-93.19
-104.82
-126.32
-152.29
-175.90
-191.73
-197.38
-193.58
-182.97
-168.67
-153.37
-138.90
-126.37
-116.28
-108.51
-102.36
-96.71
-90.36
-82.50
-72.97
-62.36
-51.80
-42.73
-36.56
-34.25
-35.86
-40.16
-44.64
-46.02
-41.26
-28.79
-9.41
13.63
35.71
52.42
61.14
61.88
56.81
49.03
41.15
34.33
28.29
21.99
14.68
6.45
-1.74
-8.69
-13.68
-16.93
-19.54
-22.92
-28.09
-35.29
-44.03
-53.57
-63.30
-72.79
-81.38
-87.75
-89.89
-85.84
-74.78
-57.96
-38.69
-21.28
-9.37
-4.52
-5.84
-10.55
-15.38
-17.83
-16.80
-12.62
-6.56
-0.06
5.81
10.82
15.81
22.35
32.00
45.31
61.10
76.40
87.33
90.49
84.29
69.71
50.11
30.39
15.51
9.10
12.34
23.63
39.09
53.95
64.05
67.06
62.77
52.51
38.11
21.14
2.77
-15.80
-32.80
-46.03
-53.60
-54.92
-51.21
-45.14
-39.63
-36.54
-35.82
-35.84
-34.37
-29.97
-22.79
-14.55
-7.55
-3.56
-2.94
-4.59
-6.69
-7.65
-6.86
-4.81
-2.75
-1.92
-3.04
-6.03
-10.19
-14.47
-17.84
-19.60
-19.46
-17.52
-14.28
-10.49
-7.08
-5.04
-5.09
-7.35
-11.10
-14.80
-16.63
-15.18
-10.15
-2.65
5.18
10.95
12.94
10.69
4.96
-2.73
-10.74
-17.80
-23.23
-27.00
-29.53
-31.45
-33.20
-34.74
-35.57
-35.07
-32.99
-29.84
-26.66
-24.49
-23.71
-23.78
-23.57
-22.01
-18.84
-14.64
-10.58
-7.87
-7.37
-9.49
-14.18
-20.90
-28.54
-35.45
-39.67
-39.60
-34.55
-25.04
-12.60
0.86
13.60
24.27
31.98
36.21
36.84
34.35
29.87
24.91
20.82
18.30
17.14
16.54
15.57
13.73
11.15
8.32
5.64
3.06
0.11
-3.69
-8.33
-12.92
-15.78
-14.90
-8.73
3.05
19.16
36.71
51.87
60.72
60.34
49.79
30.73
7.24
-15.05
-30.68
-36.05
-30.59
-16.70
1.47
19.73
35.27
47.03
55.22
60.33
62.42
60.95
55.11
44.46
29.33
10.92
-8.80
-27.50
-42.89
-53.18
-57.50
-56.10
-50.25
-41.85
-32.73
-24.24
-16.95
-10.76
-5.16
0.43
6.56
13.71
22.06
31.46
41.08
49.47
54.87
55.86
52.12
44.82
36.31
29.26
25.59
25.79
28.74
32.19
33.47
30.38
21.85
8.40
-7.83
-23.67
-35.87
-42.29
-42.67
-38.68
-33.04
-28.47
-26.76
-28.47
-33.10
-39.53
-46.20
-51.29
-52.98
-49.92
-41.92
-30.29
-17.59
-6.83
-0.36
0.94
-2.15
-7.74
-13.62
-18.13
-20.55
-21.10
-20.38
-18.89
-16.71
-13.48
-8.83
-2.88
3.42
8.43
10.47
8.84
4.42
-0.30
-2.11
1.41
10.69
23.62
36.20
43.93
43.57
34.19
17.40
-3.29
-23.76
-40.45
-51.29
-55.99
-55.93
-53.59
-51.83
-52.87
-57.44
-64.52
-71.79
-76.77
-78.15
-76.57
-74.15
-73.25
-74.93
-78.21
-80.50
-78.98
-72.01
-59.95
-44.77
-29.09
-15.23
-4.74
1.55
3.19
-0.03
-7.88
-19.40
-32.76
-45.45
-54.85
-58.99
-57.25
-50.53
-40.91
-30.84
-22.16
-15.34
-9.44
-2.67
6.67
19.45
35.27
52.68
69.59
83.95
94.16
99.39
99.75
96.23
90.43
84.06
78.39
73.93
70.42
67.13
63.39
58.93
53.90
48.68
43.71
39.32
35.77
33.39
32.49
33.16
35.12
37.65
39.82
41.00
41.14
40.97
41.71
44.64
50.61
59.53
70.39
81.43
90.73
96.86
99.31
98.49
95.38
90.88
85.36
78.77
71.02
62.53
54.39
47.89
43.88
42.21
41.71
40.82
38.41
34.28
29.09
23.86
19.35
15.62
12.06
7.84
2.33
-4.52
-12.30
-20.47
-28.79
-37.46
-46.89
-57.18
-67.81
-77.60
-85.17
-89.57
-90.75
-89.52
-87.21
-85.01
-83.58
-83.07
-83.38
-84.52
-86.69
-90.12
-94.77
-100.29
-106.12
-111.80
-117.28
-122.90
-129.11
-135.96
-142.91
-148.86
-152.36
-151.88
-145.81
-132.22
-109.28
-76.06
-33.59
14.67
63.50
107.55
143.22
169.61
188.06
200.62
208.41
211.16
207.87
198.21
183.31
165.46
146.91
128.75
110.68
91.81
71.88
51.95
34.16
20.74
12.97
10.75
12.83
17.79
25.05
35.06
48.84
67.23
90.04
115.78
141.95
165.59
183.90
194.73
196.90
190.29
175.69
154.40
127.69
96.58
61.76
23.85
-16.22
-56.90
-96.00
-131.02
-159.67
-180.69
-194.56
-204.02
-213.79
-229.15
-253.72
-287.15
-324.00
-354.89
-369.46
-359.90
-323.54
-263.32
-186.47
-102.46
-21.07
48.81
100.04
128.18
132.64
117.30
90.13
61.42
41.10
36.33
50.06
80.88
123.83
171.71
216.26
249.86
266.77
264.39
243.77
209.03
165.70
118.98
72.18
26.27
-19.42
-65.69
-112.04
-155.61
-191.25
-212.73
-214.56
-193.64
-150.10
-86.97
-9.38
76.20
162.43
241.12
303.68
342.30
351.85
331.47
285.00
219.76
144.17
65.50
-11.20
-82.17
-143.92
-192.70
-225.66
-242.72
-247.78
-247.86
-250.34
-259.81
-276.37
-296.31
-314.63
-327.71
-334.53
-335.88
-332.47
-323.26
-305.50
-276.19
-234.38
-182.62
-126.65
-73.36
-28.39
5.72
29.88
47.25
61.34
74.32
86.37
96.25
102.58
105.24
105.59
106.09
108.97
115.33
124.87
136.27
148.00
158.96
168.69
177.23
184.68
190.92
195.57
198.08
197.99
195.05
189.25
180.80
170.10
157.90
145.15
132.97
122.38
113.99
107.81
103.25
99.33
95.04
89.59
82.39
73.07
61.35
47.13
30.69
13.00
-4.21
-18.64
-28.09
-31.12
-27.63
-19.18
-8.55
0.75
5.59
4.08
-3.84
-16.50
-31.05
-44.34
-53.70
-57.40
-54.84
-46.72
-34.96
-22.56
-12.88
-8.80
-11.72
-21.11
-34.66
-49.12
-61.42
-69.58
-72.98
-72.11
-68.23
-62.82
-57.34
-52.99
-50.47
-49.87
-50.76
-52.36
-53.78
-54.27
-53.40
-51.20
-48.24
-45.41
-43.59
-43.24
-44.21
-45.94
-47.85
-49.74
-51.80
-54.40
-57.59
-60.94
-63.69
-65.07
-64.69
-62.59
-59.09
-54.52
-49.15
-43.29
-37.49
-32.49
-28.89
-26.94
-26.29
-26.20
-25.97
-25.40
-24.91
-25.27
-27.16
-30.71
-35.46
-40.50
-44.92
-48.05
-49.52
-49.18
-47.06
-43.36
-38.64
-33.68
-29.31
-25.92
-23.26
-20.46
-16.37
-10.23
-2.07
7.28
16.57
24.75
31.41
36.66
40.75
43.44
43.84
40.72
33.40
22.53
10.10
-1.24
-9.60
-14.87
-18.88
-24.37
-33.53
-46.78
-62.59
-78.21
-90.87
-98.83
-101.82
-100.89
-98.18
-96.38
-98.30
-106.04
-120.00
-137.95
-154.90
-163.91
-158.21
-133.65
-90.84
-35.72
21.74
71.09
105.39
124.01
132.63
140.15
153.83
175.44
200.74
222.45
234.86
236.92
232.06
225.08
218.43
210.65
198.06
178.10
151.74
123.19
97.14
75.76
57.29
37.45
12.54
-17.98
-51.00
-81.41
-104.85
-119.69
-127.25
-130.41
-132.10
-134.05
-136.65
-139.69
-142.99
-146.64
-150.76
-154.97
-158.23
-159.13
-156.53
-150.22
-141.26
-131.52
-122.93
-116.75
-113.21
-111.65
-111.00
-110.37
-109.36
-108.12
-106.95
-105.82
-104.01
-100.23
-92.96
-81.33
-65.62
-47.51
-29.66
-14.91
-5.31
-1.38
-1.84
-4.06
-5.00
-2.22
5.27
16.78
30.43
43.90
55.35
64.03
70.36
75.64
81.68
90.27
102.93
120.68
143.95
172.72
206.62
245.08
287.19
331.31
374.60
412.83
441.10
455.00
451.97
432.02
397.61
352.72
301.71
248.27
195.05
143.56
94.49
48.20
5.06
-34.19
-68.10
-94.78
-112.29
-119.27
-115.47
-101.96
-80.93
-55.23
-27.96
-2.01
20.12
36.57
46.22
48.84
45.09
36.52
25.31
13.91
4.46
-1.89
-5.25
-6.83
-8.37
-11.35
-16.39
-23.14
-30.61
-37.71
-43.66
-48.19
-51.42
-53.67
-55.37
-56.91
-58.63
-60.70
-63.05
-65.31
-66.93
-67.38
-66.40
-64.19
-61.40
-58.91
-57.54
-57.72
-59.41
-62.23
-65.80
-69.91
-74.64
-80.11
-86.22
-92.59
-98.68
-104.15
-109.12
-114.14
-119.84
-126.52
-133.77
-140.60
-145.76
-148.26
-147.70
-144.28
-138.55
-131.11
-122.40
-112.66
-102.06
-90.78
-79.17
-67.79
-57.43
-49.11
-43.88
-42.36
-44.20
-47.71
-50.05
-48.27
-40.56
-27.29
-10.95
5.02
17.92
27.04
33.74
40.38
48.90
60.07
73.48
88.25
103.74
119.64
135.45
150.13
162.29
170.91
176.19
180.05
185.39
194.81
209.05
226.33
242.68
253.31
254.39
244.27
223.81
195.72
163.37
129.80
97.36
68.04
43.85
26.88
18.65
18.98
25.39
33.41
38.11
36.01
26.38
11.06
-6.86
-24.74
-41.43
-57.13
-72.36
-86.91
-99.73
-109.41
-115.06
-116.67
-115.03
-111.23
-106.41
-101.88
-99.25
-100.19
-105.61
-114.97
-126.25
-137.05
-145.92
-153.35
-161.47
-172.56
-187.41
-204.49
-220.55
-232.35
-238.37
-239.70
-239.38
-240.81
-246.00
-254.48
-263.31
-268.36
-265.94
-254.11
-233.15
-205.03
-172.01
-135.34
-94.93
-50.15
-1.53
47.94
92.64
126.02
143.20
143.31
130.21
111.24
94.67
87.02
91.81
109.57
138.85
177.24
221.90
269.61
316.57
358.64
391.64
412.01
417.27
406.23
378.91
336.20
279.91
213.34
142.09
74.46
20.38
-11.29
-16.08
3.69
38.95
76.79
104.89
115.61
107.76
85.49
55.49
23.97
-4.87
-28.99
-47.63
-60.44
-67.31
-68.59
-65.37
-59.49
-53.22
-48.54
-46.52
-46.92
-48.32
-48.81
-46.93
-42.47
-36.63
-31.48
-28.94
-29.93
-34.01
-39.76
-45.48
-50.03
-53.06
-54.94
-56.36
-57.94
-59.96
-62.39
-64.97
-67.19
-68.48
-68.22
-66.03
-62.02
-56.80
-51.33
-46.49
-42.56
-38.93
-34.17
-26.49
-14.48
2.18
22.36
43.63
62.95
77.51
85.72
87.55
84.49
78.90
73.22
69.17
67.25
66.70
65.79
62.51
55.26
43.57
28.38
11.88
-3.15
-14.35
-20.53
-22.02
-20.34
-17.41
-14.77
-13.07
-12.10
-11.14
-9.52
-6.91
-3.45
0.55
4.84
9.56
15.24
22.55
31.98
43.41
56.04
68.44
78.86
85.64
87.57
84.11
75.43
62.25
45.68
27.10
8.10
-9.57
-24.16
-34.27
-39.20
-39.13
-35.07
-28.50
-20.93
-13.45
-6.76
-1.26
2.87
5.64
7.53
9.66
13.62
21.03
32.83
48.94
68.12
88.34
107.40
123.48
135.42
142.79
145.62
144.51
140.55
135.30
130.40
127.15
126.13
126.97
128.53
129.01
126.15
117.48
100.54
73.24
34.27
-16.35
-77.01
-144.19
-212.89
-277.22
-331.54
-371.54
-395.17
-402.97
-397.96
-384.86
-368.86
-354.39
-344.05
-338.09
-334.52
-329.60
-319.06
-299.26
-268.11
-225.35
-172.27
-111.03
-44.10
25.75
95.47
161.53
220.08
267.43
300.57
317.42
317.05
299.50
265.83
218.16
159.81
95.11
29.08
-33.28
-87.67
-131.16
-162.63
-182.75
-193.51
-197.76
-198.39
-197.83
-197.49
-197.44
-196.20
-190.89
-178.07
-155.10
-121.26
-78.21
-29.26
22.43
75.68
131.83
193.40
261.21
331.77
396.72
444.93
466.64
457.36
419.71
362.30
296.39
232.09
175.92
130.21
94.31
66.29
44.11
26.12
10.96
-2.62
-15.61
-28.45
-40.97
-52.57
-62.48
-70.04
-74.91
-77.03
-76.66
-74.37
-71.10
-68.14
-66.73
-67.56
-70.24
-73.28
-74.54
-72.29
-66.04
-56.96
-47.38
-39.77
-35.69
-35.24
-37.36
-40.56
-43.70
-46.30
-48.36
-49.97
-50.94
-50.89
-49.49
-46.78
-43.21
-39.46
-36.12
-33.46
-31.40
-29.68
-27.98
-26.08
-23.94
-21.75
-19.92
-19.08
-19.82
-22.44
-26.62
-31.43
-35.65
-38.16
-38.38
-36.40
-32.85
-28.65
-24.72
-21.86
-20.64
-21.30
-23.72
-27.34
-31.20
-34.20
-35.34
-34.15
-30.76
-25.90
-20.61
-15.82
-12.04
-9.17
-6.67
-3.90
-0.64
2.74
5.32
6.21
5.03
2.24
-1.01
-3.39
-4.03
-2.82
-0.44
2.04
3.63
3.77
2.52
0.38
-1.97
-3.89
-5.01
-5.28
-4.85
-3.99
-2.94
-1.90
-1.04
-0.46
-0.21
-0.19
-0.07
0.58
2.14
4.68
7.84
10.89
13.02
13.67
12.72
10.49
7.58
4.57
1.87
-0.48
-2.74
-5.34
-8.65
-12.73
-17.30
-21.78
-25.66
-28.76
-31.39
-34.06
-37.19
-40.69
-44.01
-46.38
-47.32
-46.77
-45.02
-42.35
-38.72
-33.84
-27.58
-20.30
-12.83
-5.99
0.15
6.61
15.17
27.47
43.93
63.39
83.41
101.38
115.47
125.16
130.92
133.53
133.40
130.46
124.41
115.27
103.67
90.79
77.92
66.13
56.06
47.91
41.60
36.74
32.70
28.66
23.76
17.34
9.21
-0.33
-10.56
-20.69
-30.02
-38.13
-44.79
-49.82
-53.12
-54.68
-54.70
-53.55
-51.80
-49.95
-48.38
-47.28
-46.74
-46.77
-47.29
-48.10
-48.81
-48.90
-47.91
-45.57
-41.97
-37.42
-32.32
-26.98
-21.51
-15.99
-10.58
-5.60
-1.45
1.54
3.23
3.71
3.22
2.03
0.41
-1.41
-3.13
-4.32
-4.64
-3.88
-2.22
-0.22
1.27
1.48
0.02
-2.96
-6.72
-10.21
-12.45
-12.86
-11.44
-8.68
-5.34
-2.04
0.87
3.47
5.97
8.58
11.27
13.77
15.68
16.69
16.69
15.83
14.42
12.85
11.40
10.23
9.36
8.70
8.13
7.55
6.93
6.32
5.77
5.31
4.94
4.58
4.07
3.31
2.27
1.10
0.03
-0.71
-1.00
-0.90
-0.55
-0.05
0.70
1.92
3.79
6.19
8.68
10.59
11.40
10.98
9.75
8.38
7.49
7.29
7.55
7.80
7.69
7.19
6.60
6.32
6.59
7.30
8.10
8.55
8.35
7.47
6.14
4.63
3.14
1.69
0.23
-1.26
-2.61
-3.51
-3.57
-2.55
-0.49
2.31
5.38
8.25
10.64
12.47
13.87
14.97
15.85
16.49
16.75
16.48
15.58
14.02
11.87
9.23
6.23
3.04
-0.14
-3.00
-5.28
-6.79
-7.49
-7.60
-7.45
-7.42
-7.79
-8.67
-9.94
-11.31
-12.38
-12.79
-12.31
-10.96
-9.02
-6.88
-4.84
-3.07
-1.45
0.10
1.62
2.96
3.88
4.32
4.41
4.51
4.95
5.80
6.80
7.47
7.44
6.63
5.39
4.21
3.52
3.40
3.59
3.67
3.29
2.40
1.13
-0.23
-1.44
-2.44
-3.24
-3.86
-4.22
-4.13
-3.38
-1.92
0.09
2.31
4.29
5.68
6.30
6.16
5.46
4.55
3.78
3.43
3.68
4.40
5.33
6.09
6.36
6.03
5.24
4.28
3.45
2.89
2.58
2.40
2.21
1.98
1.73
1.45
1.08
0.51
-0.31
-1.27
-2.12
-2.57
-2.49
-1.90
-1.04
-0.10
0.80
1.66
2.49
3.19
3.59
3.49
2.88
2.01
1.24
0.91
1.11
1.63
2.16
2.46
2.57
2.74
3.24
4.11
5.07
5.68
5.57
4.72
3.40
2.06
0.95
0.04
-0.95
-2.21
-3.67
-4.86
-5.18
-4.22
-2.02
0.96
4.01
6.54
8.31
9.39
9.99
10.28
10.21
9.64
8.40
6.50
4.15
1.69
-0.51
-2.26
-3.51
-4.39
-5.02
-5.41
-5.48
-5.09
-4.21
-3.03
-1.92
-1.30
-1.43
-2.30
-3.62
-4.96
-5.96
-6.47
-6.51
-6.15
-5.46
-4.42
-2.98
-1.21
0.61
2.11
2.93
2.89
2.11
0.95
-0.18
-0.99
-1.44
-1.67
-1.91
-2.33
-2.94
-3.62
-4.21
-4.62
-4.84
-4.95
-5.05
-5.20
-5.40
-5.63
-5.91
-6.35
-7.10
-8.26
-9.75
-11.23
-12.22
-12.26
-11.15
-9.04
-6.38
-3.74
-1.57
-0.06
0.82
1.25
1.38
1.34
1.17
0.90
0.55
0.17
-0.18
-0.45
-0.64
-0.75
-0.91
-1.20
-1.72
-2.46
-3.37
-4.29
-5.12
-5.86
-6.55
-7.30
-8.15
-9.13
-10.15
-11.12
-11.94
-12.52
-12.83
-12.91
-12.87
-12.88
-13.09
-13.62
-14.58
-16.01
-17.94
-20.39
-23.30
-26.48
-29.60
-32.38
-34.65
-36.56
-38.43
-40.73
-43.71
-47.39
-51.44
-55.39
-58.73
-61.00
-61.96
-61.47
-59.63
-56.79
-53.36
-49.57
-45.09
-38.95
-29.89
-16.97
-0.19
19.33
39.72
59.07
76.06
90.21
101.64
110.59
117.10
120.89
121.73
119.62
114.78
107.35
96.97
82.57
62.80
36.81
5.11
-30.12
-65.50
-97.53
-123.84
-143.57
-157.10
-165.22
-168.35
-166.31
-158.84
-146.02
-128.46
-107.06
-82.50
-55.26
-25.82
4.69
34.24
60.34
80.93
95.31
104.49
110.76
116.71
124.09
133.11
142.60
150.86
156.79
160.63
163.80
167.95
173.89
180.95
187.41
191.56
192.46
189.97
184.13
174.70
161.33
144.25
124.77
105.03
87.03
71.45
57.11
41.68
23.15
1.07
-23.18
-47.41
-69.86
-89.66
-106.76
-121.23
-132.97
-141.62
-146.98
-148.36
-145.18
-137.42
-125.63
-110.87
-94.16
-76.36
-58.39
-41.39
-26.51
-14.75
-6.71
-1.77
1.21
3.52
5.81
7.78
8.43
6.39
0.03
-12.54
-31.80
-57.18
-85.56
-111.58
-129.03
-133.28
-123.20
-100.61
-73.76
-51.39
-38.92
-36.59
-40.59
-45.76
-48.31
-46.80
-42.08
-36.22
-29.78
-22.47
-13.62
-3.10
8.41
19.72
30.06
39.04
46.64
53.64
60.84
68.85
77.79
87.41
97.47
108.96
123.35
141.93
165.24
191.89
218.47
240.61
254.86
255.92
243.98
223.08
199.12
177.63
161.74
151.74
145.86
141.65
137.06
131.46
124.56
116.07
105.85
94.17
81.82
69.63
57.87
45.66
31.54
13.52
-10.02
-39.62
-74.85
-114.74
-158.26
-204.28
-251.12
-295.62
-333.48
-360.06
-371.63
-366.59
-345.94
-313.02
-272.45
-229.23
-187.65
-151.01
-121.15
-98.43
-81.98
-70.37
-62.27
-56.70
-52.89
-49.64
-45.22
-37.78
-26.33
-11.55
4.09
17.20
24.99
26.32
21.90
13.37
2.02
-11.98
-29.52
-51.74
-79.13
-110.94
-145.43
-180.33
-213.51
-243.54
-269.98
-293.14
-313.55
-331.24
-345.02
-352.68
-351.62
-340.07
-318.17
-288.35
-254.66
-221.41
-191.69
-166.44
-144.42
-122.89
-98.48
-68.57
-32.38
8.10
48.37
82.85
107.34
121.05
127.17
131.31
138.85
152.75
172.91
197.10
222.85
248.72
274.29
299.11
322.00
341.25
356.27
368.88
383.34
404.35
434.20
470.63
507.03
534.86
546.99
540.09
514.84
474.70
424.61
370.52
319.74
280.55
260.34
262.30
282.87
312.08
337.24
348.52
343.06
325.22
302.93
282.54
265.32
247.63
223.97
190.48
146.62
94.49
36.86
-24.04
-86.09
-146.37
-200.40
-243.10
-270.82
-283.20
-283.62
-277.56
-269.98
-263.42
-257.79
-251.81
-244.89
-237.90
-232.56
-229.81
-228.63
-226.15
-219.14
-205.90
-187.55
-167.85
-151.97
-144.48
-147.57
-160.39
-179.54
-200.62
-219.76
-234.65
-244.58
-249.82
-250.85
-247.91
-241.41
-232.41
-222.83
-214.76
-209.20
-205.17
-200.01
-190.71
-175.64
-155.45
-132.65
-110.24
-90.46
-74.25
-61.71
-52.57
-46.57
-43.01
-40.34
-35.76
-25.72
-6.94
22.33
61.40
107.05
154.21
197.75
233.97
261.99
283.82
302.87
321.57
339.24
352.02
354.87
344.49
321.23
288.76
251.33
210.67
164.77
109.75
43.83
-29.14
-99.13
-153.33
-181.69
-181.63
-159.24
-126.18
-94.13
-70.17
-55.08
-45.33
-36.86
-28.06
-20.31
-16.43
-17.82
-23.21
-29.21
-32.32
-31.00
-26.28
-20.99
-18.05
-18.98
-23.38
-29.50
-35.31
-39.38
-41.15
-40.74
-38.48
-34.59
-29.07
-21.94
-13.44
-4.21
4.73
12.22
17.22
19.26
18.63
16.37
14.02
13.01
14.12
17.16
21.06
24.40
26.01
25.55
23.67
21.86
21.77
24.59
30.38
37.92
44.96
48.97
48.18
42.38
33.19
23.60
16.74
14.48
16.49
20.10
21.17
15.44
-0.07
-26.10
-60.88
-100.36
-139.01
-171.00
-191.57
-198.38
-192.23
-176.84
-157.59
-139.63
-126.21
-117.90
-113.09
-109.26
-104.33
-97.38
-88.54
-78.39
-67.43
-55.94
-44.20
-32.76
-22.55
-14.50
-9.16
-6.42
-5.56
-5.59
-5.63
-5.15
-4.06
-2.47
-0.52
1.73
4.32
7.28
10.55
13.77
16.37
17.61
16.83
13.74
8.61
2.32
-3.87
-8.64
-11.10
-11.01
-8.76
-5.19
-1.23
2.45
5.51
7.97
10.07
12.10
14.21
16.39
18.45
20.06
20.86
20.60
19.23
16.91
14.00
10.96
8.22
6.11
4.78
4.19
4.31
5.14
6.83
9.61
13.71
19.11
25.45
32.08
38.25
43.38
47.28
50.16
52.49
54.67
56.88
58.97
60.63
61.54
61.52
60.45
58.18
54.40
48.87
41.59
33.03
24.04
15.49
7.74
0.48
-7.06
-15.59
-25.18
-35.17
-44.42
-51.96
-57.43
-61.12
-63.62
-65.32
-66.21
-65.94
-64.29
-61.40
-57.83
-54.33
-51.45
-49.26
-47.36
-45.13
-42.08
-38.18
-33.92
-30.17
-27.75
-27.08
-27.89
-29.35
-30.36
-30.12
-28.45
-25.95
-23.64
-22.45
-22.79
-24.31
-26.12
-27.11
-26.32
-23.15
-17.38
-9.29
0.36
10.26
18.80
24.48
26.51
25.21
21.98
18.77
17.29
18.26
21.31
25.33
29.12
32.00
33.88
35.04
35.74
35.93
35.34
33.87
31.82
29.90
28.95
29.41
31.02
32.90
33.89
33.12
30.41
26.18
21.21
16.23
11.60
7.37
3.41
-0.35
-3.89
-7.09
-9.92
-12.47
-14.98
-17.81
-21.28
-25.40
-29.65
-32.76
-32.92
-28.34
-18.03
-2.48
16.23
34.94
50.49
60.71
64.88
63.64
58.23
49.90
39.44
27.33
14.22
1.22
-10.03
-17.81
-21.02
-19.69
-15.18
-9.66
-5.36
-3.84
-5.57
-10.21
-17.24
-26.42
-37.84
-51.24
-65.13
-76.49
-81.25
-75.63
-57.78
-28.66
8.04
47.00
82.78
111.16
129.80
138.27
137.66
130.11
118.35
105.28
93.48
84.76
79.66
77.43
76.34
74.45
70.44
64.00
55.88
47.35
39.57
33.14
28.01
23.73
19.79
15.79
11.31
5.85
-1.16
-10.09
-20.67
-31.93
-42.39
-50.60
-55.74
-57.86
-57.68
-56.17
-54.08
-51.78
-49.35
-46.72
-43.83
-40.60
-36.81
-32.18
-26.45
-19.68
-12.41
-5.51
0.12
3.98
6.17
7.38
8.47
10.10
12.44
15.21
17.93
20.18
21.84
22.99
23.89
24.80
25.86
27.09
28.35
29.40
29.84
29.25
27.31
23.98
19.63
14.95
10.83
7.98
6.75
6.92
7.87
8.82
9.15
8.51
6.89
4.57
1.88
-0.85
-3.38
-5.56
-7.27
-8.49
-9.24
-9.62
-9.79
-9.90
-9.99
-9.95
-9.59
-8.73
-7.36
-5.69
-4.12
-3.02
-2.58
-2.72
-3.11
-3.31
-3.01
-2.06
-0.59
1.09
2.55
3.44
3.53
2.83
1.56
0.02
-1.42
-2.54
-3.27
-3.73
-4.11
-4.66
-5.60
-7.04
-8.96
-11.13
-13.16
-14.57
-15.00
-14.33
-12.80
-10.85
-8.95
-7.36
-6.04
-4.70
-3.03
-0.89
1.54
3.88
5.65
6.59
6.67
6.11
5.23
4.30
3.47
2.67
1.74
0.41
-1.51
-4.19
-7.69
-11.95
-16.83
-22.07
-27.34
-32.26
-36.50
-39.84
-42.27
-43.87
-44.70
-44.63
-43.34
-40.41
-35.51
-28.58
-19.74
-9.25
2.63
15.45
28.44
40.44
50.18
56.72
59.80
59.97
58.16
55.20
51.42
46.77
41.16
34.89
28.70
23.43
19.63
17.27
15.79
14.54
13.09
11.42
9.73
8.29
7.15
6.12
4.84
2.99
0.37
-2.96
-6.70
-10.38
-13.49
-15.60
-16.39
-15.70
-13.56
-10.16
-5.95
-1.54
2.41
5.42
7.49
9.29
12.14
17.63
27.02
40.54
56.98
73.85
88.03
96.72
98.26
92.44
80.36
63.95
45.34
26.53
9.17
-5.52
-16.81
-24.59
-29.42
-32.30
-34.33
-36.32
-38.62
-41.10
-43.52
-45.68
-47.56
-49.28
-50.90
-52.29
-53.16
-53.18
-52.16
-50.11
-47.23
-43.73
-39.79
-35.44
-30.70
-25.64
-20.54
-15.77
-11.80
-8.89
-7.05
-5.99
-5.24
-4.38
-3.22
-1.79
-0.24
1.26
2.65
3.89
4.94
5.58
5.52
4.54
2.61
-0.06
-2.99
-5.73
-7.94
-9.52
-10.59
-11.26
-11.55
-11.38
-10.54
-8.86
-6.35
-3.21
0.18
3.41
6.19
8.41
10.12
11.44
12.43
13.09
13.42
13.47
13.41
13.43
13.68
14.19
14.76
15.16
15.09
14.36
12.88
10.72
8.09
5.31
2.72
0.58
-1.05
-2.30
-3.46
-4.82
-6.54
-8.58
-10.73
-12.66
-14.06
-14.64
-14.19
-12.64
-10.03
-6.54
-2.53
1.63
5.52
8.90
11.65
13.76
15.30
16.30
16.79
16.77
16.31
15.50
14.46
13.33
12.15
10.98
9.79
8.56
7.29
5.96
4.58
3.16
1.76
0.46
-0.62
-1.46
-2.12
-2.83
-3.85
-5.37
-7.35
-9.51
-11.45
-12.71
-13.06
-12.48
-11.16
-9.38
-7.41
-5.43
-3.53
-1.81
-0.31
0.88
1.75
2.35
2.74
2.96
2.98
2.64
1.82
0.52
-1.06
-2.61
-3.82
-4.61
-5.17
-5.92
-7.30
-9.56
-12.63
-16.13
-19.47
-22.16
-24.01
-25.24
-26.51
-28.61
-32.09
-36.84
-41.91
-45.73
-46.61
-43.55
-36.73
-27.49
-17.82
-9.41
-2.83
2.79
9.31
18.64
31.62
47.40
63.60
77.23
86.10
89.79
89.99
89.66
91.80
97.97
107.68
118.61
127.41
131.02
127.63
117.40
102.46
86.60
74.37
69.63
74.11
86.06
99.82
106.93
98.75
70.00
21.91
-36.94
-93.03
-133.16
-150.44
-147.53
-135.22
-126.88
-131.37
-148.69
-170.58
-185.33
-183.78
-163.01
-126.20
-79.81
-30.59
16.05
55.61
83.70
96.33
91.21
68.79
32.11
-14.70
-68.02
-124.89
-181.52
-231.94
-267.96
-281.22
-266.39
-223.67
-159.20
-83.05
-6.12
62.19
114.97
147.94
159.68
152.28
131.99
107.96
89.19
80.84
81.59
84.13
78.22
55.41
12.87
-45.30
-109.73
-169.38
-214.99
-241.61
-248.63
-238.95
-217.09
-187.58
-153.38
-115.67
-74.43
-30.14
13.46
51.37
77.63
88.22
83.47
68.84
52.90
43.78
45.78
57.74
74.88
91.60
104.47
112.91
118.09
121.20
122.41
121.31
118.15
114.98
115.37
123.13
140.81
168.07
201.09
233.39
257.49
267.10
259.21
234.79
198.17
154.89
109.45
64.22
20.13
-21.65
-58.59
-87.12
-104.41
-110.18
-107.00
-99.11
-90.43
-83.17
-77.76
-73.92
-71.85
-72.58
-77.06
-85.22
-95.70
-106.69
-117.11
-127.19
-137.60
-147.60
-154.09
-151.91
-136.05
-104.30
-58.95
-6.37
45.34
89.14
121.20
141.15
151.23
155.28
157.84
163.50
175.87
195.97
221.15
245.51
261.50
262.57
245.67
211.98
166.00
113.69
60.48
10.79
-31.31
-62.84
-82.48
-90.67
-89.62
-82.49
-71.96
-60.33
-48.74
-36.74
-25.10
-16.90
-16.05
-25.89
-46.93
-75.75
-107.64
-137.30
-158.21
-166.47
-162.20
-147.75
-127.42
-105.58
-85.30
-70.88
-66.27
-71.17
-83.95
-102.88
-124.98
-147.83
-168.83
-176.45
-163.93
-145.76
-132.99
-128.26
-135.67
-157.26
-192.68
-236.43
-277.45
-306.76
-319.52
-313.23
-291.20
-261.53
-223.84
-181.38
-147.86
-124.38
-105.83
-90.21
-75.03
-58.92
-41.58
-22.07
-0.56
23.16
50.72
81.17
112.02
142.97
174.80
208.55
245.30
283.74
320.86
353.32
375.70
382.84
373.42
349.84
317.10
281.35
247.21
217.45
193.36
173.49
154.66
133.90
109.12
79.56
46.14
10.68
-24.41
-56.63
-84.73
-108.60
-128.58
-145.19
-159.23
-171.77
-184.02
-196.34
-207.13
-212.84
-208.64
-190.07
-155.11
-105.46
-46.36
14.82
70.78
116.07
148.03
166.78
174.59
175.02
172.16
170.01
171.91
179.85
193.82
211.35
228.12
239.43
242.23
236.73
226.30
215.77
208.80
205.99
204.80
201.21
192.02
176.19
154.63
128.87
99.77
67.41
31.91
-5.46
-42.06
-74.83
-101.67
-122.42
-138.67
-152.59
-165.78
-178.45
-189.70
-198.49
-204.61
-209.29
-215.37
-226.91
-247.93
-280.63
-323.50
-370.35
-411.32
-435.70
-435.81
-409.96
-362.95
-303.80
-241.97
-183.86
-131.48
-83.31
-36.40
11.86
62.89
116.77
172.10
225.59
272.05
305.25
320.02
314.63
291.84
258.21
221.83
189.50
165.09
149.42
141.19
138.16
137.54
135.95
129.51
114.56
89.16
54.35
14.38
-24.66
-56.94
-79.02
-90.76
-94.72
-94.56
-93.35
-92.78
-93.23
-94.47
-96.24
-98.36
-100.55
-102.18
-102.50
-101.07
-98.10
-94.36
-90.61
-87.03
-83.01
-77.53
-69.81
-59.75
-47.92
-35.22
-22.36
-9.68
2.76
14.95
26.73
37.81
47.83
56.42
63.24
68.06
70.87
72.01
72.25
72.56
73.77
76.33
80.20
85.02
90.30
95.53
100.18
103.60
105.11
104.24
100.94
95.74
89.54
83.23
77.26
71.59
65.79
59.47
52.68
45.94
40.07
35.62
32.57
30.17
27.25
22.92
17.05
10.43
4.50
0.55
-0.89
-0.17
1.67
3.47
4.03
2.27
-2.78
-11.68
-23.95
-37.82
-50.37
-58.59
-60.56
-56.32
-47.58
-36.69
-25.42
-14.40
-3.54
6.96
15.93
21.37
21.49
15.96
6.37
-4.23
-12.56
-16.59
-16.31
-13.96
-13.44
-19.53
-36.89
-68.73
-115.37
-173.15
-234.58
-289.90
-329.90
-348.88
-346.32
-326.57
-296.81
-264.31
-234.27
-209.21
-189.40
-173.84
-160.91
-148.38
-133.02
-110.77
-77.72
-32.08
23.75
82.47
133.08
164.33
169.03
147.26
106.91
60.83
22.18
-0.19
-3.74
8.76
32.37
63.17
99.63
141.73
188.76
237.62
282.64
317.21
336.08
337.34
322.88
297.35
266.24
234.00
203.01
173.72
145.49
117.74
90.43
64.01
38.73
14.07
-11.19
-38.22
-67.07
-96.01
-121.83
-141.07
-151.54
-153.26
-148.30
-139.58
-129.45
-118.80
-107.05
-92.86
-75.09
-53.45
-28.61
-2.02
24.48
49.02
69.94
85.95
96.44
101.57
102.46
100.98
99.42
99.82
103.30
109.59
117.07
123.43
126.58
125.56
120.86
114.19
107.77
103.53
102.53
105.11
111.07
119.72
129.93
140.13
148.58
153.91
155.47
153.21
147.29
137.71
124.10
106.17
84.37
60.29
36.49
15.61
-1.07
-13.58
-23.00
-30.70
-37.73
-44.70
-51.75
-58.48
-63.87
-67.20
-67.46
-63.79
-56.40
-47.44
-41.08
-42.08
-53.61
-75.47
-105.56
-138.48
-166.89
-184.06
-186.98
-178.07
-164.40
-154.81
-156.47
-175.50
-212.10
-260.07
-308.56
-346.34
-366.12
-366.48
-351.40
-328.19
-309.14
-303.98
-316.43
-343.41
-377.85
-412.69
-442.93
-465.70
-453.68
-390.56
-277.70
-135.96
7.27
132.15
230.19
301.10
348.91
379.59
394.75
396.27
387.33
372.67
356.85
342.53
330.35
320.08
311.87
301.83
287.43
268.33
246.65
225.25
206.07
189.66
175.50
162.69
147.37
126.97
101.43
73.57
47.43
25.88
8.91
-6.98
-20.94
-36.54
-56.63
-81.81
-110.22
-138.37
-162.39
-178.93
-185.48
-180.52
-165.34
-142.31
-114.79
-86.45
-60.91
-41.01
-28.76
-25.31
-30.96
-46.19
-71.08
-105.87
-150.90
-206.02
-268.86
-333.83
-392.44
-435.50
-456.99
-455.91
-436.49
-406.05
-371.56
-336.91
-302.44
-266.44
-227.47
-186.19
-144.88
-105.96
-70.38
-36.95
-3.01
33.75
74.07
116.73
158.88
197.52
230.77
258.72
283.24
307.32
333.97
365.82
404.80
451.54
504.47
559.08
608.04
642.76
656.16
644.87
611.10
561.78
505.88
450.89
400.62
355.36
313.24
272.49
231.71
191.42
153.86
121.62
96.25
77.50
63.82
52.55
41.41
26.82
7.17
-16.19
-40.09
-61.95
-81.75
-101.41
-124.73
-154.86
-197.29
-255.01
-326.72
-407.24
-489.14
-563.86
-621.09
-652.70
-654.82
-635.86
-610.57
-593.43
-592.61
-607.78
-631.56
-652.25
-661.71
-627.46
-539.14
-413.67
-284.42
-176.69
-96.26
-42.91
-3.05
29.10
53.83
65.66
62.68
49.84
35.75
28.27
30.53
41.85
57.27
71.97
79.41
76.75
66.28
53.74
44.53
40.80
42.19
45.34
47.08
43.31
32.31
15.63
-2.89
-19.45
-32.06
-40.07
-44.64
-46.86
-48.41
-49.97
-50.98
-50.02
-45.94
-38.59
-28.49
-16.96
-5.27
5.30
13.94
20.45
25.09
28.17
29.82
30.07
28.79
25.96
21.80
16.73
11.23
5.85
0.99
-3.08
-6.29
-8.69
-10.32
-11.11
-10.78
-9.00
-5.47
-0.10
6.86
14.91
23.42
31.93
40.30
48.79
57.93
68.32
80.30
93.80
108.43
123.61
138.84
153.91
168.99
184.52
201.21
220.00
241.81
267.13
295.30
324.04
349.51
367.31
373.94
368.16
351.41
327.04
298.78
269.35
239.86
210.17
179.84
148.90
118.01
88.04
59.63
33.17
9.25
-10.89
-25.22
-31.56
-28.46
-16.01
4.12
29.40
57.44
86.71
116.40
145.67
172.87
195.39
210.29
215.57
210.82
197.25
176.72
150.89
120.97
88.32
55.18
24.82
0.53
-15.97
-25.69
-32.44
-41.29
-56.56
-80.07
-110.82
-145.53
-179.92
-209.76
-231.49
-242.61
-241.93
-230.04
-209.27
-183.43
-156.75
-132.66
-113.01
-97.77
-85.50
-74.04
-61.29
-45.83
-27.36
-6.78
14.03
32.78
47.48
57.04
61.43
61.12
56.44
47.32
33.65
16.19
-2.65
-18.84
-27.95
-26.95
-15.65
3.02
23.95
41.76
52.64
55.54
52.16
45.95
40.65
39.11
42.64
50.95
62.44
74.69
85.10
91.59
93.15
90.22
84.43
77.77
71.67
66.36
60.91
54.07
45.21
34.99
25.19
17.81
14.05
13.88
16.27
19.96
24.17
28.86
34.31
40.47
46.48
50.71
51.52
48.07
40.88
31.74
22.85
15.67
10.19
4.87
-2.49
-13.62
-28.90
-47.05
-65.70
-82.08
-93.73
-98.92
-96.83
-87.52
-71.99
-52.03
-29.96
-8.22
11.20
27.10
39.11
47.48
52.57
54.59
53.55
49.44
42.63
33.92
24.46
15.26
6.84
-0.85
-8.26
-15.71
-22.92
-28.96
-32.55
-32.66
-29.12
-22.81
-15.45
-9.01
-4.99
-3.80
-4.52
-5.09
-2.94
4.01
16.52
33.53
52.41
69.77
82.62
89.33
90.05
86.50
81.16
76.32
73.14
71.32
69.27
64.83
56.14
42.48
24.43
3.66
-17.68
-37.54
-54.41
-67.24
-75.45
-78.84
-77.74
-73.12
-66.60
-60.13
-55.52
-53.94
-55.63
-59.97
-65.82
-71.84
-76.93
-80.37
-81.91
-81.75
-80.35
-78.35
-76.40
-74.99
-74.40
-74.60
-75.28
-75.91
-75.84
-74.51
-71.42
-66.38
-59.46
-51.09
-42.09
-33.51
-26.45
-21.71
-19.57
-19.65
-21.05
-22.72
-23.82
-23.90
-22.98
-21.32
-19.23
-16.87
-14.20
-11.13
-7.71
-4.34
-1.78
-0.97
-2.64
-6.95
-13.33
-20.66
-27.76
-33.90
-39.02
-43.61
-48.15
-52.71
-56.67
-59.09
-59.22
-56.99
-53.13
-48.82
-45.19
-42.80
-41.52
-40.71
-39.63
-37.85
-35.42
-32.74
-30.33
-28.54
-27.48
-27.14
-27.60
-29.25
-32.55
-37.52
-43.52
-49.40
-54.01
-56.92
-58.48
-59.50
-60.42
-60.98
-60.24
-57.44
-52.65
-46.97
-42.08
-39.75
-41.16
-46.63
-55.63
-66.63
-77.89
-87.82
-95.30
-99.52
-99.67
-94.67
-83.44
-65.16
-38.84
-4.74
35.41
78.73
122.10
163.10
200.44
233.64
262.67
289.48
315.57
341.26
365.23
385.27
399.80
409.01
414.75
419.67
428.76
444.73
466.99
491.37
511.95
523.47
522.61
508.18
480.75
446.28
411.35
381.73
360.44
347.73
342.02
340.63
340.57
315.48
250.30
144.48
14.41
-115.87
-227.18
-311.75
-371.44
-412.50
-441.10
-457.50
-460.80
-451.32
-432.58
-411.30
-393.99
-385.26
-387.07
-399.58
-419.01
-441.90
-461.83
-474.85
-477.37
-465.51
-436.55
-391.19
-334.85
-274.52
-217.82
-170.13
-133.89
-108.28
-90.66
-78.54
-70.71
-66.81
-65.41
-64.40
-61.34
-55.29
-46.82
-37.63
-29.61
-24.11
-21.10
-19.07
-16.03
-10.16
-1.18
9.94
21.53
31.86
39.83
45.23
48.58
50.75
52.77
55.04
57.51
59.91
62.05
63.88
65.61
67.68
70.80
76.29
85.08
97.16
111.09
124.02
132.51
134.03
128.28
114.84
96.62
77.27
59.34
43.51
29.19
15.86
3.97
-5.29
-11.35
-15.06
-19.28
-27.48
-41.54
-60.26
-79.71
-95.18
-103.77
-105.85
-104.41
-103.56
-106.14
-112.16
-119.00
-122.82
-120.72
-111.96
-98.16
-82.18
-67.05
-54.97
-46.95
-43.12
-43.00
-45.73
-49.94
-53.49
-53.77
-48.49
-36.56
-18.70
2.75
24.79
45.02
62.55
77.56
90.43
100.65
106.52
105.75
96.94
80.99
61.76
45.18
37.24
41.23
56.04
75.86
92.16
96.64
83.84
52.53
5.28
-52.77
-115.12
-174.76
-224.53
-257.84
-269.71
-258.26
-225.46
-176.44
-117.84
-56.01
4.07
58.56
104.42
139.21
161.73
172.75
175.23
173.40
171.16
170.69
172.03
173.58
173.20
169.03
159.99
145.69
126.27
102.35
75.09
46.12
17.37
-9.40
-32.78
-51.88
-66.14
-75.30
-79.29
-78.47
-73.76
-66.63
-58.72
-51.34
-45.04
-39.52
-34.00
-27.88
-21.20
-14.83
-10.02
-7.65
-7.75
-9.38
-11.11
-11.78
-11.00
-9.32
-7.85
-7.54
-8.74
-10.88
-12.74
-13.03
-11.01
-6.86
-1.74
2.66
4.86
4.17
1.01
-3.29
-7.14
-9.33
-9.43
-7.74
-5.02
-2.06
0.55
2.43
3.36
3.26
2.25
0.71
-0.83
-1.85
-2.15
-1.96
-1.87
-2.61
-4.73
-8.31
-12.91
-17.65
-21.41
-23.14
-22.18
-18.44
-12.52
-5.55
1.10
6.24
9.12
9.75
8.72
6.98
5.43
4.65
4.70
5.27
5.84
5.93
5.31
4.00
2.32
0.75
-0.12
0.22
2.02
5.06
8.64
11.87
13.94
14.51
13.78
12.29
10.59
9.00
7.56
6.21
4.93
3.86
3.16
2.94
3.10
3.47
3.89
4.36
5.03
6.07
7.58
9.46
11.44
13.04
13.70
12.95
10.53
6.56
1.65
-3.30
-7.31
-9.61
-9.92
-8.41
-5.61
-2.16
1.37
4.61
7.39
9.72
11.74
13.62
15.43
17.08
18.31
18.75
18.17
16.57
14.27
11.90
10.10
9.38
9.84
11.22
13.00
14.58
15.52
15.64
15.07
14.15
13.24
12.59
12.25
12.05
11.75
11.11
10.00
8.35
6.16
3.58
0.94
-1.25
-2.39
-2.12
-0.67
1.08
1.84
0.55
-3.06
-8.15
-13.12
-16.31
-16.89
-15.22
-12.69
-10.98
-11.21
-13.39
-16.45
-18.84
-19.25
-17.27
-13.54
-9.39
-6.17
-4.57
-4.30
-4.33
-3.41
-0.70
3.83
9.47
15.08
19.57
22.19
22.74
21.43
18.74
15.30
11.78
8.84
6.99
6.45
7.12
8.54
10.05
10.93
10.68
9.10
6.38
3.01
-0.42
-3.38
-5.58
-7.01
-7.85
-8.32
-8.53
-8.44
-7.93
-6.99
-5.84
-4.92
-4.84
-6.02
-8.60
-12.32
-16.64
-20.94
-24.74
-27.79
-30.16
-32.08
-33.80
-35.48
-37.09
-38.32
-38.68
-37.58
-34.57
-29.57
-23.06
-16.03
-9.81
-5.67
-4.36
-5.88
-9.43
-13.65
-17.06
-18.48
-17.32
-13.73
-8.50
-2.82
2.09
5.29
6.43
5.83
4.37
3.15
3.08
4.61
7.61
11.49
15.46
18.85
21.18
22.29
22.20
21.14
19.43
17.47
15.68
14.36
13.63
13.35
13.16
12.61
11.34
9.22
6.50
3.72
1.63
0.82
1.57
3.70
6.58
9.31
11.01
11.10
9.44
6.46
2.92
-0.30
-2.54
-3.49
-3.27
-2.28
-1.04
0.00
0.60
0.68
0.30
-0.38
-1.20
-1.90
-2.24
-2.02
-1.27
-0.25
0.66
1.01
0.56
-0.63
-2.22
-3.74
-4.79
-5.17
-4.98
-4.52
-4.17
-4.19
-4.68
-5.54
-6.54
-7.43
-7.98
-8.09
-7.79
-7.23
-6.58
-5.97
-5.37
-4.63
-3.53
-1.90
0.21
2.53
4.64
6.19
6.98
7.07
6.74
6.30
6.02
5.97
6.11
6.32
6.45
6.41
6.16
5.69
5.09
4.46
3.90
3.47
3.13
2.78
2.36
1.90
1.54
1.44
1.61
1.86
1.84
1.15
-0.36
-2.55
-4.95
-7.05
-8.48
-9.20
-9.44
-9.52
-9.63
-9.74
-9.67
-9.29
-8.59
-7.79
-7.22
-7.13
-7.56
-8.32
-9.02
-9.31
-8.96
-7.95
-6.46
-4.74
-2.99
-1.34
0.18
1.61
2.96
4.29
5.62
6.95
8.28
9.62
10.90
12.04
12.98
13.66
14.02
14.06
13.80
13.36
12.93
12.79
13.17
14.16
15.63
17.27
18.76
19.88
20.58
21.02
21.38
21.78
22.23
22.60
22.72
22.44
21.67
20.41
18.69
16.63
14.40
12.25
10.42
9.16
8.60
8.65
9.07
9.50
9.58
9.07
7.89
6.08
3.71
0.82
-2.65
-6.70
-11.17
-15.74
-19.95
-23.40
-25.96
-27.81
-29.36
-31.08
-33.21
-35.63
-37.96
-39.72
-40.52
-40.32
-39.40
-38.18
-37.09
-36.34
-35.96
-35.81
-35.71
-35.51
-35.14
-34.54
-33.63
-32.33
-30.53
-28.22
-25.50
-22.54
-19.53
-16.60
-13.80
-11.07
-8.31
-5.46
-2.44
0.71
3.89
6.87
9.40
11.28
12.49
13.14
13.49
13.76
14.03
14.30
14.47
14.51
14.43
14.29
14.12
13.90
13.58
13.14
12.61
12.01
11.34
10.58
9.65
8.55
7.31
6.04
4.82
3.66
2.55
1.50
0.56
-0.13
-0.48
-0.54
-0.57
-0.92
-1.93
-3.76
-6.34
-9.35
-12.40
-15.16
-17.38
-18.92
-19.63
-19.34
-17.92
-15.44
-12.25
-8.98
-6.29
-4.63
-3.99
-3.98
-4.02
-3.65
-2.73
-1.47
-0.25
0.63
1.10
1.33
1.65
2.33
3.50
5.11
6.96
8.77
10.33
11.48
12.20
12.57
12.73
12.82
12.95
13.15
13.36
13.51
13.52
13.37
13.05
12.62
12.14
11.67
11.23
10.81
10.33
9.72
8.93
7.98
6.95
5.98
5.12
4.43
3.87
3.40
3.00
2.74
2.68
2.86
3.24
3.65
3.91
3.89
3.57
3.01
2.31
1.58
0.89
0.26
-0.24
-0.55
-0.59
-0.36
0.02
0.39
0.60
0.65
0.72
1.06
1.88
3.18
4.77
6.34
7.62
8.47
8.89
8.98
8.85
8.55
8.16
7.79
7.60
7.84
8.65
10.01
11.71
13.37
14.61
15.15
14.94
14.13
13.02
11.94
11.07
10.38
9.66
8.64
7.05
4.82
2.02
-1.08
-4.19
-6.99
-9.25
-10.86
-11.86
-12.37
-12.61
-12.84
-13.20
-13.66
-14.01
-13.95
-13.26
-11.92
-10.17
-8.34
-6.78
-5.69
-5.14
-5.17
-5.77
-6.97
-8.61
-10.37
-11.75
-12.29
-11.81
-10.48
-8.86
-7.55
-6.96
-7.12
-7.72
-8.31
-8.55
-8.39
-8.02
-7.72
-7.69
-7.92
-8.23
-8.42
-8.39
-8.18
-7.92
-7.66
-7.31
-6.67
-5.62
-4.23
-2.83
-1.81
-1.47
-1.80
-2.51
-3.16
-3.44
-3.34
-3.05
-2.83
-2.81
-2.89
-2.85
-2.55
-2.05
-1.57
-1.36
-1.51
-1.94
-2.38
-2.63
-2.60
-2.38
-2.14
-1.99
-1.93
-1.85
-1.63
-1.24
-0.76
-0.32
-0.04
0.03
-0.11
-0.40
-0.78
-1.16
-1.45
-1.52
-1.26
-0.61
0.40
1.69
3.12
4.54
5.86
6.97
7.79
8.30
8.49
8.48
8.39
8.36
8.44
8.60
8.77
8.89
8.89
8.68
8.16
7.20
5.74
3.85
1.74
-0.36
-2.28
-4.06
-5.83
-7.76
-9.88
-11.99
-13.72
-14.75
-14.91
-14.24
-13.00
-11.50
-10.03
-8.78
-7.83
-7.15
-6.63
-6.14
-5.53
-4.72
-3.75
-2.71
-1.74
-0.87
-0.10
0.66
1.49
2.37
3.20
3.82
4.12
4.04
3.66
3.12
2.64
2.52
3.03
4.30
6.25
8.51
10.50
11.68
11.72
10.74
9.16
7.57
6.42
5.90
5.88
6.07
6.20
6.10
5.72
5.07
4.23
3.33
2.56
2.09
2.08
2.51
3.22
3.92
4.35
4.30
3.76
2.81
1.66
0.53
-0.37
-0.94
-1.19
-1.26
-1.34
-1.61
-2.13
-2.77
-3.34
-3.73
-3.96
-4.21
-4.67
-5.42
-6.26
-6.89
-6.98
-6.42
-5.36
-4.18
-3.24
-2.80
-2.90
-3.37
-3.97
-4.50
-4.78
-4.77
-4.52
-4.16
-3.85
-3.76
-3.92
-4.22
-4.46
-4.43
-4.00
-3.24
-2.37
-1.59
-1.05
-0.71
-0.39
0.09
0.75
1.46
2.04
2.30
2.27
2.08
1.94
1.92
1.92
1.75
1.26
0.45
-0.49
-1.30
-1.82
-2.07
-2.20
-2.36
-2.53
-2.57
-2.34
-1.80
-1.13
-0.59
-0.42
-0.68
-1.21
-1.69
-1.87
-1.60
-0.94
-0.03
0.93
1.79
2.43
2.83
2.96
2.87
2.62
2.31
2.10
2.10
2.34
2.73
3.09
3.22
2.97
2.39
1.68
1.13
0.98
1.28
1.86
2.43
2.72
2.59
2.09
1.37
0.59
-0.16
-0.88
-1.62
-2.36
-3.07
-3.70
-4.17
-4.45
-4.55
-4.51
-4.34
-4.03
-3.56
-2.87
-1.95
-0.77
0.64
2.29
4.16
6.23
8.42
10.64
12.66
14.24
15.14
15.22
14.50
13.18
11.57
9.96
8.59
7.51
6.64
5.79
4.74
3.40
1.82
0.24
-1.11
-2.05
-2.54
-2.66
-2.50
-2.14
-1.58
-0.82
0.12
1.11
2.00
2.67
3.12
3.44
3.74
4.10
4.51
4.86
5.03
4.93
4.52
3.78
2.66
1.07
-1.10
-3.92
-7.31
-10.97
-14.45
-17.27
-19.13
-19.98
-20.07
-19.75
-19.35
-19.07
-18.89
-18.69
-18.27
-17.42
-16.00
-13.99
-11.57
-9.15
-7.19
-6.07
-5.91
-6.50
-7.42
-8.21
-8.56
-8.38
-7.77
-6.87
-5.79
-4.57
-3.26
-1.93
-0.67
0.48
1.57
2.71
4.03
5.53
7.10
8.50
9.50
10.03
10.16
10.06
9.92
9.79
9.69
9.55
9.38
9.20
9.03
8.80
8.38
7.67
6.66
5.52
4.56
4.06
4.15
4.72
5.44
5.93
5.84
5.04
3.56
1.60
-0.59
-2.77
-4.78
-6.55
-8.04
-9.22
-9.97
-10.14
-9.59
-8.30
-6.43
-4.23
-1.97
0.16
2.10
3.88
5.50
6.88
7.93
8.61
9.00
9.29
9.66
10.16
10.66
10.94
10.85
10.34
9.51
8.49
7.30
5.89
4.14
2.02
-0.41
-2.93
-5.24
-7.05
-8.18
-8.64
-8.62
-8.43
-8.38
-8.62
-9.10
-9.62
-9.93
-9.84
-9.39
-8.78
-8.19
-7.76
-7.43
-7.02
-6.31
-5.21
-3.76
-2.16
-0.69
0.44
1.10
1.34
1.31
1.22
1.14
1.10
1.03
0.86
0.58
0.27
0.01
-0.18
-0.37
-0.65
-1.09
-1.64
-2.13
-2.39
-2.36
-2.16
-2.00
-2.10
-2.53
-3.19
-3.87
-4.42
-4.80
-5.09
-5.38
-5.64
-5.71
-5.38
-4.47
-3.00
-1.09
1.05
3.20
5.21
6.96
8.33
9.22
9.60
9.50
9.05
8.37
7.56
6.69
5.77
4.87
4.09
3.60
3.59
4.21
5.56
7.57
10.08
12.80
15.39
17.57
19.19
20.22
20.74
20.85
20.63
20.09
19.29
18.29
17.17
16.01
14.82
13.58
12.25
10.88
9.55
8.38
7.45
6.80
6.39
6.18
6.10
6.07
5.94
5.53
4.63
3.18
1.27
-0.80
-2.69
-4.09
-4.92
-5.29
-5.48
-5.70
-6.10
-6.64
-7.25
-7.87
-8.53
-9.26
-10.09
-10.91
-11.60
-11.99
-12.07
-11.97
-11.91
-12.13
-12.73
-13.69
-14.82
-15.89
-16.65
-16.94
-16.68
-15.92
-14.81
-13.55
-12.40
-11.52
-10.96
-10.60
-10.23
-9.58
-8.46
-6.85
-4.91
-2.94
-1.28
-0.20
0.19
-0.02
-0.65
-1.49
-2.41
-3.37
-4.38
-5.43
-6.42
-7.17
-7.59
-7.68
-7.64
-7.71
-8.06
-8.70
-9.43
-9.98
-10.11
-9.73
-8.96
-8.03
-7.21
-6.70
-6.58
-6.82
-7.27
-7.73
-8.03
-8.06
-7.80
-7.30
-6.68
-6.04
-5.42
-4.84
-4.25
-3.58
-2.72
-1.61
-0.24
1.28
2.79
4.09
5.07
5.68
5.94
5.87
5.48
4.75
3.71
2.45
1.13
-0.02
-0.79
-1.15
-1.26
-1.52
-2.38
-4.19
-6.95
-10.32
-13.66
-16.30
-17.88
-18.51
-18.85
-19.81
-22.21
-26.37
-31.95
-38.02
-43.40
-47.23
-49.27
-50.14
-50.96
-52.96
-56.83
-62.44
-68.90
-74.90
-79.13
-80.79
-79.75
-76.66
-72.74
-69.75
-69.54
-73.55
-81.99
-93.01
-102.53
-104.85
-94.41
-67.91
-26.14
25.75
79.39
125.64
157.31
170.98
167.68
152.00
130.48
109.76
95.19
89.96
95.08
109.55
130.59
153.71
172.97
182.06
176.44
155.68
124.76
93.10
71.36
66.88
80.39
105.54
131.76
149.06
152.12
141.78
123.32
102.88
84.18
67.30
49.77
29.09
4.80
-20.73
-43.32
-59.01
-65.81
-64.46
-57.59
-48.36
-39.01
-30.42
-22.42
-14.66
-7.36
-1.60
1.02
-0.93
-7.87
-18.78
-31.16
-41.69
-47.28
-46.30
-39.28
-28.82
-18.74
-12.72
-12.97
-19.57
-30.68
-43.41
-54.98
-63.62
-68.90
-71.50
-72.62
-73.28
-74.05
-74.98
-75.88
-76.62
-77.28
-78.04
-79.01
-80.06
-80.79
-80.61
-78.92
-75.40
-70.18
-64.09
-58.70
-56.29
-59.55
-71.00
-92.04
-121.87
-156.60
-189.41
-211.92
-216.73
-200.06
-163.44
-113.34
-58.92
-8.81
31.49
60.50
79.88
92.57
101.13
107.00
110.83
113.01
114.16
115.11
116.61
119.04
122.55
127.04
132.40
138.50
145.20
152.36
159.87
167.67
175.60
183.33
190.13
195.08
197.41
196.97
194.46
191.19
188.35
186.24
183.79
178.98
169.89
155.91
138.35
120.01
104.08
92.63
85.85
82.20
79.32
75.17
68.79
60.31
50.47
39.96
29.07
17.67
5.59
-7.11
-20.21
-33.62
-47.76
-63.59
-82.07
-103.19
-125.31
-145.22
-159.24
-164.88
-162.13
-153.71
-143.98
-137.06
-135.16
-137.90
-142.94
-147.42
-149.10
-146.86
-140.41
-129.90
-115.66
-98.69
-81.08
-66.01
-56.77
-55.33
-60.86
-69.54
-75.89
-75.02
-64.93
-47.23
-26.17
-6.38
9.14
19.97
27.64
34.03
40.02
45.05
47.72
47.00
43.06
37.25
31.40
26.85
23.98
22.35
21.28
20.53
20.40
21.39
23.74
27.03
30.28
32.46
32.93
31.56
28.62
24.44
19.30
13.44
7.23
1.25
-4.06
-8.60
-12.87
-17.63
-23.55
-30.75
-38.67
-46.35
-52.81
-57.50
-60.39
-61.96
-63.05
-64.62
-67.52
-72.21
-78.62
-85.91
-92.72
-97.29
-97.86
-92.85
-81.16
-62.45
-37.37
-7.61
24.31
55.61
83.99
108.09
127.70
143.45
156.25
166.81
175.30
181.40
184.57
184.38
180.95
175.11
168.36
162.42
158.55
156.84
155.83
152.79
144.47
128.13
102.10
66.22
21.81
-28.40
-80.21
-128.30
-167.07
-192.04
-201.44
-197.18
-184.35
-169.49
-158.28
-153.70
-155.57
-161.50
-168.57
-174.66
-178.93
-181.26
-181.35
-178.26
-170.47
-156.71
-136.67
-111.58
-84.04
-57.16
-33.57
-14.69
-0.54
9.77
17.17
22.15
24.66
24.56
22.29
19.11
16.72
16.48
18.67
22.34
25.84
27.75
27.53
25.52
22.39
18.51
13.58
7.00
-1.51
-11.40
-21.27
-29.45
-34.69
-36.82
-36.66
-35.48
-34.31
-33.46
-32.64
-31.54
-30.67
-31.51
-36.16
-46.20
-61.56
-79.95
-97.22
-108.69
-110.72
-101.89
-83.29
-57.85
-29.30
-1.15
23.87
43.87
57.81
65.53
67.87
66.61
63.89
61.34
59.22
56.25
50.24
39.44
23.80
5.48
-11.71
-23.82
-28.27
-24.61
-14.40
-0.31
14.91
29.09
40.69
48.76
52.80
52.83
49.56
44.33
38.88
34.89
33.49
34.95
38.71
43.57
48.20
51.51
52.90
52.35
50.31
47.37
43.96
40.17
35.80
30.65
24.71
18.29
11.79
5.41
-1.05
-8.10
-16.19
-25.34
-34.94
-43.94
-51.21
-55.94
-57.85
-57.09
-54.14
-49.69
-44.66
-40.12
-37.11
-36.36
-38.09
-41.95
-47.27
-53.33
-59.53
-65.34
-70.12
-73.07
-73.27
-70.02
-63.05
-52.62
-39.33
-23.91
-7.06
10.41
27.29
41.96
52.58
57.69
56.63
49.84
38.84
25.91
13.82
5.30
2.29
5.17
12.16
19.52
22.61
17.55
2.70
-20.84
-50.04
-81.46
-112.61
-142.30
-169.93
-194.26
-212.77
-222.00
-218.86
-202.12
-173.12
-135.58
-94.22
-53.37
-15.88
17.03
45.18
68.70
87.56
101.58
110.88
116.16
118.82
120.60
123.03
127.04
132.73
139.45
145.95
150.81
152.85
151.58
147.45
141.64
135.47
129.57
123.42
115.46
103.91
87.84
67.90
46.23
25.80
9.38
-1.30
-5.89
-5.24
-0.99
4.79
9.97
12.79
12.43
9.24
4.75
1.01
-0.28
1.50
5.74
11.08
16.17
20.29
23.43
26.01
28.45
30.96
33.63
36.58
39.91
43.49
46.84
49.20
49.86
48.59
45.67
41.63
36.92
31.72
26.23
20.78
16.08
12.90
11.71
12.26
13.72
14.94
15.08
13.97
12.03
9.88
7.87
5.85
3.31
-0.17
-4.59
-9.32
-13.33
-15.68
-16.03
-14.86
-13.31
-12.66
-13.76
-16.62
-20.48
-24.19
-26.70
-27.44
-26.50
-24.41
-21.90
-19.62
-17.88
-16.62
-15.38
-13.44
-9.96
-4.21
4.21
15.13
27.79
40.99
53.44
64.09
72.38
78.38
82.55
85.54
87.86
89.84
91.54
92.92
93.87
94.30
94.08
93.01
90.73
86.68
80.14
70.39
57.08
40.54
21.98
3.17
-14.07
-28.52
-39.96
-49.04
-56.78
-63.91
-70.59
-76.35
-80.56
-82.81
-83.23
-82.33
-80.74
-78.90
-76.96
-74.90
-72.67
-70.22
-67.45
-64.08
-59.71
-54.01
-46.93
-38.91
-30.74
-23.26
-17.03
-12.14
-8.24
-4.92
-1.91
0.77
2.96
4.66
6.12
7.76
9.91
12.53
15.20
17.34
18.60
19.02
18.97
18.91
18.98
18.87
17.96
15.62
11.60
6.23
0.32
-5.15
-9.46
-12.36
-14.12
-15.30
-16.47
-17.87
-19.37
-20.61
-21.16
-20.89
-19.95
-18.69
-17.46
-16.41
-15.46
-14.36
-12.92
-11.07
-8.89
-6.52
-4.15
-1.92
-0.05
1.23
1.69
1.18
-0.25
-2.35
-4.75
-7.11
-9.19
-10.98
-12.64
-14.38
-16.39
-18.74
-21.33
-23.95
-26.33
-28.18
-29.35
-29.82
-29.71
-29.12
-28.06
-26.44
-24.16
-21.35
-18.39
-15.91
-14.47
-14.36
-15.31
-16.70
-17.76
-17.81
-16.46
-13.67
-9.75
-5.48
-2.09
-1.11
-3.97
-11.46
-23.41
-38.59
-55.05
-70.60
-83.17
-91.15
-93.51
-89.89
-80.63
-66.62
-49.03
-28.98
-7.24
15.57
38.72
60.95
80.54
95.62
104.86
107.92
105.53
99.13
90.28
80.14
69.36
58.27
47.19
36.60
27.08
19.11
12.86
8.07
4.25
0.94
-2.14
-4.94
-7.35
-9.30
-10.99
-12.78
-14.99
-17.63
-20.29
-22.33
-23.16
-22.52
-20.59
-17.82
-14.69
-11.55
-8.60
-5.93
-3.62
-1.75
-0.30
0.71
1.24
1.09
-0.08
-2.46
-5.84
-9.48
-12.31
-13.36
-12.26
-9.33
-5.35
-1.05
3.27
7.84
13.11
19.31
26.18
32.96
38.73
42.79
44.93
45.45
44.89
43.72
42.16
40.14
37.49
34.06
29.75
24.53
18.27
10.88
2.40
-6.81
-16.07
-24.56
-31.66
-37.06
-40.77
-42.95
-43.71
-43.06
-41.04
-37.94
-34.26
-30.52
-27.02
-23.65
-19.99
-15.61
-10.42
-4.80
0.58
5.13
8.60
11.17
13.24
15.05
16.47
17.05
16.32
14.08
10.65
6.69
2.93
-0.15
-2.47
-4.24
-5.79
-7.37
-9.02
-10.61
-11.87
-12.55
-12.44
-11.47
-9.76
-7.63
-5.59
-4.25
-4.18
-5.80
-9.18
-13.96
-19.26
-23.89
-26.64
-26.72
-23.99
-19.00
-12.78
-6.38
-0.56
4.40
8.68
12.69
16.86
21.51
26.73
32.42
38.35
44.26
50.00
55.53
60.89
66.14
71.22
75.96
80.21
83.89
87.06
89.80
92.06
93.52
93.63
91.78
87.58
81.02
72.49
62.61
51.97
41.03
30.05
19.19
8.60
-1.58
-11.23
-20.36
-29.00
-37.16
-44.66
-50.99
-55.46
-57.40
-56.51
-53.16
-48.39
-43.65
-40.27
-39.01
-39.84
-42.00
-44.36
-45.93
-46.15
-45.05
-43.03
-40.70
-38.54
-36.81
-35.56
-34.65
-33.88
-33.03
-31.93
-30.41
-28.43
-25.99
-23.27
-20.61
-18.50
-17.43
-17.79
-19.57
-22.42
-25.67
-28.60
-30.77
-32.23
-33.46
-35.12
-37.69
-41.16
-44.98
-48.29
-50.32
-50.72
-49.75
-48.10
-46.60
-45.85
-46.01
-46.79
-47.65
-48.09
-47.93
-47.46
-47.41
-48.68
-52.04
-57.68
-65.05
-72.82
-79.20
-82.40
-81.18
-75.33
-65.99
-55.42
-46.37
-40.99
-39.89
-41.75
-43.81
-43.04
-37.36
-26.37
-11.28
5.72
22.29
36.54
47.34
54.59
59.40
63.95
70.92
82.48
99.20
119.66
140.98
160.13
175.12
185.36
191.17
192.85
190.30
183.26
172.04
158.08
143.61
130.81
120.72
112.95
105.93
97.92
88.01
76.70
65.75
57.41
53.51
54.74
60.37
68.52
76.68
82.38
83.72
79.66
70.11
56.01
39.15
21.90
6.61
-5.15
-13.11
-18.33
-22.64
-27.78
-34.51
-42.50
-50.62
-57.62
-62.73
-65.79
-67.11
-67.07
-65.79
-63.17
-59.09
-53.72
-47.76
-42.28
-38.39
-36.79
-37.42
-39.43
-41.57
-42.61
-41.75
-38.91
-34.63
-29.94
-25.90
-23.23
-22.12
-22.19
-22.78
-23.28
-23.48
-23.58
-23.98
-24.91
-26.23
-27.46
-28.02
-27.59
-26.23
-24.32
-22.24
-20.28
-18.53
-17.09
-16.20
-16.10
-16.88
-18.19
-19.30
-19.41
-18.07
-15.52
-12.55
-10.18
-9.12
-9.48
-10.86
-12.69
-14.60
-16.54
-18.64
-20.93
-23.26
-25.32
-26.96
-28.20
-29.28
-30.33
-31.28
-31.79
-31.42
-29.97
-27.58
-24.71
-21.91
-19.58
-17.90
-16.86
-16.37
-16.39
-16.87
-17.78
-18.96
-20.20
-21.31
-22.26
-23.25
-24.62
-26.63
-29.26
-32.03
-34.14
-34.79
-33.48
-30.30
-25.88
-21.17
-17.07
-14.09
-12.09
-10.44
-8.27
-4.83
0.20
6.61
13.74
20.84
27.38
33.20
38.58
44.15
50.66
58.79
68.77
80.10
91.52
101.28
107.82
110.67
110.87
110.79
113.33
120.62
133.08
148.93
164.52
175.15
176.19
164.45
139.11
102.40
59.27
16.27
-20.32
-46.23
-60.33
-64.54
-62.80
-59.52
-58.32
-61.37
-69.40
-82.08
-98.44
-117.20
-136.86
-155.95
-173.08
-187.22
-197.89
-205.18
-209.65
-212.02
-212.83
-212.22
-210.01
-205.97
-200.14
-193.01
-185.22
-177.08
-168.18
-157.42
-143.48
-125.61
-104.28
-81.23
-59.00
-40.10
-26.11
-17.06
-11.25
-5.84
2.19
14.87
32.57
53.95
76.69
98.55
118.05
134.73
148.77
160.43
169.70
176.49
180.94
183.67
185.56
187.37
189.28
190.92
191.69
191.30
190.04
188.60
187.81
188.19
189.58
191.16
191.58
189.38
183.36
172.86
157.91
139.10
117.36
93.71
69.03
44.04
19.39
-4.12
-25.38
-42.99
-55.51
-61.88
-61.83
-56.06
-46.07
-33.69
-20.64
-8.22
2.68
11.51
17.85
21.52
22.65
21.77
19.63
16.88
13.82
10.38
6.40
1.95
-2.39
-5.67
-6.97
-5.84
-2.52
2.18
7.23
11.61
14.42
14.74
11.61
4.25
-7.65
-23.60
-42.20
-61.39
-78.60
-91.01
-95.89
-91.24
-76.67
-54.21
-28.50
-5.73
8.20
9.82
-0.72
-20.03
-43.15
-65.70
-85.05
-100.28
-111.09
-116.76
-115.91
-107.35
-91.25
-69.89
-47.25
-27.70
-14.38
-8.23
-7.96
-11.05
-14.91
-17.93
-19.69
-20.80
-22.19
-24.65
-28.41
-33.20
-38.39
-43.23
-47.11
-49.67
-50.78
-50.46
-48.86
-46.23
-42.94
-39.49
-36.35
-33.74
-31.49
-29.10
-25.98
-21.76
-16.54
-10.84
-5.36
-0.74
2.75
5.13
6.63
7.48
7.78
7.54
6.75
5.41
3.58
1.33
-1.33
-4.36
-7.67
-11.01
-13.99
-16.12
-16.96
-16.33
-14.38
-11.63
-8.78
-6.41
-4.80
-3.77
-2.81
-1.37
0.81
3.55
6.30
8.37
9.31
9.11
8.17
7.03
6.21
5.93
6.13
6.57
7.05
7.46
7.89
8.50
9.34
10.23
10.76
10.42
8.88
6.22
2.91
-0.32
-2.79
-4.14
-4.44
-4.02
-3.26
-2.43
-1.57
-0.58
0.63
2.01
3.38
4.45
5.01
4.98
4.52
3.97
3.65
3.72
4.00
4.08
3.52
2.10
-0.01
-2.31
-4.20
-5.29
-5.58
-5.37
-5.09
-5.04
-5.27
-5.66
-6.13
-6.70
-7.61
-9.00
-10.76
-12.42
-13.34
-13.09
-11.72
-9.78
-8.09
-7.24
-7.38
-8.17
-9.12
-9.79
-9.95
-9.50
-8.33
-6.31
-3.40
0.10
3.60
6.38
7.93
8.22
7.67
6.87
6.31
6.23
6.57
7.19
7.86
8.32
8.25
7.33
5.35
2.30
-1.49
-5.47
-8.98
-11.47
-12.66
-12.66
-11.87
-10.89
-10.25
-10.24
-10.82
-11.72
-12.58
-13.10
-13.02
-12.11
-10.17
-7.08
-2.97
1.67
6.13
9.68
11.95
13.13
13.79
14.61
16.01
17.92
19.89
21.33
21.83
21.39
20.38
19.44
19.17
19.94
21.76
24.24
26.77
28.69
29.50
28.93
26.93
23.67
19.43
14.66
9.90
5.80
2.87
1.35
1.07
1.56
2.18
2.47
2.25
1.65
0.94
0.40
0.18
0.30
0.68
1.24
1.84
2.37
2.66
2.62
2.32
1.96
1.84
2.22
3.12
4.34
5.52
6.32
6.59
6.45
6.19
6.09
6.27
6.65
7.00
7.14
7.08
7.00
7.20
7.91
9.17
10.86
12.75
14.62
16.30
17.66
18.57
18.92
18.61
17.64
16.14
14.33
12.43
10.55
8.79
7.23
6.06
5.46
5.57
6.20
6.86
6.85
5.53
2.57
-1.87
-7.19
-12.54
-17.08
-20.19
-21.62
-21.43
-19.96
-17.71
-15.23
-13.02
-11.45
-10.68
-10.70
-11.38
-12.50
-13.83
-15.17
-16.36
-17.26
-17.77
-17.79
-17.21
-15.94
-14.09
-11.99
-10.18
-9.20
-9.33
-10.39
-11.75
-12.67
-12.63
-11.62
-10.10
-8.72
-7.95
-7.91
-8.38
-9.09
-9.82
-10.51
-11.12
-11.49
-11.41
-10.64
-9.17
-7.16
-4.91
-2.65
-0.51
1.57
3.62
5.61
7.42
8.96
10.27
11.53
12.96
14.58
16.20
17.33
17.52
16.45
14.16
11.07
7.88
5.30
3.85
3.63
4.20
4.77
4.53
3.03
0.57
-1.82
-2.69
-0.65
5.03
14.19
25.74
37.98
48.85
56.46
59.39
57.28
51.06
42.85
35.35
30.86
30.43
33.38
37.70
40.79
40.48
35.68
26.45
13.65
-1.47
-17.59
-33.36
-47.24
-57.71
-63.51
-64.00
-59.59
-51.63
-42.09
-33.03
-25.93
-21.29
-18.70
-17.09
-15.20
-12.09
-7.44
-1.72
4.02
8.43
10.39
9.30
5.23
-1.14
-8.88
-17.18
-25.66
-34.64
-45.18
-58.66
-76.21
-97.82
-121.35
-142.55
-156.07
-157.70
-146.43
-125.32
-100.31
-77.60
-60.89
-49.91
-41.32
-31.32
-18.62
-5.47
3.58
4.57
-3.21
-16.52
-29.26
-35.56
-32.52
-21.91
-9.19
-0.81
-1.31
-11.39
-27.92
-44.94
-55.53
-53.18
-33.06
7.70
69.04
147.13
233.89
314.47
371.10
389.31
365.45
309.48
241.18
180.12
137.33
112.88
99.18
87.54
72.90
57.82
45.33
37.82
35.16
34.71
32.92
27.31
18.16
8.55
2.40
1.88
6.60
12.62
16.07
14.86
9.48
2.46
-3.66
-7.83
-10.95
-14.06
-16.89
-17.15
-11.94
0.24
17.89
36.61
50.78
55.66
49.43
33.57
12.08
-10.42
-30.14
-44.77
-53.16
-55.04
-50.81
-41.61
-29.52
-17.27
-7.60
-2.21
-1.01
-2.03
-2.14
1.65
10.98
25.35
42.18
57.50
67.24
68.47
60.26
43.77
21.85
-1.84
-23.79
-41.42
-53.51
-60.25
-62.95
-63.44
-63.50
-64.21
-65.83
-67.92
-69.74
-70.79
-71.00
-70.72
-70.41
-70.28
-70.18
-69.63
-68.17
-65.65
-62.39
-59.05
-56.26
-54.23
-52.66
-50.88
-48.17
-44.24
-39.29
-33.89
-28.64
-23.77
-19.04
-13.90
-7.99
-1.49
4.76
9.48
11.48
10.20
5.98
-0.15
-6.87
-13.15
-18.51
-22.98
-26.69
-29.61
-31.51
-32.08
-31.25
-29.24
-26.44
-23.22
-19.80
-16.31
-12.90
-9.86
-7.47
-5.91
-5.10
-4.77
-4.65
-4.60
-4.61
-4.73
-4.97
-5.23
-5.45
-5.60
-5.62
-5.34
-4.47
-2.67
0.20
4.01
8.23
12.11
14.75
15.38
13.46
8.93
2.20
-5.79
-13.84
-20.79
-25.89
-29.01
-30.60
-31.45
-32.41
-34.10
-36.83
-40.55
-44.91
-49.26
-52.82
-54.73
-54.39
-51.57
-46.65
-40.56
-34.62
-30.21
-28.42
-29.60
-33.09
-37.21
-39.61
-38.03
-31.23
-19.70
-5.77
7.01
15.01
15.72
8.58
-4.95
-21.92
-38.80
-52.45
-60.67
-62.58
-58.66
-50.63
-41.13
-33.30
-30.00
-32.93
-41.82
-53.98
-64.82
-69.40
-64.39
-49.57
-28.05
-4.85
15.32
29.94
39.20
45.12
49.93
54.76
59.41
63.08
65.31
66.51
67.67
69.77
73.21
77.65
82.39
86.74
90.30
92.95
94.87
96.32
97.60
98.81
99.78
100.09
99.20
96.87
93.39
89.67
86.91
86.08
87.36
89.93
92.24
92.57
89.79
83.74
75.22
65.57
56.02
47.26
39.32
31.80
24.21
16.36
8.45
0.99
-5.51
-10.77
-14.81
-18.05
-21.04
-24.33
-28.15
-32.35
-36.44
-39.72
-41.53
-41.47
-39.53
-36.05
-31.58
-26.59
-21.32
-15.75
-9.74
-3.23
3.59
10.25
16.15
20.77
23.85
25.47
26.05
26.12
26.27
26.93
28.28
30.15
31.92
32.59
30.97
26.07
17.48
5.69
-7.81
-20.73
-30.52
-34.98
-32.99
-24.89
-12.47
1.42
13.66
21.67
24.11
21.08
13.98
4.83
-4.36
-12.16
-17.93
-21.69
-23.84
-24.98
-25.75
-26.70
-28.22
-30.37
-32.77
-34.77
-35.78
-35.70
-35.14
-35.09
-36.37
-39.09
-42.54
-45.55
-47.13
-46.94
-45.27
-42.73
-39.74
-36.40
-32.62
-28.50
-24.37
-20.54
-16.81
-12.32
-5.96
2.87
13.69
25.02
35.01
42.39
46.95
49.43
50.80
51.70
52.18
51.99
51.11
49.95
49.14
49.06
49.43
49.35
47.75
43.89
37.73
29.95
21.63
13.90
7.51
2.64
-1.09
-4.35
-7.71
-11.34
-14.87
-17.62
-19.01
-19.05
-18.36
-18.06
-19.28
-22.68
-28.20
-34.95
-41.50
-46.21
-47.72
-45.48
-39.95
-32.60
-25.36
-19.97
-17.34
-17.38
-19.34
-22.27
-25.50
-28.55
-30.93
-31.83
-30.18
-25.12
-16.56
-5.41
6.73
18.18
27.90
35.74
42.23
48.06
53.69
59.09
63.83
67.34
69.03
68.51
65.67
60.85
54.94
49.35
45.67
45.11
48.07
53.90
61.09
67.78
72.39
73.93
72.11
67.17
59.68
50.39
40.21
30.16
21.25
14.24
9.47
6.75
5.42
4.68
3.72
2.02
-0.65
-4.25
-8.60
-13.53
-18.89
-24.54
-30.29
-35.92
-41.23
-46.15
-50.72
-55.04
-59.06
-62.55
-65.19
-66.76
-67.34
-67.34
-67.27
-67.48
-67.88
-68.02
-67.34
-65.52
-62.65
-59.22
-55.80
-52.81
-50.36
-48.33
-46.51
-44.75
-43.03
-41.44
-40.08
-38.97
-38.04
-37.16
-36.24
-35.31
-34.52
-33.97
-33.68
-33.52
-33.25
-32.65
-31.64
-30.24
-28.52
-26.55
-24.27
-21.63
-18.60
-15.25
-11.68
-7.92
-3.87
0.61
5.55
10.77
15.87
20.41
24.11
26.94
29.04
30.62
31.79
32.59
33.02
33.09
32.75
31.84
30.11
27.32
23.43
18.74
13.87
9.57
6.50
5.03
5.20
6.73
9.17
11.86
14.10
15.23
14.85
12.96
9.95
6.44
2.99
-0.13
-3.04
-6.19
-10.15
-15.41
-22.17
-30.26
-39.08
-47.83
-55.57
-61.68
-66.12
-69.84
-74.88
-84.02
-99.86
-123.51
-153.52
-185.52
-213.11
-229.76
-231.06
-216.19
-187.85
-150.73
-109.56
-67.73
-27.10
11.16
45.85
75.60
99.49
117.80
132.20
145.09
158.54
173.41
189.14
204.24
217.06
226.17
230.76
230.42
225.43
216.93
206.92
197.79
191.65
189.41
190.28
191.88
190.95
184.45
170.50
148.93
121.23
89.97
57.98
27.51
-0.16
-24.82
-47.02
-67.50
-86.63
-104.06
-118.79
-129.77
-136.59
-139.99
-141.64
-143.29
-145.85
-148.83
-150.66
-149.70
-145.26
-138.01
-129.50
-121.34
-114.48
-109.08
-104.92
-101.85
-99.87
-98.85
-98.25
-97.26
-95.14
-91.72
-87.61
-83.87
-81.55
-81.11
-82.20
-83.72
-84.29
-82.71
-78.39
-71.32
-61.86
-50.32
-36.65
-20.46
-1.33
20.66
44.54
68.41
89.81
106.42
116.86
121.17
120.88
118.48
116.52
116.69
119.20
122.83
125.59
125.64
122.02
114.86
105.02
93.53
81.27
68.87
57.01
46.53
38.33
33.07
30.82
30.96
32.30
33.48
33.36
31.31
27.26
21.73
15.56
9.67
4.89
1.70
0.21
0.15
0.98
2.09
2.95
3.31
3.14
2.66
2.16
1.90
2.00
2.38
2.79
2.92
2.51
1.49
0.07
-1.33
-2.26
-2.49
-2.16
-1.79
-2.06
-3.54
-6.41
-10.46
-15.20
-20.07
-24.58
-28.31
-30.74
-31.26
-29.25
-24.34
-16.63
-6.77
4.22
15.29
25.74
35.31
44.05
52.02
59.04
64.59
68.03
68.83
66.76
62.00
54.91
45.88
35.20
23.13
10.01
-3.63
-17.13
-29.86
-41.44
-51.80
-61.08
-69.33
-76.21
-80.93
-82.48
-80.01
-73.23
-62.68
-49.59
-35.56
-22.09
-10.20
-0.24
8.01
15.12
21.59
27.58
32.84
36.87
39.25
39.89
39.16
37.75
36.29
35.10
34.08
32.81
30.86
28.00
24.33
20.17
16.00
12.32
9.60
8.14
7.98
8.77
9.82
10.36
9.88
8.38
6.39
4.60
3.41
2.63
1.64
-0.23
-3.17
-6.69
-9.90
-12.02
-12.94
-13.27
-13.98
-15.82
-18.79
-22.10
-24.61
-25.44
-24.35
-21.89
-19.00
-16.56
-15.05
-14.46
-14.49
-14.78
-15.10
-15.37
-15.57
-15.69
-15.68
-15.51
-15.24
-14.99
-14.93
-15.22
-15.89
-16.84
-17.83
-18.58
-18.84
-18.45
-17.40
-15.78
-13.75
-11.47
-9.14
-6.92
-4.97
-3.39
-2.12
-0.97
0.27
1.81
3.63
5.57
7.36
8.78
9.75
10.31
10.49
10.22
9.36
7.82
5.72
3.43
1.45
0.21
-0.18
0.08
0.62
1.11
1.43
1.73
2.21
3.01
4.00
4.81
4.95
4.02
1.94
-1.08
-4.55
-7.92
-10.64
-12.33
-12.72
-11.75
-9.58
-6.73
-4.02
-2.37
-2.47
-4.35
-7.34
-10.29
-12.14
-12.46
-11.63
-10.62
-10.44
-11.57
-13.75
-16.18
-17.93
-18.39
-17.53
-15.81
-14.00
-12.85
-12.81
-13.96
-15.90
-17.96
-19.48
-20.09
-19.86
-19.25
-18.83
-18.94
-19.64
-20.82
-22.30
-23.70
-23.92
-20.86
-11.85
5.15
30.13
60.36
91.07
117.17
135.23
144.45
146.13
142.23
134.07
122.05
106.55
89.14
72.85
61.40
57.44
61.21
70.26
80.49
87.65
88.66
82.21
68.75
50.02
28.54
7.05
-12.00
-26.89
-36.96
-42.51
-44.48
-43.95
-41.86
-38.96
-35.96
-33.64
-32.77
-33.86
-36.83
-41.00
-45.29
-48.71
-50.66
-51.05
-50.24
-48.82
-47.35
-46.15
-45.25
-44.38
-43.17
-41.36
-38.95
-36.27
-33.77
-31.84
-30.64
-29.99
-29.50
-28.74
-27.41
-25.41
-22.85
-20.04
-17.28
-14.88
-12.98
-11.56
-10.51
-9.67
-8.98
-8.47
-8.25
-8.38
-8.80
-9.31
-9.66
-9.69
-9.44
-9.08
-8.84
-8.87
-9.16
-9.57
-9.90
-10.00
-9.84
-9.51
-9.19
-9.05
-9.14
-9.36
-9.46
-9.16
-8.26
-6.81
-5.06
-3.35
-1.97
-0.99
-0.28
0.35
0.99
1.57
1.91
1.88
1.49
0.91
0.34
-0.10
-0.45
-0.81
-1.20
-1.56
-1.78
-1.78
-1.66
-1.60
-1.81
-2.29
-2.89
-3.32
-3.34
-2.83
-1.84
-0.56
0.77
1.92
2.71
3.08
3.05
2.75
2.33
1.90
1.50
1.11
0.73
0.43
0.35
0.63
1.29
2.17
2.98
3.44
3.38
2.86
2.10
1.40
0.95
0.85
1.01
1.29
1.55
1.69
1.70
1.63
1.57
1.59
1.70
1.91
2.16
2.43
2.68
2.91
3.09
3.18
3.13
2.85
2.35
1.70
1.03
0.46
0.07
-0.22
-0.51
-0.95
-1.54
-2.18
-2.65
-2.76
-2.42
-1.71
-0.84
-0.03
0.55
0.86
0.95
0.87
0.64
0.26
-0.26
-0.86
-1.41
-1.75
-1.80
-1.62
-1.33
-1.13
-1.10
-1.21
-1.33
-1.33
-1.16
-0.96
-0.90
-1.16
-1.75
-2.57
-3.34
-3.77
-3.62
-2.82
-1.49
0.08
