1539692538.00
64.000000
-0.00
-0.00
-0.00
-0.00
-0.00
-0.00
-0.00
-0.00
-0.00
-0.00
0.00
0.01
0.01
-0.00
-0.03
-0.05
-0.05
0.00
0.13
0.36
0.66
1.01
1.37
1.72
2.06
2.40
2.79
3.24
3.80
4.42
5.06
5.66
6.20
6.68
7.15
7.68
8.31
9.15
10.11
11.08
11.95
12.67
13.30
14.00
14.98
16.41
18.49
21.04
23.79
26.44
28.81
30.99
33.28
36.12
39.82
44.77
50.60
56.81
62.79
68.21
73.11
78.00
83.57
90.34
98.86
108.61
118.80
128.54
137.27
145.02
152.44
160.86
168.99
179.07
191.71
207.00
223.75
239.04
248.53
247.64
233.00
203.74
162.24
112.31
58.30
3.42
-50.78
-104.06
-156.44
-207.62
-256.74
-302.35
-343.55
-379.64
-410.06
-433.95
-450.00
-456.45
-451.67
-434.84
-406.11
-367.15
-320.53
-269.29
-216.33
-164.80
-116.58
-72.64
-33.37
1.20
31.02
56.11
76.58
92.75
105.18
114.77
122.37
128.64
134.00
138.57
142.28
144.94
146.42
146.69
145.91
144.22
141.69
138.28
133.82
128.61
122.76
116.36
109.53
102.46
95.31
88.17
81.13
74.25
67.56
61.06
54.75
48.63
42.77
37.19
31.93
27.02
22.46
18.30
14.49
11.02
7.86
5.03
2.52
0.30
-1.62
-3.28
-4.69
-5.89
-6.94
-7.86
-8.69
-9.43
-10.10
-10.71
-11.26
-11.76
-12.21
-12.63
-13.01
-13.36
-13.68
-13.96
-14.21
-14.40
-14.55
-14.64
-14.69
-14.70
-14.67
-14.61
-14.53
-14.44
-14.34
-14.27
-14.20
-14.17
-14.18
-14.21
-14.28
-14.38
-14.49
-14.61
-14.71
-14.78
-14.80
-14.77
-14.67
-14.50
-14.25
-13.92
-13.52
-13.06
-12.53
-11.95
-11.32
-10.64
-9.90
-9.12
-8.27
-7.37
-6.41
-5.38
-4.28
-3.13
-1.91
-0.65
0.66
2.02
3.41
4.83
6.28
7.76
9.28
10.84
12.46
14.17
15.99
17.93
20.01
22.22
24.52
26.85
29.07
31.04
32.51
33.27
33.05
31.62
28.77
24.40
18.51
11.27
2.96
-6.04
-15.27
-24.29
-32.68
-40.12
-46.33
-51.17
-54.52
-56.38
-56.81
-55.94
-53.97
-51.14
-47.72
-43.94
-39.94
-35.75
-31.34
-26.64
-21.60
-16.31
-10.93
-5.71
-0.87
3.48
7.44
11.24
15.17
19.41
23.94
28.44
32.46
35.58
37.62
38.70
39.26
39.78
40.55
41.45
41.92
41.13
38.34
33.16
25.76
16.66
6.55
-4.09
-15.20
-27.16
-40.59
-56.33
-75.31
-98.41
-125.98
-157.16
-189.44
-218.76
-240.48
-250.96
-248.99
-236.26
-216.69
-194.70
-173.61
-154.87
-138.37
-123.42
-109.73
-97.55
-87.28
-78.81
-71.38
-63.87
-55.49
-46.30
-37.05
-28.88
-22.55
-18.08
-14.80
-11.79
-8.29
-4.09
0.52
4.91
8.52
11.07
12.72
13.88
15.02
16.44
18.12
19.79
21.10
21.82
21.94
21.70
21.43
21.39
21.63
22.01
22.27
22.14
21.58
20.72
19.83
19.15
18.82
18.78
18.92
19.09
19.19
19.18
18.99
18.50
17.60
16.32
14.85
13.54
12.74
12.62
13.12
13.93
14.68
15.06
14.91
14.27
13.31
12.25
11.28
10.62
10.43
10.76
11.54
12.54
13.45
14.01
14.08
13.73
13.15
12.52
11.95
11.40
10.79
10.07
9.34
8.83
8.74
9.12
9.83
10.55
11.02
11.09
10.84
10.43
9.99
9.53
8.99
8.26
7.43
6.70
6.31
6.38
6.79
7.29
7.62
7.71
7.64
7.53
7.42
7.17
6.69
5.96
5.15
4.52
4.31
4.59
5.22
6.00
6.65
7.00
6.96
6.55
5.88
5.18
4.72
4.73
5.22
5.99
6.65
6.88
6.58
5.90
5.17
4.66
4.50
4.67
5.01
5.33
5.54
5.65
5.75
5.87
5.97
5.91
5.56
4.90
4.07
3.37
3.06
3.27
3.92
4.78
5.53
5.94
5.90
5.46
4.71
3.83
2.97
2.29
1.88
1.75
1.80
1.91
2.03
2.16
2.37
2.69
3.11
3.51
3.84
4.03
4.12
4.13
4.08
3.92
3.64
3.24
2.78
2.39
2.16
2.14
2.31
2.61
2.94
3.16
3.20
3.01
2.65
2.28
2.07
2.21
2.70
3.42
4.13
4.60
4.68
4.38
3.79
3.05
2.23
1.44
0.77
0.37
0.37
0.78
1.43
2.03
2.31
2.17
1.71
1.26
1.10
1.35
1.84
2.27
2.37
2.06
1.52
1.06
0.95
1.31
1.98
2.69
3.20
3.38
3.34
3.24
3.17
3.09
2.84
2.35
1.67
1.09
0.89
1.24
2.01
2.84
3.39
3.44
3.09
2.57
2.16
2.01
2.09
2.29
2.50
2.69
2.80
2.82
2.69
2.36
1.83
1.18
0.51
-0.00
-0.25
-0.17
0.19
0.74
1.32
1.79
2.03
2.02
1.83
1.57
1.37
1.28
1.35
1.54
1.83
2.15
2.37
2.39
2.14
1.70
1.27
1.13
1.40
1.98
2.53
2.64
2.08
0.97
-0.29
-1.18
-1.39
-0.95
-0.18
0.55
0.99
1.12
1.04
0.91
0.73
0.46
0.08
-0.33
-0.58
-0.48
0.02
0.82
1.66
2.24
2.36
2.02
1.37
0.64
0.07
-0.22
-0.21
0.02
0.39
0.85
1.42
2.09
2.83
3.52
4.04
4.23
4.02
3.46
2.70
1.89
1.21
0.76
0.56
0.56
0.65
0.71
0.73
0.77
0.93
1.32
1.90
2.47
2.78
2.64
2.04
1.22
0.54
0.26
0.44
0.93
1.45
1.74
1.77
1.64
1.59
1.76
2.11
2.43
2.41
1.89
0.92
-0.23
-1.14
-1.55
-1.37
-0.79
-0.09
0.46
0.77
0.92
1.02
1.18
1.39
1.58
1.71
1.75
1.70
1.54
1.23
0.79
0.28
-0.16
-0.45
-0.54
-0.46
-0.29
-0.08
0.14
0.34
0.49
0.51
0.37
0.10
-0.12
-0.08
0.35
1.12
1.99
2.62
2.79
2.47
1.80
1.09
0.60
0.54
0.90
1.57
2.26
2.73
2.84
2.58
2.10
1.63
1.32
1.22
1.21
1.10
0.73
0.14
-0.44
-0.73
-0.55
0.08
0.84
1.30
1.15
0.38
-0.64
-1.44
-1.61
-1.06
-0.08
0.89
1.54
1.82
1.88
1.99
2.20
2.43
2.46
2.16
1.61
1.02
0.60
0.43
0.37
0.23
-0.11
-0.56
-0.90
-0.87
-0.39
0.38
1.07
1.35
1.09
0.40
-0.42
-1.11
-1.52
-1.68
-1.72
-1.69
-1.58
-1.26
-0.68
0.15
1.08
1.94
2.61
3.08
3.39
3.60
3.71
3.65
3.33
2.69
1.75
0.67
-0.32
-0.99
-1.24
-1.11
-0.70
-0.13
0.57
1.39
2.23
2.85
2.98
2.45
1.42
0.34
-0.26
-0.04
0.87
2.01
2.73
2.66
1.78
0.48
-0.70
-1.34
-1.33
-0.83
-0.19
0.23
0.25
-0.09
-0.56
-0.89
-0.84
-0.31
0.61
1.70
2.70
3.33
3.47
3.14
2.60
2.14
1.95
2.06
2.24
2.16
1.60
0.57
-0.66
-1.70
-2.21
-2.01
-1.18
0.05
1.36
2.40
2.92
2.77
1.99
0.85
-0.21
-0.79
-0.69
-0.01
0.85
1.42
1.35
0.63
-0.47
-1.46
-2.00
-1.87
-1.17
-0.17
0.81
1.48
1.77
1.70
1.42
1.07
0.77
0.55
0.38
0.23
0.16
0.27
0.68
1.36
2.09
2.48
2.23
1.29
-0.05
-1.26
-1.82
-1.51
-0.53
0.65
1.51
1.80
1.55
1.04
0.54
0.22
0.02
-0.18
-0.35
-0.39
-0.17
0.34
0.92
1.21
0.93
0.09
-0.97
-1.70
-1.67
-0.83
0.46
1.58
2.04
1.67
0.77
-0.13
-0.52
-0.25
0.52
1.42
2.06
2.28
2.16
1.92
1.73
1.63
1.53
1.32
1.01
0.67
0.45
0.38
0.35
0.15
-0.35
-1.14
-1.98
-2.58
-2.72
-2.42
-1.87
-1.29
-0.83
-0.50
-0.19
0.17
0.62
1.16
1.78
2.49
3.18
3.70
3.79
3.32
2.31
1.03
-0.16
-0.94
-1.18
-0.96
-0.42
0.32
1.24
2.31
3.40
4.23
4.46
3.87
2.56
0.93
-0.48
-1.24
-1.29
-0.87
-0.44
-0.37
-0.77
-1.44
-1.97
-2.03
-1.53
-0.63
0.34
1.09
1.47
1.56
1.55
1.63
1.93
2.34
2.63
2.57
2.01
1.04
-0.08
-0.99
-1.38
-1.11
-0.31
0.74
1.66
2.19
2.22
1.86
1.32
0.76
0.26
-0.23
-0.79
-1.41
-1.91
-2.07
-1.67
-0.69
0.62
1.84
2.59
2.70
2.29
1.64
1.06
0.71
0.53
0.34
0.09
-0.21
-0.41
-0.42
-0.23
0.01
0.14
0.15
0.12
0.22
0.48
0.81
1.02
0.93
0.59
0.19
-0.01
0.11
0.50
0.94
1.17
1.06
0.71
0.28
0.02
0.01
0.18
0.39
0.54
0.61
0.69
0.85
1.05
1.09
0.71
-0.16
-1.30
-2.25
-2.50
-1.81
-0.42
1.06
1.98
1.96
1.13
0.03
-0.77
-0.88
-0.33
0.59
1.43
1.89
1.88
1.55
1.15
0.91
0.94
1.20
1.49
1.56
1.25
0.59
-0.17
-0.72
-0.85
-0.61
-0.24
-0.08
-0.34
-0.90
-1.42
-1.51
-0.97
0.06
1.12
1.70
1.52
0.69
-0.35
-1.02
-1.05
-0.52
0.23
0.83
1.12
1.25
1.44
1.82
2.28
2.53
2.39
1.82
1.06
0.42
0.09
0.02
0.05
-0.01
-0.15
-0.25
-0.15
0.23
0.83
1.47
1.95
2.15
2.05
1.70
1.21
0.70
0.25
-0.04
-0.16
-0.21
-0.31
-0.60
-1.08
-1.54
-1.67
-1.31
-0.50
0.39
0.94
0.91
0.39
-0.24
-0.56
-0.41
0.07
0.57
0.78
0.68
0.45
0.40
0.67
1.17
1.67
1.92
1.77
1.28
0.65
0.14
-0.02
0.24
0.84
1.51
1.96
1.99
1.61
1.05
0.66
0.66
1.06
1.59
1.89
1.72
1.12
0.34
-0.29
-0.57
-0.50
-0.25
-0.04
-0.01
-0.13
-0.29
-0.42
-0.50
-0.59
-0.75
-0.96
-1.10
-1.06
-0.78
-0.32
0.20
0.64
0.92
1.05
1.07
1.04
0.89
0.54
-0.09
-0.98
-1.97
-2.76
-3.04
-2.63
-1.49
0.11
1.69
2.72
2.80
1.92
0.43
-1.02
-1.81
-1.63
-0.65
0.65
1.70
2.19
2.19
2.01
1.96
2.07
2.15
1.98
1.46
0.84
0.48
0.66
1.30
2.06
2.42
2.09
1.10
-0.24
-1.44
-2.09
-2.00
-1.31
-0.32
0.54
1.00
0.98
0.60
0.14
-0.16
-0.20
-0.09
-0.00
-0.14
-0.50
-1.00
-1.43
-1.63
-1.54
-1.22
-0.73
-0.12
0.56
1.21
1.67
1.72
1.27
0.41
-0.58
-1.32
-1.54
-1.17
-0.37
0.58
1.41
1.97
2.17
2.05
1.69
1.21
0.74
0.45
0.47
0.76
1.15
1.41
1.35
0.98
0.49
0.13
0.10
0.45
1.13
1.96
2.73
3.24
3.29
2.79
1.77
0.44
-0.89
-1.89
-2.33
-2.14
-1.47
-0.58
0.28
0.94
1.34
1.50
1.49
1.36
1.14
0.87
0.56
0.32
0.21
0.29
0.51
0.75
0.85
0.67
0.21
-0.43
-1.05
-1.43
-1.43
-1.03
-0.45
0.05
0.19
-0.10
-0.60
-0.98
-0.93
-0.38
0.45
1.16
1.42
1.13
0.49
-0.20
-0.68
-0.91
-0.99
-1.09
-1.22
-1.26
-1.07
-0.61
-0.03
0.39
0.38
-0.18
-1.09
-1.97
-2.45
-2.36
-1.77
-0.98
-0.26
0.31
0.79
1.30
1.84
2.23
2.26
1.88
1.31
0.93
1.05
1.69
2.59
3.28
3.44
3.03
2.29
1.56
1.09
0.90
0.81
0.59
0.09
-0.62
-1.30
-1.69
-1.61
-1.09
-0.29
0.54
1.18
1.54
1.66
1.61
1.48
1.31
1.05
0.66
0.10
-0.53
-1.10
-1.44
-1.42
-1.09
-0.59
-0.19
-0.06
-0.26
-0.63
-0.96
-1.07
-0.95
-0.71
-0.52
-0.40
-0.26
0.06
0.66
1.42
2.04
2.25
1.90
1.09
0.14
-0.59
-0.90
-0.74
-0.30
0.19
0.54
0.70
0.69
0.61
0.61
0.73
1.00
1.31
1.58
1.72
1.68
1.51
1.28
1.06
0.87
0.68
0.45
0.19
-0.09
-0.33
-0.49
-0.58
-0.64
-0.70
-0.76
-0.83
-0.89
-0.91
-0.91
-0.90
-0.88
-0.87
-0.82
-0.67
-0.37
0.18
0.96
1.86
2.62
2.97
2.71
1.86
0.70
-0.39
-1.01
-0.99
-0.37
0.60
1.53
2.11
2.15
1.70
0.94
0.16
-0.35
-0.44
-0.10
0.45
0.90
1.01
0.68
0.04
-0.60
-0.98
-0.96
-0.60
-0.09
0.38
0.70
0.84
0.82
0.65
0.34
-0.13
-0.66
-1.11
-1.33
-1.29
-1.03
-0.74
-0.54
-0.47
-0.49
-0.49
-0.46
-0.41
-0.39
-0.37
-0.28
0.01
0.53
1.18
1.76
2.04
1.95
1.58
1.12
0.86
0.91
1.22
1.59
1.78
1.67
1.28
0.78
0.33
0.00
-0.24
-0.51
-0.87
-1.28
-1.62
-1.72
-1.51
-1.07
-0.58
-0.19
0.01
0.09
0.19
0.39
0.67
0.88
0.91
0.74
0.48
0.29
0.27
0.35
0.34
0.11
-0.34
-0.82
-1.03
-0.77
-0.06
0.85
1.58
1.89
1.73
1.33
0.95
0.79
0.81
0.82
0.62
0.18
-0.32
-0.58
-0.42
0.16
0.88
1.36
1.36
0.93
0.35
-0.03
0.01
0.33
0.66
0.63
0.07
-0.92
-1.97
-2.61
-2.51
-1.61
-0.17
1.34
2.38
2.70
2.29
1.46
0.58
-0.17
-0.74
-1.28
-1.83
-2.29
-2.43
-2.02
-1.10
0.05
0.93
1.18
0.74
-0.08
-0.75
-0.86
-0.33
0.53
1.21
1.34
0.85
0.06
-0.53
-0.51
0.20
1.35
2.44
3.01
2.87
2.08
0.91
-0.27
-1.17
-1.60
-1.53
-1.01
-0.25
0.49
0.97
1.10
0.92
0.57
0.24
-0.02
-0.22
-0.36
-0.43
-0.34
-0.08
0.29
0.54
0.46
-0.03
-0.75
-1.36
-1.49
-0.99
-0.04
0.97
1.61
1.67
1.22
0.51
-0.10
-0.41
-0.40
-0.23
-0.06
-0.08
-0.26
-0.45
-0.46
-0.19
0.23
0.58
0.58
0.14
-0.60
-1.28
-1.51
-1.06
-0.00
1.28
2.31
2.72
2.47
1.75
0.96
0.37
0.12
0.08
0.05
-0.05
-0.22
-0.27
-0.05
0.42
0.95
1.26
1.19
0.82
0.38
0.20
0.38
0.82
1.27
1.47
1.37
1.11
0.93
1.02
1.33
1.66
1.75
1.45
0.77
-0.09
-0.86
-1.30
-1.33
-1.02
-0.58
-0.21
-0.08
-0.24
-0.63
-1.09
-1.44
-1.54
-1.32
-0.88
-0.43
-0.24
-0.49
-1.17
-2.08
-2.85
-3.16
-2.85
-2.08
-1.13
-0.36
0.06
0.21
0.28
0.43
0.69
0.95
1.10
1.17
1.33
1.75
2.46
3.22
3.69
3.54
2.67
1.29
-0.16
-1.27
-1.80
-1.68
-1.04
-0.07
1.01
1.98
2.57
2.60
2.02
1.02
-0.05
-0.88
-1.29
-1.33
-1.25
-1.24
-1.32
-1.37
-1.19
-0.72
-0.11
0.41
0.67
0.69
0.65
0.75
1.06
1.44
1.70
1.67
1.42
1.10
0.88
0.83
0.83
0.66
0.18
-0.63
-1.56
-2.28
-2.50
-2.07
-1.09
0.06
0.90
1.06
0.53
-0.43
-1.28
-1.61
-1.33
-0.61
0.15
0.70
1.01
1.21
1.42
1.65
1.75
1.56
1.07
0.44
-0.08
-0.27
-0.07
0.42
1.01
1.49
1.62
1.26
0.36
-0.95
-2.32
-3.27
-3.48
-2.89
-1.82
-0.80
-0.21
-0.16
-0.42
-0.64
-0.59
-0.31
0.00
0.13
0.09
0.10
0.43
1.17
2.11
2.89
3.15
2.81
2.05
1.20
0.58
0.34
0.40
0.59
0.71
0.68
0.51
0.30
0.18
0.22
0.38
0.51
0.44
0.06
-0.64
-1.47
-2.13
-2.36
-2.05
-1.31
-0.40
0.36
0.74
0.68
0.29
-0.20
-0.58
-0.73
-0.62
-0.35
0.01
0.40
0.80
1.18
1.50
1.68
1.67
1.54
1.43
1.53
1.93
2.55
3.18
3.53
3.38
2.67
1.55
0.27
-0.83
-1.49
-1.58
-1.14
-0.38
0.35
0.73
0.54
-0.21
-1.25
-2.12
-2.47
-2.12
-1.23
-0.19
0.60
0.92
0.84
0.60
0.40
0.29
0.14
-0.20
-0.76
-1.34
-1.63
-1.37
-0.61
0.36
1.07
1.20
0.69
-0.22
-1.09
-1.56
-1.50
-1.03
-0.47
-0.12
-0.18
-0.60
-1.18
-1.65
-1.81
-1.63
-1.20
-0.69
-0.22
0.13
0.36
0.48
0.51
0.46
0.39
0.37
0.45
0.64
0.87
1.07
1.14
1.06
0.81
0.41
-0.07
-0.57
-0.93
-0.99
-0.65
0.04
0.86
1.52
1.80
1.70
1.39
1.12
1.06
1.20
1.36
1.41
1.30
1.09
0.95
0.97
1.12
1.26
1.25
1.02
0.64
0.26
0.01
-0.04
0.07
0.29
0.50
0.61
0.52
0.14
-0.54
-1.42
-2.29
-2.89
-2.97
-2.50
-1.59
-0.49
0.51
1.17
1.38
1.12
0.51
-0.23
-0.91
-1.31
-1.37
-1.14
-0.79
-0.52
-0.45
-0.51
-0.56
-0.47
-0.21
0.15
0.49
0.67
0.68
0.53
0.31
0.12
-0.01
-0.05
-0.02
0.04
0.15
0.32
0.57
0.90
1.24
1.49
1.59
1.52
1.32
1.11
0.96
0.89
0.86
0.83
0.77
0.75
0.82
0.97
1.09
0.99
0.52
-0.32
-1.36
-2.36
-3.07
-3.36
-3.26
-2.86
-2.27
-1.55
-0.74
0.10
0.85
1.36
1.50
1.29
0.85
0.41
0.16
0.17
0.38
0.66
0.87
0.88
0.65
0.17
-0.45
-1.09
-1.56
-1.71
-1.48
-0.88
-0.09
0.70
1.32
1.70
1.87
1.91
1.89
1.84
1.72
1.53
1.24
0.85
0.38
-0.15
-0.68
-1.10
-1.28
-1.16
-0.77
-0.23
0.27
0.62
0.80
0.82
0.74
0.59
0.32
-0.08
-0.57
-0.99
-1.16
-0.94
-0.34
0.44
1.12
1.42
1.20
0.58
-0.16
-0.67
-0.74
-0.39
0.16
0.59
0.71
0.53
0.28
0.12
0.16
0.30
0.40
0.31
0.05
-0.22
-0.38
-0.38
-0.32
-0.32
-0.46
-0.70
-0.93
-1.01
-0.88
-0.54
-0.02
0.51
0.93
1.08
0.90
0.43
-0.16
-0.70
-1.04
-1.15
-1.12
-1.04
-0.94
-0.78
-0.45
0.07
0.67
1.20
1.52
1.63
1.64
1.69
1.85
2.05
2.17
2.09
1.81
1.39
0.86
0.29
-0.32
-0.91
-1.35
-1.53
-1.40
-1.02
-0.56
-0.20
-0.04
-0.15
-0.44
-0.89
-1.42
-1.91
-2.20
-2.07
-1.44
-0.41
0.66
1.37
1.46
0.93
0.06
-0.74
-1.15
-1.05
-0.51
0.18
0.78
1.11
1.14
0.94
0.64
0.29
-0.08
-0.50
-0.93
-1.29
-1.44
-1.23
-0.61
0.29
1.24
1.90
2.00
1.47
0.52
-0.50
-1.17
-1.22
-0.69
0.14
0.88
1.24
1.15
0.80
0.48
0.35
0.42
0.50
0.47
0.29
0.15
0.22
0.57
1.07
1.43
1.45
1.08
0.48
-0.07
-0.38
-0.41
-0.31
-0.23
-0.26
-0.33
-0.31
-0.07
0.40
1.03
1.66
2.12
2.28
2.05
1.47
0.63
-0.25
-0.92
-1.18
-0.98
-0.42
0.27
0.87
1.27
1.42
1.43
1.34
1.21
1.01
0.71
0.29
-0.27
-0.91
-1.59
-2.21
-2.62
-2.74
-2.54
-2.09
-1.54
-1.10
-0.89
-0.93
-1.13
-1.34
-1.45
-1.44
-1.31
-1.13
-0.91
-0.67
-0.37
0.00
0.38
0.69
0.86
0.84
0.68
0.48
0.31
0.22
0.20
0.17
0.11
0.02
-0.03
0.00
0.16
0.35
0.48
0.46
0.29
0.04
-0.11
-0.04
0.31
0.89
1.51
1.95
2.08
1.86
1.43
0.99
0.71
0.64
0.72
0.80
0.78
0.67
0.58
0.61
0.74
0.84
0.73
0.26
-0.53
-1.44
-2.16
-2.43
-2.17
-1.51
-0.68
0.11
0.74
1.18
1.41
1.38
1.02
0.35
-0.46
-1.11
-1.33
-1.01
-0.35
0.31
0.66
0.58
0.17
-0.32
-0.69
-0.88
-0.92
-0.85
-0.68
-0.38
0.03
0.47
0.79
0.90
0.82
0.65
0.51
0.43
0.34
0.14
-0.18
-0.47
-0.53
-0.25
0.30
0.86
1.15
1.08
0.80
0.65
0.86
1.47
2.16
2.52
2.28
1.42
0.26
-0.82
-1.52
-1.79
-1.78
-1.66
-1.54
-1.41
-1.22
-0.91
-0.52
-0.09
0.26
0.42
0.32
-0.05
-0.56
-1.00
-1.14
-0.81
-0.07
0.79
1.43
1.60
1.27
0.69
0.13
-0.17
-0.18
-0.06
0.02
-0.05
-0.22
-0.40
-0.50
-0.50
-0.44
-0.38
-0.31
-0.22
-0.07
0.14
0.37
0.57
0.67
0.64
0.51
0.31
0.13
0.09
0.22
0.49
0.74
0.71
0.23
-0.70
-1.78
-2.58
-2.73
-2.13
-1.00
0.17
0.96
1.18
0.94
0.57
0.39
0.48
0.76
1.00
1.03
0.82
0.47
0.16
-0.00
0.03
0.21
0.41
0.47
0.33
0.03
-0.29
-0.41
-0.22
0.25
0.78
1.05
0.84
0.15
-0.75
-1.47
-1.73
-1.46
-0.87
-0.33
-0.06
-0.18
-0.50
-0.78
-0.85
-0.69
-0.45
-0.32
-0.43
-0.73
-1.06
-1.16
-0.91
-0.29
0.53
1.28
1.76
1.86
1.66
1.33
1.06
0.90
0.85
0.81
0.68
0.43
0.13
-0.08
-0.11
0.13
0.55
0.99
1.24
1.20
0.89
0.48
0.17
0.05
0.10
0.19
0.21
0.12
0.04
0.09
0.33
0.64
0.82
0.68
0.18
-0.48
-1.05
-1.30
-1.15
-0.72
-0.20
0.24
0.56
0.76
0.91
1.00
0.91
0.55
-0.14
-1.10
-2.06
-2.74
-2.87
-2.36
-1.31
-0.05
1.09
1.77
1.90
1.58
1.06
0.62
0.38
0.30
0.23
0.03
-0.32
-0.70
-0.93
-0.85
-0.42
0.24
0.97
1.56
1.89
1.89
1.56
0.99
0.35
-0.18
-0.44
-0.40
-0.20
-0.04
-0.05
-0.20
-0.31
-0.18
0.25
0.80
1.15
1.02
0.39
-0.52
-1.30
-1.60
-1.32
-0.68
-0.02
0.35
0.36
0.17
0.03
0.14
0.48
0.88
1.09
0.93
0.43
-0.24
-0.89
-1.38
-1.66
-1.79
-1.85
-1.79
-1.58
-1.16
-0.58
0.03
0.49
0.64
0.47
0.06
-0.40
-0.71
-0.76
-0.55
-0.17
0.23
0.54
0.70
0.75
0.76
0.83
0.99
1.22
1.41
1.47
1.29
0.90
0.40
-0.08
-0.43
-0.63
-0.74
-0.79
-0.81
-0.73
-0.43
0.15
0.97
1.83
2.44
2.59
2.15
1.26
0.16
-0.80
-1.41
-1.57
-1.40
-1.09
-0.84
-0.69
-0.57
-0.32
0.16
0.83
1.49
1.87
1.77
1.19
0.34
-0.48
-0.96
-0.99
-0.68
-0.31
-0.18
-0.39
-0.84
-1.23
-1.28
-0.91
-0.27
0.39
0.79
0.87
0.78
0.72
0.82
1.04
1.19
1.08
0.64
-0.01
-0.61
-0.93
-0.91
-0.66
-0.38
-0.24
-0.26
-0.36
-0.41
-0.32
-0.13
0.00
-0.07
-0.38
-0.83
-1.21
-1.34
-1.16
-0.75
-0.29
0.09
0.35
0.54
0.75
0.98
1.21
1.32
1.24
0.95
0.50
-0.01
-0.48
-0.83
-0.97
-0.88
-0.62
-0.26
0.09
0.32
0.40
0.34
0.21
0.06
-0.09
-0.27
-0.48
-0.72
-0.89
-0.92
-0.76
-0.46
-0.07
0.31
0.61
0.79
0.76
0.50
0.05
-0.47
-0.85
-0.95
-0.74
-0.32
0.09
0.36
0.48
0.56
0.72
0.96
1.13
1.01
0.52
-0.23
-0.99
-1.51
-1.66
-1.52
-1.25
-1.07
-1.01
-1.01
-0.95
-0.70
-0.27
0.26
0.72
1.01
1.07
0.92
0.65
0.36
0.13
-0.00
0.00
0.12
0.36
0.66
0.99
1.30
1.49
1.58
1.52
1.33
1.06
0.75
0.46
0.28
0.25
0.36
0.49
0.47
0.18
-0.36
-1.02
-1.51
-1.61
-1.23
-0.50
0.32
0.94
1.18
1.05
0.66
0.19
-0.26
-0.61
-0.82
-0.84
-0.60
-0.07
0.66
1.44
2.04
2.26
2.02
1.37
0.51
-0.36
-1.03
-1.38
-1.40
-1.14
-0.76
-0.38
-0.12
-0.01
-0.01
0.00
0.13
0.40
0.75
1.02
1.03
0.71
0.15
-0.46
-0.88
-1.01
-0.93
-0.80
-0.76
-0.82
-0.91
-0.88
-0.72
-0.53
-0.44
-0.54
-0.75
-0.94
-0.96
-0.79
-0.51
-0.29
-0.17
-0.11
0.02
0.36
0.88
1.43
1.83
1.95
1.78
1.44
1.08
0.79
0.65
0.62
0.68
0.77
0.84
0.87
0.84
0.74
0.54
0.28
-0.01
-0.27
-0.46
-0.53
-0.50
-0.39
-0.27
-0.22
-0.29
-0.52
-0.84
-1.17
-1.38
-1.38
-1.15
-0.73
-0.23
0.26
0.64
0.88
0.97
0.94
0.84
0.72
0.60
0.46
0.24
-0.13
-0.63
-1.11
-1.37
-1.22
-0.64
0.16
0.83
1.05
0.74
0.04
-0.71
-1.21
-1.36
-1.21
-0.93
-0.65
-0.37
-0.03
0.42
0.92
1.31
1.41
1.17
0.70
0.24
0.02
0.14
0.53
0.97
1.20
1.05
0.53
-0.16
-0.76
-1.02
-0.91
-0.55
-0.17
-0.02
-0.20
-0.61
-1.04
-1.27
-1.17
-0.85
-0.48
-0.21
-0.05
0.10
0.36
0.73
1.07
1.16
0.89
0.33
-0.31
-0.78
-0.92
-0.74
-0.38
0.00
0.26
0.36
0.32
0.19
0.06
0.00
0.06
0.22
0.46
0.68
0.86
0.99
1.09
1.18
1.24
1.19
0.94
0.48
-0.10
-0.65
-1.01
-1.07
-0.85
-0.48
-0.09
0.22
0.47
0.68
0.87
0.96
0.84
0.42
-0.23
-0.86
-1.20
-1.12
-0.71
-0.26
-0.05
-0.23
-0.68
-1.16
-1.41
-1.32
-0.95
-0.46
-0.02
0.25
0.29
0.12
-0.19
-0.48
-0.61
-0.51
-0.19
0.25
0.61
0.74
0.60
0.26
-0.13
-0.42
-0.55
-0.56
-0.54
-0.57
-0.65
-0.75
-0.84
-0.90
-0.99
-1.18
-1.51
-1.97
-2.53
-3.10
-3.66
-4.18
-4.63
-5.04
-5.42
-5.81
-6.25
-6.80
-7.44
-8.07
-8.60
-8.98
-9.26
-9.63
-10.25
-11.27
-12.78
-14.74
-16.99
-19.23
-21.11
-22.36
-22.94
-22.99
-22.86
-23.11
-24.26
-26.55
-29.78
-33.28
-36.23
-38.15
-38.82
-38.62
-38.49
-39.44
-41.96
-45.49
-48.30
-48.07
-42.75
-30.83
-12.10
12.05
39.17
66.71
93.16
118.94
144.40
169.79
195.33
220.37
243.03
260.39
268.94
265.24
247.27
218.88
183.23
145.22
110.77
84.79
69.13
61.53
55.59
44.57
23.27
-9.76
-50.96
-94.21
-134.08
-167.87
-195.49
-218.25
-236.50
-249.87
-257.85
-260.10
-257.48
-252.19
-247.26
-245.26
-247.71
-253.59
-260.59
-265.83
-266.46
-260.64
-248.07
-229.72
-206.96
-182.84
-156.45
-125.66
-88.13
-41.87
13.60
77.00
146.04
218.38
289.32
354.24
407.09
441.17
451.71
438.88
409.12
373.37
345.18
329.02
322.48
317.60
305.16
279.36
240.11
191.68
138.35
85.92
37.12
-6.57
-43.93
-73.07
-92.00
-100.42
-100.76
-98.46
-98.25
-103.24
-112.60
-121.82
-126.83
-125.89
-120.61
-115.08
-113.60
-118.20
-128.90
-143.48
-159.42
-175.26
-190.68
-205.89
-220.97
-235.47
-248.45
-259.57
-268.54
-275.83
-282.33
-288.79
-295.17
-300.41
-302.34
-298.02
-285.82
-264.07
-232.57
-193.23
-149.39
-104.83
-62.68
-24.24
11.00
44.66
78.54
113.49
148.65
182.12
211.80
236.62
257.62
277.58
299.98
326.32
357.37
392.07
427.33
457.80
476.30
475.37
449.20
396.15
320.94
234.88
152.93
89.02
51.91
40.22
45.60
56.51
62.67
57.94
40.85
11.73
-26.68
-71.80
-121.24
-171.58
-218.02
-254.59
-275.32
-276.32
-256.84
-219.92
-172.48
-124.05
-83.80
-57.83
-47.39
-48.18
-52.25
-51.84
-42.77
-26.12
-6.74
10.16
21.74
28.50
33.05
37.78
43.15
47.64
48.92
45.65
38.48
29.64
22.02
17.61
16.78
18.31
20.10
20.22
17.73
13.05
7.79
3.47
1.10
0.78
1.73
2.79
2.95
1.81
-0.36
-2.80
-4.77
-5.78
-5.80
-5.25
-4.67
-4.54
-4.99
-5.90
-6.91
-7.71
-8.09
-8.03
-7.66
-7.21
-6.84
-6.61
-6.52
-6.47
-6.43
-6.32
-6.15
-5.93
-5.69
-5.44
-5.20
-4.96
-4.74
-4.54
-4.36
-4.19
-4.03
-3.86
-3.68
-3.51
-3.37
-3.29
-3.29
-3.34
-3.42
-3.45
-3.41
-3.29
-3.12
-2.96
-2.87
-2.86
-2.90
-2.94
-2.89
-2.74
-2.51
-2.27
-2.16
-2.26
-2.60
-3.10
-3.60
-3.91
-3.91
-3.59
-3.15
-2.90
-3.10
-3.87
-5.07
-6.27
-7.02
-6.98
-6.18
-5.07
-4.33
-4.60
-6.11
-8.51
-10.95
-12.49
-12.51
-11.11
-9.18
-7.98
-8.60
-11.35
-15.54
-19.68
-22.18
-22.27
-20.17
-17.26
-15.26
-15.46
-18.17
-22.99
-29.10
-35.47
-40.76
-42.79
-38.89
-26.99
-7.28
16.81
39.57
55.58
62.45
61.69
57.26
52.37
47.09
38.25
22.02
-2.73
-32.43
-59.70
-76.57
-77.96
-63.81
-38.58
-9.02
18.54
40.15
54.84
63.95
69.77
74.39
78.84
83.14
86.47
87.49
84.48
75.48
59.12
35.57
7.49
-19.95
-40.75
-50.55
-49.08
-40.48
-31.07
-25.80
-25.50
-26.75
-24.56
-16.10
-2.80
10.26
17.51
16.38
8.73
-0.33
-5.31
-3.47
4.25
14.40
23.05
27.91
28.92
27.76
26.59
26.72
28.00
28.38
25.68
18.69
8.16
-3.27
-12.54
-17.71
-19.34
-19.75
-21.86
-26.97
-34.25
-41.22
-45.36
-45.50
-41.88
-35.41
-26.85
-16.55
-4.70
7.99
20.07
29.70
35.43
36.57
33.16
25.94
15.91
4.15
-8.13
-19.75
-29.54
-36.59
-40.35
-40.61
-37.50
-31.45
-23.22
-13.78
-4.29
4.16
10.74
14.99
16.91
16.81
15.06
11.97
7.64
2.09
-4.60
-12.15
-19.97
-26.88
-31.23
-31.25
-25.81
-15.00
-0.64
14.31
26.56
33.66
35.00
31.88
26.81
22.28
19.75
19.40
20.50
21.94
22.54
21.44
18.15
12.73
6.02
-0.59
-5.45
-7.41
-4.87
2.05
11.66
21.30
28.73
33.17
35.63
38.25
43.08
51.02
61.15
71.48
80.03
85.81
89.02
90.59
91.27
90.90
88.36
81.98
70.55
53.90
33.21
10.47
-11.96
-31.84
-47.29
-57.01
-60.52
-58.45
-52.58
-45.63
-40.45
-39.06
-41.86
-47.65
-54.34
-60.06
-63.87
-66.05
-67.65
-69.78
-72.97
-76.82
-80.15
-81.48
-79.54
-73.79
-64.61
-53.14
-41.05
-30.07
-21.39
-15.32
-11.18
-7.64
-3.30
2.77
10.65
19.62
28.51
36.16
41.79
44.98
45.62
43.82
39.92
34.60
28.86
23.91
20.64
19.43
19.89
21.09
22.04
21.91
20.23
16.69
10.87
2.03
-10.83
-28.60
-51.31
-77.69
-105.04
-129.91
-149.23
-161.34
-166.43
-165.77
-160.47
-150.52
-134.82
-112.40
-83.99
-52.83
-24.14
-3.22
6.66
5.53
-3.62
-16.18
-27.77
-35.52
-38.40
-36.87
-32.36
-26.63
-21.50
-18.29
-17.39
-17.87
-17.70
-14.50
-6.64
5.95
21.55
37.18
49.66
56.74
57.68
53.44
46.27
39.04
34.34
33.74
37.19
43.11
49.00
52.66
53.16
51.29
48.94
48.05
49.60
53.24
57.55
60.89
61.77
59.02
51.77
39.45
22.17
1.12
-21.29
-42.08
-58.68
-69.93
-76.57
-80.96
-86.04
-93.97
-105.19
-118.31
-131.03
-141.35
-148.62
-153.77
-158.46
-163.96
-170.12
-175.39
-177.70
-175.72
-169.72
-161.30
-152.42
-144.11
-136.10
-127.22
-116.48
-104.16
-91.93
-82.10
-76.16
-73.56
-71.54
-66.16
-54.11
-34.28
-8.29
20.36
48.19
73.42
96.71
120.40
146.84
176.86
209.21
241.31
270.71
296.32
318.55
338.49
356.63
372.07
382.87
387.15
384.37
375.75
363.81
351.18
339.72
330.07
321.93
314.43
306.26
295.77
281.07
260.34
232.59
198.47
160.35
121.90
86.89
57.87
35.46
18.18
2.84
-14.42
-36.62
-64.55
-95.92
-125.84
-149.04
-162.38
-166.58
-165.84
-164.95
-165.64
-164.41
-153.72
-125.81
-77.30
-11.72
61.71
131.84
189.85
231.52
257.22
270.36
275.77
278.28
282.13
289.88
301.55
314.37
323.58
324.24
313.29
290.51
257.77
217.70
171.98
121.31
66.06
6.93
-54.82
-118.05
-182.78
-250.63
-323.99
-404.28
-490.22
-576.65
-655.15
-716.31
-752.85
-762.23
-747.43
-715.53
-674.78
-631.69
-589.31
-547.73
-505.61
-461.99
-417.18
-372.42
-328.73
-285.99
-242.83
-197.63
-149.96
-101.56
-56.37
-19.01
7.29
22.30
28.95
32.06
36.12
43.52
54.01
65.74
76.82
86.49
95.29
104.22
113.84
123.77
133.07
140.98
147.39
152.83
157.97
162.94
167.18
169.50
168.74
164.36
156.86
147.78
139.34
133.68
132.05
134.21
138.44
142.03
142.17
136.95
126.14
111.40
95.99
83.86
78.35
80.84
89.75
100.47
106.20
99.94
76.83
36.12
-17.86
-76.53
-129.28
-166.56
-182.59
-176.87
-153.89
-121.27
-87.21
-58.16
-37.71
-26.52
-23.26
-25.65
-31.24
-37.78
-43.19
-45.62
-43.77
-37.24
-26.78
-14.29
-2.23
7.24
12.95
15.03
14.66
13.27
11.79
10.38
8.64
6.28
3.68
1.95
2.50
6.21
12.66
20.01
25.37
25.78
19.35
6.03
-12.21
-32.25
-51.17
-67.58
-82.09
-96.44
-111.84
-127.42
-139.90
-144.83
-138.78
-121.17
-94.59
-63.43
-31.57
-0.58
30.47
63.72
100.48
140.07
179.81
216.23
246.44
268.98
283.75
291.47
293.18
290.05
283.38
274.69
265.26
255.47
244.31
229.34
207.45
176.04
134.14
83.00
25.98
-32.15
-86.14
-131.21
-163.89
-182.44
-187.05
-179.55
-162.99
-140.80
-116.10
-91.14
-67.15
-44.50
-23.09
-2.77
16.44
34.29
50.36
64.24
75.52
83.79
88.51
89.04
84.71
75.02
59.91
39.81
15.71
-11.06
-38.98
-66.34
-91.17
-111.08
-123.42
-125.79
-116.87
-97.24
-69.67
-38.73
-9.65
13.06
26.64
30.48
25.79
14.81
0.06
-16.21
-32.18
-46.51
-58.34
-67.28
-73.37
-76.82
-77.78
-76.13
-71.44
-63.35
-51.95
-38.07
-23.25
-9.43
1.70
9.05
12.56
13.02
11.81
10.45
10.14
11.47
14.37
18.11
21.50
23.14
21.69
16.20
6.41
-6.91
-21.98
-36.22
-46.85
-51.62
-49.40
-40.44
-26.03
-8.04
11.69
31.68
50.99
69.13
85.91
101.26
115.02
126.84
136.17
142.55
145.72
145.99
144.13
141.24
138.49
136.88
137.08
139.07
142.02
144.15
143.27
137.64
127.09
113.50
100.39
91.65
89.89
95.39
106.04
118.43
129.23
136.36
139.32
138.59
134.82
128.07
117.74
103.05
83.71
60.46
35.02
9.76
-13.20
-32.66
-48.65
-62.37
-75.71
-90.64
-108.91
-131.93
-160.78
-195.75
-235.76
-277.85
-317.29
-348.75
-368.14
-374.18
-368.98
-357.09
-343.41
-330.86
-319.24
-305.78
-286.97
-260.84
-228.41
-193.53
-161.33
-135.96
-118.52
-106.40
-94.36
-76.90
-51.08
-18.13
17.02
48.02
70.03
81.70
85.21
84.44
82.76
81.64
80.84
79.70
78.45
78.41
81.14
87.23
95.57
103.79
109.29
110.47
107.21
100.52
91.91
82.60
73.25
64.00
54.76
45.46
36.11
26.94
18.38
11.27
6.68
5.69
8.86
15.83
25.21
35.03
43.41
49.18
52.12
52.67
51.35
48.42
43.78
37.28
29.04
19.73
10.37
2.07
-4.31
-8.33
-9.89
-9.24
-6.83
-3.32
0.57
4.18
7.07
9.12
10.35
10.75
10.14
8.22
4.79
0.10
-5.04
-9.37
-11.62
-10.96
-7.37
-1.51
5.54
12.80
19.62
25.71
30.99
35.37
38.70
40.88
41.86
41.52
39.46
34.86
26.74
14.51
-1.24
-18.46
-33.96
-44.35
-47.50
-43.26
-33.36
-20.35
-6.26
8.29
23.89
41.40
60.82
80.37
96.74
106.53
107.91
101.69
91.17
80.70
74.20
73.80
78.89
86.24
91.43
90.67
81.92
65.29
42.50
16.76
-7.27
-24.90
-32.93
-30.46
-19.52
-5.61
2.84
-3.80
-31.89
-80.45
-140.60
-198.41
-238.74
-249.57
-226.10
-172.25
-99.85
-24.12
41.50
87.77
110.13
109.16
90.20
64.48
48.55
52.50
72.44
98.66
124.51
147.56
166.40
183.16
197.68
207.96
210.86
204.37
188.67
168.30
146.41
124.81
104.37
84.70
64.73
42.67
17.32
-10.82
-40.19
-69.77
-98.92
-127.33
-155.39
-184.02
-214.69
-248.44
-285.19
-324.19
-365.44
-409.43
-456.20
-504.33
-549.64
-585.60
-604.77
-601.48
-574.46
-528.08
-470.58
-410.77
-355.21
-306.64
-264.71
-227.67
-194.14
-163.78
-137.00
-113.97
-93.94
-75.30
-56.74
-38.02
-20.07
-4.58
6.92
13.69
16.14
15.72
14.61
14.61
16.62
20.51
25.54
30.83
35.73
40.10
44.35
49.94
58.11
69.40
83.69
100.53
119.15
138.54
157.60
175.46
193.34
211.99
231.21
250.43
270.04
291.19
315.02
341.67
369.64
399.09
427.19
448.46
457.99
454.79
441.74
423.15
402.85
382.93
369.22
363.43
362.39
361.09
356.96
349.91
340.80
330.74
320.68
317.91
324.34
334.31
338.94
333.13
317.29
295.06
270.97
205.47
91.46
-43.22
-161.00
-243.90
-292.06
-312.62
-314.84
-307.26
-296.39
-279.12
-253.94
-223.98
-195.16
-170.81
-151.49
-138.54
-132.64
-133.09
-132.57
-127.04
-117.62
-109.03
-103.88
-102.27
-106.19
-116.55
-132.09
-147.36
-160.87
-167.55
-168.66
-165.63
-159.34
-154.49
-154.70
-160.53
-168.86
-178.03
-188.85
-204.75
-228.24
-236.73
-220.15
-186.53
-151.94
-124.77
-104.97
-89.17
-75.09
-61.23
-47.12
-36.78
-33.10
-35.61
-41.57
-48.21
-53.24
-54.94
-51.07
-39.35
-21.49
0.00
22.98
45.45
64.94
79.35
87.94
91.80
93.00
91.62
87.54
81.35
74.26
67.41
61.73
57.73
55.63
55.02
54.21
51.71
47.24
41.66
36.11
31.56
28.50
26.91
26.25
25.51
23.89
21.23
17.92
14.55
11.66
9.51
8.08
7.12
6.28
5.32
4.12
2.77
1.39
0.10
-1.12
-2.31
-3.49
-4.67
-5.68
-6.37
-6.69
-6.81
-7.03
-7.71
-9.04
-10.86
-12.71
-13.99
-14.32
-13.67
-12.56
-11.73
-11.89
-13.20
-15.01
-16.04
-14.79
-10.25
-2.12
8.77
20.91
32.69
42.95
51.39
58.36
64.53
70.41
76.55
83.33
90.68
97.55
101.50
99.10
87.10
64.28
32.73
-1.99
-33.00
-54.51
-64.05
-62.74
-53.87
-41.10
-26.42
-11.53
2.94
15.71
25.25
29.67
28.05
21.20
11.22
0.39
-9.48
-17.81
-25.21
-32.74
-40.88
-48.94
-55.15
-57.62
-55.41
-48.89
-39.99
-31.70
-27.28
-29.61
-40.65
-60.82
-86.54
-113.34
-134.25
-142.20
-132.89
-107.23
-71.56
-35.36
-7.39
7.88
11.08
7.17
1.97
-0.51
0.71
4.19
7.97
10.71
13.13
16.53
22.39
31.47
43.92
59.36
77.58
98.36
120.24
140.00
152.23
151.09
132.43
96.01
46.11
-9.97
-64.63
-113.22
-154.53
-189.97
-221.35
-249.41
-273.30
-291.78
-304.56
-313.00
-320.46
-330.69
-346.64
-369.56
-398.40
-429.40
-456.83
-474.31
-472.59
-447.25
-398.95
-333.06
-257.66
-180.64
-107.43
-40.51
19.61
72.74
117.41
151.87
175.17
188.13
193.48
194.77
195.09
196.04
197.63
198.24
196.36
191.34
183.85
175.71
169.24
166.42
168.15
174.07
182.51
191.51
199.66
206.60
213.18
221.00
231.74
246.51
265.65
288.57
314.16
341.03
367.50
391.56
410.83
422.60
423.93
412.17
385.54
343.94
289.64
227.28
163.12
103.78
54.87
19.92
0.02
-6.12
-2.09
6.70
13.83
13.50
2.59
-16.93
-37.85
-49.72
-43.34
-15.85
26.54
69.78
97.05
95.25
60.12
-2.61
-79.77
-155.80
-217.35
-255.91
-268.34
-256.20
-225.00
-183.68
-143.72
-116.88
-112.19
-132.77
-174.17
-225.68
-273.45
-304.55
-310.25
-287.79
-240.73
-178.61
-115.82
-68.57
-50.98
-69.98
-121.86
-192.51
-261.72
-309.98
-324.79
-304.11
-255.86
-194.42
-135.94
-94.38
-78.93
-92.57
-131.75
-187.01
-244.87
-290.94
-313.37
-305.33
-266.57
-203.32
-126.78
-50.69
12.50
55.28
77.59
86.53
93.25
107.71
134.32
170.48
208.49
239.76
258.86
265.26
262.34
254.63
245.47
236.06
226.29
216.05
206.09
197.83
192.40
189.80
188.64
186.81
182.60
175.45
166.13
156.31
147.62
140.99
136.20
132.14
127.33
120.67
111.95
102.12
92.92
86.31
83.60
84.94
89.10
94.03
97.75
99.21
98.73
97.71
97.91
100.64
106.15
113.72
122.24
130.78
139.13
147.83
157.58
168.65
180.73
193.18
205.60
217.97
230.27
242.00
252.20
260.27
267.17
275.96
290.93
315.42
349.36
388.06
423.33
446.47
451.59
437.59
407.87
368.08
323.52
277.52
231.33
185.18
139.35
94.88
53.38
16.14
-16.64
-46.19
-74.76
-104.73
-137.60
-173.70
-212.35
-252.20
-291.60
-328.57
-360.78
-385.78
-401.67
-407.72
-404.61
-394.01
-377.80
-357.77
-335.51
-312.98
-292.71
-277.48
-269.46
-269.69
-278.02
-293.60
-315.20
-340.51
-365.37
-383.21
-386.06
-367.06
-322.87
-254.80
-167.66
-67.70
39.07
146.80
248.59
335.69
398.69
430.54
429.62
401.04
354.64
300.91
246.94
194.75
142.53
87.42
28.61
-31.63
-88.67
-137.63
-175.09
-200.01
-213.42
-217.66
-215.68
-210.27
-204.06
-199.23
-197.29
-198.85
-203.63
-210.78
-219.23
-228.04
-236.30
-242.92
-246.35
-244.75
-236.69
-221.80
-201.34
-177.98
-154.91
-134.76
-118.90
-107.32
-99.13
-93.35
-89.33
-86.88
-85.83
-85.64
-85.31
-83.88
-81.32
-79.10
-80.06
-87.09
-101.64
-122.52
-146.03
-167.64
-183.99
-194.13
-199.32
-201.75
-203.22
-204.75
-206.92
-210.61
-216.87
-226.18
-237.56
-248.43
-255.62
-257.03
-252.77
-245.03
-236.73
-229.88
-224.74
-220.17
-214.69
-207.52
-198.78
-189.02
-178.58
-167.26
-154.42
-139.36
-121.81
-102.15
-81.33
-60.47
-40.45
-21.53
-3.25
15.38
35.38
57.40
81.30
106.27
131.09
154.61
176.18
195.86
214.39
233.12
253.68
277.60
305.60
336.88
368.61
396.25
414.78
420.38
411.98
391.61
363.59
332.75
302.90
275.99
252.34
231.47
212.84
196.21
181.60
169.25
159.54
153.16
150.98
153.59
160.59
170.28
179.83
186.12
186.82
181.13
169.77
154.32
136.36
116.89
96.48
75.83
56.30
40.06
29.39
25.67
28.65
36.38
46.17
55.62
63.43
69.37
73.68
76.48
77.56
76.74
74.39
71.77
70.66
72.70
78.68
88.28
100.35
113.46
126.41
138.42
149.19
158.82
167.84
177.26
188.32
202.11
218.94
238.02
257.41
274.63
287.49
294.94
297.59
297.52
297.55
300.03
305.73
313.31
319.55
320.57
313.25
296.48
271.42
240.74
207.28
172.73
137.14
99.37
58.13
13.03
-34.94
-83.83
-131.59
-176.89
-219.59
-260.50
-300.91
-342.14
-385.55
-432.38
-483.27
-537.31
-590.91
-637.80
-670.20
-681.48
-668.87
-635.05
-587.34
-535.05
-486.23
-445.48
-413.58
-388.55
-367.41
-347.24
-325.48
-299.70
-267.64
-227.66
-179.52
-124.95
-67.47
-11.75
37.59
77.20
105.64
123.36
132.05
133.62
129.38
119.76
104.76
84.94
62.19
39.76
21.39
9.93
6.23
8.89
14.98
21.40
26.01
28.13
28.26
27.49
26.98
27.76
30.71
36.51
45.50
57.27
70.64
83.85
95.16
103.40
108.19
109.80
108.81
105.84
101.60
97.06
93.66
93.12
97.09
106.48
121.01
139.03
157.89
174.69
187.20
194.43
196.69
195.14
191.02
185.14
177.83
169.17
159.18
147.79
134.66
119.35
101.66
82.19
62.45
44.45
29.83
19.07
11.44
5.52
0.08
-5.25
-10.09
-13.85
-16.26
-17.52
-18.04
-18.07
-17.64
-16.67
-15.34
-14.13
-13.61
-14.17
-15.85
-18.41
-21.50
-24.87
-28.40
-32.08
-35.77
-39.15
-41.71
-42.93
-42.42
-40.10
-36.32
-31.76
-27.26
-23.60
-21.23
-20.24
-20.36
-21.21
-22.50
-24.21
-26.55
-29.79
-34.00
-38.96
-44.18
-49.22
-53.84
-58.14
-62.45
-67.10
-72.28
-77.91
-83.75
-89.35
-93.91
-96.21
-94.66
-87.70
-74.40
-55.06
-31.44
-6.47
16.51
34.70
46.39
51.13
49.47
42.53
31.58
17.92
2.89
-12.02
-25.18
-34.93
-39.77
-38.58
-30.76
-16.25
4.45
30.50
60.92
94.89
131.87
171.74
214.55
260.12
307.51
354.76
398.94
436.65
464.82
481.44
485.98
479.35
463.50
440.81
413.67
384.19
354.13
324.91
297.68
273.14
251.51
232.43
215.05
198.31
181.30
163.62
145.49
127.54
110.42
94.26
78.47
61.85
43.06
21.21
-3.67
-30.55
-57.83
-84.04
-108.49
-131.64
-154.95
-180.19
-208.61
-240.35
-274.36
-308.96
-342.54
-374.34
-404.77
-435.22
-467.70
-504.50
-547.70
-598.45
-655.81
-715.84
-771.54
-814.28
-836.49
-834.38
-809.47
-767.81
-717.50
-665.65
-616.49
-571.27
-529.73
-491.67
-457.70
-428.65
-404.46
-383.38
-362.35
-338.26
-309.45
-276.44
-241.70
-208.41
-178.84
-153.23
-129.63
-104.81
-75.79
-41.28
-2.31
38.33
77.27
112.19
142.77
170.80
199.45
232.12
271.58
318.99
373.13
429.78
481.71
519.45
533.21
515.72
465.14
386.81
292.63
198.27
118.92
65.34
42.02
47.73
77.80
126.10
185.95
249.45
307.03
348.37
365.04
353.96
319.18
271.14
222.46
183.03
156.36
139.36
125.17
107.17
82.43
52.57
22.38
-2.93
-19.99
-28.40
-30.42
-29.81
-30.22
-33.74
-40.14
-46.40
-47.14
-35.77
-6.61
42.46
107.99
180.76
248.05
297.59
321.79
319.89
297.41
263.06
224.95
187.94
153.04
118.43
81.12
38.23
-12.12
-69.98
-132.68
-194.38
-246.41
-279.03
-284.39
-259.46
-207.96
-140.20
-70.68
-14.19
18.27
22.25
0.47
-38.83
-84.81
-127.15
-158.16
-173.51
-171.87
-154.17
-123.06
-82.77
-38.90
2.35
35.41
56.67
65.23
62.68
52.33
37.97
22.95
9.64
-0.57
-7.13
-9.91
-9.11
-5.08
1.54
9.62
17.60
23.71
26.43
24.99
19.68
11.73
2.89
-5.14
-11.29
-15.34
-17.88
-19.84
-22.06
-24.94
-28.26
-31.34
-33.21
-33.04
-30.32
-25.05
-17.72
-9.14
-0.31
7.84
14.65
19.86
23.57
26.15
28.01
29.45
30.60
31.43
31.80
31.60
30.73
29.07
26.53
23.04
18.62
13.45
7.89
2.44
-2.43
-6.39
-9.41
-11.64
-13.37
-14.86
-16.18
-17.27
-17.92
-17.96
-17.34
-16.16
-14.59
-12.80
-10.90
-8.93
-6.91
-4.96
-3.30
-2.17
-1.81
-2.32
-3.65
-5.60
-7.93
-10.36
-12.54
-14.07
-14.50
-13.45
-10.79
-6.84
-2.34
1.70
4.32
4.99
3.72
1.06
-2.16
-5.11
-7.23
-8.27
-8.27
-7.43
-5.98
-4.05
-1.73
0.91
3.72
6.41
8.59
9.89
10.04
8.97
6.75
3.60
-0.25
-4.52
-8.84
-12.67
-15.32
-16.07
-14.41
-10.34
-4.34
2.67
9.67
15.85
20.75
24.30
26.64
27.96
28.37
27.92
26.70
24.93
23.04
21.49
20.67
20.74
21.51
22.50
23.17
23.03
21.83
19.58
16.55
13.07
9.50
6.22
3.63
2.15
2.16
3.81
6.90
10.86
14.84
18.03
19.84
20.02
18.61
15.82
11.94
7.28
2.27
-2.63
-6.91
-10.18
-12.27
-13.30
-13.53
-13.26
-12.72
-12.10
-11.49
-11.12
-11.25
-12.16
-14.03
-16.82
-20.17
-23.49
-26.09
-27.33
-26.86
-24.66
-21.05
-16.55
-11.79
-7.27
-3.33
-0.05
2.63
4.81
6.60
8.06
9.19
10.00
10.54
10.86
11.02
11.03
10.83
10.32
9.38
7.93
6.06
3.99
2.03
0.46
-0.58
-1.23
-1.86
-2.88
-4.61
-7.08
-10.04
-12.99
-15.24
-15.91
-14.19
-9.47
-1.72
8.36
19.35
29.53
37.41
42.22
44.08
43.72
42.00
39.48
36.34
32.52
28.03
23.22
18.65
14.89
12.27
10.69
9.72
8.76
7.29
5.03
2.01
-1.49
-5.06
-8.31
-10.94
-12.74
-13.59
-13.42
-12.21
-10.07
-7.31
-4.41
-1.94
-0.39
0.03
-0.56
-1.74
-3.03
-4.07
-4.77
-5.23
-5.66
-6.23
-6.99
-7.87
-8.83
-9.87
-11.02
-12.35
-13.85
-15.41
-16.87
-18.03
-18.81
-19.19
-19.26
-19.05
-18.55
-17.57
-15.89
-13.30
-9.77
-5.52
-1.02
3.12
6.37
8.41
9.26
9.23
8.74
8.13
7.53
6.84
5.91
4.63
3.07
1.39
-0.17
-1.49
-2.63
-3.84
-5.47
-7.83
-11.10
-15.29
-20.21
-25.52
-30.88
-36.06
-41.01
-45.83
-50.64
-55.45
-59.97
-63.69
-66.10
-66.96
-66.66
-66.25
-67.34
-71.64
-80.50
-94.41
-112.79
-133.91
-154.93
-172.23
-182.01
-181.14
-167.88
-142.26
-105.96
-61.85
-13.43
35.44
80.81
119.02
147.03
162.95
166.18
157.27
137.78
110.28
78.58
47.81
23.80
11.60
13.58
28.33
51.01
75.30
95.94
110.37
118.85
123.19
125.04
124.96
122.58
117.40
109.73
100.78
92.09
84.69
78.57
72.69
65.69
56.60
45.41
33.11
21.21
11.08
3.46
-1.77
-5.31
-8.10
-10.83
-13.74
-16.59
-18.83
-19.81
-19.03
-16.34
-11.96
-6.49
-0.71
4.67
9.23
12.86
15.72
18.12
20.33
22.48
24.49
26.20
27.41
27.99
27.88
27.14
25.87
24.18
22.18
19.97
17.68
15.40
13.20
11.07
8.93
6.67
4.21
1.51
-1.31
-4.09
-6.55
-8.44
-9.53
-9.69
-8.83
-6.99
-4.31
-1.01
2.62
6.22
9.43
11.99
13.79
14.92
15.66
16.37
17.40
18.98
21.09
23.58
26.13
28.39
30.06
30.95
31.00
30.34
29.19
27.87
26.50
24.85
22.24
17.71
10.51
0.53
-11.36
-23.42
-33.74
-40.88
-44.44
-44.96
-43.43
-40.65
-36.87
-31.94
-25.68
-18.26
-10.14
-1.70
7.14
17.00
28.64
42.45
58.19
75.19
92.63
109.74
125.46
138.07
144.94
143.39
131.83
110.91
83.76
54.86
27.99
4.60
-16.18
-36.16
-56.21
-75.38
-91.77
-103.84
-111.51
-115.95
-118.51
-119.91
-120.67
-122.57
-129.66
-147.30
-179.29
-224.51
-275.45
-320.02
-345.93
-345.20
-316.45
-264.16
-196.05
-120.58
-46.04
19.59
68.51
93.91
91.65
62.02
10.24
-54.50
-121.22
-179.64
-221.93
-243.60
-243.85
-224.89
-190.89
-146.69
-96.58
-43.82
9.16
60.10
106.39
145.14
174.01
192.05
200.20
201.00
197.75
193.43
189.92
187.61
185.49
181.55
173.30
158.36
134.89
102.07
60.42
12.20
-38.43
-85.70
-123.23
-145.53
-149.54
-135.60
-107.32
-70.48
-31.34
4.85
34.63
56.40
70.05
76.45
77.16
74.18
69.72
65.81
63.89
64.54
67.32
70.80
72.84
71.30
64.79
53.32
38.47
22.92
9.42
-0.15
-5.31
-6.85
-6.09
-4.26
-2.02
0.49
3.30
6.29
9.05
11.00
11.60
10.60
8.06
4.32
-0.09
-4.66
-9.02
-12.97
-16.53
-19.76
-22.69
-25.29
-27.43
-28.87
-29.33
-28.50
-26.09
-21.88
-15.86
-8.33
0.06
8.42
15.73
21.15
24.14
24.64
22.98
19.81
15.85
11.70
7.74
4.03
0.48
-3.11
-6.85
-10.74
-14.64
-18.36
-21.69
-24.53
-27.01
-29.45
-32.45
-36.73
-42.87
-50.92
-60.18
-69.09
-75.57
-77.60
-73.90
-64.42
-50.43
-34.17
-18.17
-4.50
5.64
12.16
15.78
17.68
18.95
20.33
22.09
24.15
26.26
28.21
29.89
31.21
32.09
32.41
32.07
31.14
29.81
28.34
26.89
25.43
23.72
21.50
18.61
15.07
11.13
7.21
3.74
1.25
0.17
0.77
3.05
6.61
10.73
14.50
17.17
18.33
18.07
16.78
14.98
13.14
11.57
10.44
9.84
9.76
10.08
10.58
10.96
10.94
10.34
9.11
7.35
5.16
2.65
-0.08
-2.93
-5.80
-8.68
-11.61
-14.71
-18.02
-21.38
-24.34
-26.25
-26.45
-24.55
-20.53
-14.79
-8.02
-1.03
5.38
10.59
14.12
15.76
15.57
13.91
11.41
8.81
6.79
5.81
6.01
7.25
9.14
11.22
13.03
14.25
14.70
14.38
13.35
11.72
9.58
7.01
4.14
1.09
-1.97
-4.91
-7.61
-9.97
-11.81
-12.84
-12.77
-11.38
-8.76
-5.30
-1.64
1.50
3.62
4.49
4.28
3.31
1.98
0.63
-0.55
-1.45
-1.97
-2.03
-1.57
-0.59
0.81
2.42
3.98
5.28
6.14
6.50
6.34
5.71
4.66
3.32
1.82
0.23
-1.42
-3.19
-5.10
-7.08
-8.87
-10.04
-10.19
-9.14
-7.04
-4.40
-1.85
0.09
1.20
1.54
1.37
0.94
0.39
-0.28
-1.06
-1.89
-2.56
-2.80
-2.40
-1.34
0.20
1.84
3.19
3.96
4.04
3.50
2.46
1.08
-0.58
-2.52
-4.70
-7.06
-9.45
-11.68
-13.55
-14.83
-15.31
-14.82
-13.26
-10.70
-7.40
-3.76
-0.23
2.85
5.28
7.04
8.20
8.85
9.07
8.95
8.55
8.01
7.47
7.03
6.77
6.61
6.47
6.18
5.63
4.76
3.58
2.16
0.57
-1.08
-2.69
-4.18
-5.53
-6.77
-8.01
-9.31
-10.62
-11.73
-12.24
-11.79
-10.16
-7.42
-3.95
-0.27
3.07
5.70
7.46
8.37
8.56
8.17
7.37
6.31
5.14
4.01
3.06
2.34
1.84
1.48
1.20
0.92
0.64
0.34
-0.01
-0.45
-1.03
-1.78
-2.69
-3.70
-4.79
-5.86
-6.81
-7.46
-7.57
-6.92
-5.41
-3.20
-0.63
1.84
3.83
5.13
5.77
5.94
5.82
5.56
5.22
4.82
4.38
3.91
3.43
2.96
2.47
1.96
1.46
1.00
0.63
0.33
0.07
-0.25
-0.66
-1.21
-1.91
-2.74
-3.72
-4.79
-5.85
-6.72
-7.15
-6.94
-6.00
-4.36
-2.21
0.22
2.70
5.04
7.10
8.72
9.76
10.09
9.69
8.65
7.18
5.55
4.00
2.68
1.68
1.02
0.73
0.85
1.33
2.08
2.88
3.49
3.68
3.33
2.48
1.25
-0.16
-1.63
-3.06
-4.42
-5.68
-6.74
-7.43
-7.58
-7.10
-6.01
-4.45
-2.70
-1.10
0.06
0.50
0.09
-1.18
-3.16
-5.58
-8.11
-10.35
-11.99
-12.84
-12.83
-12.10
-10.86
-9.34
-7.72
-6.07
-4.42
-2.84
-1.48
-0.56
-0.28
-0.72
-1.76
-3.11
-4.41
-5.30
-5.54
-4.97
-3.55
-1.34
1.45
4.51
7.46
9.94
11.75
12.84
13.33
13.42
13.25
12.94
12.55
12.15
11.80
11.59
11.55
11.64
11.76
11.78
11.63
11.24
10.58
9.60
8.24
6.44
4.20
1.57
-1.37
-4.56
-7.94
-11.40
-14.70
-17.48
-19.36
-20.08
-19.65
-18.35
-16.63
-14.88
-13.29
-11.85
-10.42
-8.84
-7.05
-5.12
-3.16
-1.29
0.38
1.77
2.80
3.43
3.67
3.60
3.29
2.79
2.12
1.26
0.20
-1.01
-2.33
-3.67
-4.96
-6.09
-6.96
-7.38
-7.19
-6.27
-4.59
-2.28
0.42
3.17
5.60
7.40
8.32
8.23
7.12
5.16
2.64
-0.06
-2.55
-4.53
-5.87
-6.65
-7.15
-7.71
-8.60
-9.97
-11.72
-13.63
-15.38
-16.65
-17.16
-16.76
-15.45
-13.41
-11.04
-8.80
-7.13
-6.21
-5.90
-5.77
-5.29
-4.08
-2.01
0.70
3.64
6.33
8.40
9.69
10.22
10.13
9.62
8.91
8.19
7.66
7.50
7.79
8.50
9.49
10.51
11.33
11.80
11.95
11.88
11.73
11.60
11.49
11.27
10.81
9.97
8.70
7.01
5.07
3.12
1.44
0.28
-0.22
-0.09
0.48
1.20
1.78
2.00
1.76
1.06
0.00
-1.25
-2.54
-3.71
-4.59
-5.05
-4.99
-4.43
-3.53
-2.59
-1.93
-1.73
-2.02
-2.60
-3.24
-3.79
-4.31
-4.97
-5.93
-7.19
-8.57
-9.74
-10.45
-10.58
-10.18
-9.33
-8.08
-6.42
-4.36
-2.02
0.36
2.46
4.05
5.10
5.75
6.20
6.59
6.92
7.04
6.80
6.11
5.01
3.62
2.09
0.55
-0.93
-2.28
-3.48
-4.51
-5.36
-6.09
-6.79
-7.57
-8.52
-9.74
-11.22
-12.83
-14.30
-15.27
-15.34
-14.27
-12.03
-8.82
-5.07
-1.25
2.23
5.10
7.23
8.60
9.25
9.28
8.78
7.84
6.51
4.91
3.15
1.46
0.18
-0.36
0.08
1.53
3.71
6.18
8.37
9.83
10.30
9.72
8.21
5.94
3.17
0.25
-2.43
-4.43
-5.36
-5.04
-3.52
-1.13
1.65
4.32
6.49
8.02
8.93
9.42
9.67
9.80
9.84
9.73
9.45
9.06
8.69
8.52
8.67
9.08
9.56
9.84
9.74
9.20
8.32
7.26
6.07
4.71
3.00
0.87
-1.64
-4.28
-6.65
-8.40
-9.28
-9.21
-8.24
-6.48
-4.09
-1.21
1.94
5.09
7.93
10.20
11.68
12.31
12.14
11.38
10.30
9.18
8.24
7.58
7.14
6.82
6.43
5.87
5.08
4.07
2.92
1.72
0.52
-0.67
-1.90
-3.26
-4.85
-6.70
-8.71
-10.68
-12.32
-13.33
-13.46
-12.60
-10.79
-8.22
-5.16
-1.96
1.04
3.52
5.26
6.14
6.22
5.67
4.76
3.80
3.04
2.66
2.73
3.23
4.00
4.84
5.50
5.76
5.51
4.74
3.57
2.17
0.68
-0.88
-2.52
-4.31
-6.26
-8.23
-9.94
-11.05
-11.24
-10.36
-8.52
-6.07
-3.43
-0.99
1.02
2.54
3.61
4.28
4.57
4.47
4.11
3.67
3.44
3.68
4.47
5.73
7.13
8.27
8.76
8.34
7.01
4.96
2.57
0.25
-1.66
-3.04
-3.96
-4.72
-5.69
-7.19
-9.43
-12.32
-15.55
-18.56
-20.76
-21.66
-21.11
-19.35
-16.87
-14.25
-11.92
-10.07
-8.65
-7.52
-6.60
-5.87
-5.38
-5.09
-4.87
-4.48
-3.71
-2.51
-1.04
0.34
1.22
1.39
0.94
0.25
-0.20
-0.08
0.66
1.75
2.84
3.69
4.38
5.24
6.64
8.84
11.83
15.40
19.30
23.38
27.63
32.21
37.47
43.98
52.50
63.81
78.32
95.81
115.24
135.07
153.73
170.13
183.95
195.57
205.81
215.59
225.68
236.40
247.52
258.28
267.68
274.87
279.49
281.68
281.73
279.56
274.49
265.54
252.07
234.42
214.00
192.62
171.49
150.48
128.03
102.02
70.94
34.78
-4.78
-45.06
-83.48
-118.62
-150.66
-181.17
-212.23
-245.63
-282.46
-323.08
-367.27
-413.97
-460.60
-502.81
-535.36
-554.02
-557.61
-548.73
-532.42
-513.31
-492.91
-468.81
-436.23
-391.18
-333.20
-266.30
-197.70
-135.11
-84.39
-48.22
-26.18
-15.69
-13.04
-14.37
-16.51
-17.26
-15.55
-11.02
-3.80
5.24
14.30
20.72
21.75
15.83
3.60
-12.31
-28.46
-42.16
-52.51
-60.16
-66.44
-72.20
-77.34
-80.82
-81.06
-76.07
-63.38
-40.38
-5.27
41.17
94.51
146.96
189.68
216.00
223.98
216.77
200.70
182.13
165.17
151.36
140.94
134.48
133.38
138.79
149.80
162.52
171.14
170.41
158.05
135.45
106.47
75.41
45.17
17.05
-8.40
-30.21
-46.78
-56.45
-58.53
-53.76
-43.96
-31.22
-17.37
-3.79
8.52
18.73
26.47
32.09
36.74
41.90
48.80
57.89
68.75
80.41
91.88
102.50
111.99
120.30
127.45
133.50
138.79
143.97
149.91
157.37
166.67
177.33
188.27
198.06
205.40
209.52
210.23
207.87
202.90
195.71
186.32
174.61
160.54
144.61
128.11
113.09
101.81
96.02
96.27
101.62
109.87
118.18
123.71
124.31
119.03
108.43
94.45
79.69
66.31
55.03
44.76
33.04
17.32
-3.88
-30.35
-60.55
-92.77
-126.12
-161.10
-198.85
-240.21
-284.67
-330.01
-372.77
-408.86
-434.40
-447.26
-448.24
-441.32
-432.36
-427.00
-428.65
-437.82
-452.86
-471.39
-491.16
-510.00
-525.00
-532.06
-526.68
-505.91
-470.12
-423.48
-372.55
-323.68
-280.60
-243.60
-210.38
-177.78
-142.84
-103.63
-59.07
-9.33
44.09
98.35
149.70
194.26
229.41
254.57
271.26
282.32
290.77
298.71
306.87
314.89
321.76
326.48
328.34
326.79
321.48
312.13
298.82
281.98
262.47
241.41
220.07
199.60
180.69
163.42
147.17
130.97
114.13
96.86
80.51
67.20
59.05
57.10
60.97
69.12
79.54
90.44
100.47
108.17
111.38
107.32
93.72
70.53
40.93
10.69
-14.22
-30.56
-39.38
-45.27
-53.54
-67.23
-85.56
-104.76
-120.61
-130.80
-135.77
-137.54
-137.68
-135.87
-130.13
-118.26
-99.65
-75.97
-50.50
-26.63
-6.44
10.12
24.70
39.50
55.98
74.32
93.45
111.79
128.05
141.80
153.47
163.90
173.88
183.66
192.94
201.05
207.35
211.66
214.45
216.99
220.67
226.32
233.27
238.96
239.51
230.81
209.89
176.07
131.56
81.20
31.63
-10.25
-39.29
-53.90
-57.00
-55.37
-57.43
-70.12
-96.12
-132.57
-171.98
-204.92
-223.20
-222.23
-201.99
-166.48
-122.17
-76.29
-35.20
-3.39
17.03
26.29
26.38
20.19
10.33
-1.88
-16.90
-36.47
-62.34
-94.67
-130.83
-165.57
-192.38
-205.61
-202.23
-182.81
-151.25
-113.66
-76.71
-46.34
-26.42
-18.22
-20.51
-30.69
-46.36
-66.37
-90.77
-119.67
-151.83
-184.02
-211.79
-231.02
-239.34
-236.49
-223.47
-201.54
-171.93
-136.30
-97.20
-57.96
-21.60
10.16
37.18
59.91
78.04
89.80
92.93
86.44
72.10
54.39
38.79
29.32
26.81
28.72
30.60
28.18
18.97
2.87
-18.07
-40.57
-60.99
-76.21
-84.18
-84.16
-76.62
-63.03
-45.49
-26.39
-8.12
7.29
18.51
25.16
27.88
28.09
27.47
27.44
28.65
30.92
33.40
34.96
34.75
32.43
28.33
23.28
18.27
13.98
10.58
7.72
4.73
1.08
-3.38
-8.28
-12.95
-16.68
-19.08
-20.14
-20.17
-19.54
-18.49
-16.99
-14.78
-11.61
-7.39
-2.32
3.18
8.56
13.36
17.30
20.21
21.99
22.52
21.69
19.62
16.72
13.78
11.75
11.38
12.90
15.90
19.54
22.86
25.25
26.61
27.26
27.66
28.09
28.42
28.17
26.72
23.68
19.13
13.71
8.48
4.58
2.85
3.58
6.37
10.36
14.50
17.87
19.83
20.14
18.77
15.88
11.75
6.78
1.60
-3.13
-6.85
-9.29
-10.54
-11.03
-11.23
-11.43
-11.62
-11.49
-10.73
-9.08
-6.64
-3.75
-0.98
1.13
2.21
2.21
1.51
0.80
0.92
2.54
5.92
10.80
16.49
22.16
27.06
30.79
33.15
34.22
34.10
32.92
30.87
28.14
25.00
21.65
18.21
14.73
11.22
7.73
4.38
1.34
-1.23
-3.25
-4.72
-5.72
-6.39
-6.95
-7.71
-9.01
-11.09
-13.90
-16.95
-19.34
-20.01
-18.15
-13.58
-6.86
0.81
8.06
13.83
17.67
19.83
20.93
21.62
22.34
23.14
23.80
24.04
23.67
22.61
20.90
18.63
15.95
13.08
10.32
7.99
6.32
5.27
4.51
3.51
1.72
-1.19
-5.20
-9.94
-14.79
-19.04
-22.03
-23.20
-22.29
-19.39
-15.04
-10.07
-5.34
-1.43
1.59
4.10
6.69
9.75
13.20
16.46
18.71
19.25
17.84
14.80
10.89
7.02
4.01
2.29
1.91
2.51
3.54
4.37
4.51
3.69
1.88
-0.85
-4.25
-8.02
-11.74
-14.96
-17.26
-18.29
-17.96
-16.33
-13.62
-10.02
-5.73
-0.88
4.31
9.56
14.46
18.62
21.78
23.84
24.88
25.00
24.36
23.13
21.55
19.86
18.24
16.76
15.31
13.73
11.90
9.88
7.87
6.09
4.67
3.52
2.38
0.95
-0.90
-3.12
-5.43
-7.44
-8.75
-9.08
-8.27
-6.31
-3.38
0.18
3.93
7.41
10.15
11.82
12.27
11.55
9.94
7.84
5.71
3.98
2.87
2.35
2.23
2.20
2.05
1.70
1.26
0.90
0.77
0.90
1.18
1.41
1.31
0.64
-0.82
-3.09
-6.02
-9.20
-12.08
-14.08
-14.73
-13.90
-11.81
-8.95
-5.94
-3.36
-1.46
-0.23
0.60
1.34
2.18
3.10
3.89
4.30
4.19
3.60
2.72
1.78
1.01
0.50
0.29
0.39
0.87
1.76
3.04
4.51
5.81
6.44
5.97
4.28
1.64
-1.25
-3.49
-4.29
-3.20
-0.29
3.97
8.80
13.42
17.23
19.85
21.20
21.47
21.01
20.19
19.31
18.38
17.20
15.45
12.90
9.53
5.58
1.42
-2.60
-6.25
-9.45
-12.19
-14.44
-16.12
-17.26
-18.01
-18.72
-19.82
-21.58
-23.94
-26.54
-28.74
-29.85
-29.36
-27.06
-23.12
-18.03
-12.47
-7.10
-2.43
1.35
4.31
6.67
8.60
10.19
11.38
12.09
12.34
12.25
11.98
11.62
11.19
10.65
10.06
9.54
9.30
9.46
9.91
10.37
10.41
9.69
8.06
5.61
2.59
-0.62
-3.64
-6.07
-7.53
-7.73
-6.46
-3.76
0.11
4.62
9.09
12.90
15.59
17.08
17.56
17.42
16.97
16.39
15.59
14.43
12.84
10.92
8.99
7.35
6.21
5.55
5.23
5.03
4.82
4.54
4.11
3.41
2.23
0.40
-2.13
-5.14
-8.18
-10.67
-12.09
-12.12
-10.75
-8.33
-5.37
-2.48
-0.13
1.43
2.19
2.31
2.02
1.50
0.83
0.00
-0.99
-2.14
-3.39
-4.60
-5.67
-6.52
-7.12
-7.55
-7.83
-8.03
-8.13
-8.16
-8.15
-8.21
-8.48
-9.09
-10.01
-11.10
-12.04
-12.47
-12.07
-10.67
-8.37
-5.44
-2.23
0.97
3.96
6.74
9.31
11.64
13.60
14.96
15.50
15.18
14.12
12.62
11.05
9.72
8.75
8.14
7.76
7.41
6.90
6.03
4.66
2.68
0.08
-3.03
-6.41
-9.70
-12.45
-14.29
-14.92
-14.28
-12.47
-9.76
-6.53
-3.20
-0.16
2.23
3.73
4.33
4.15
3.51
2.71
1.92
1.19
0.40
-0.55
-1.68
-2.85
-3.87
-4.53
-4.75
-4.53
-3.99
-3.27
-2.56
-2.06
-1.97
-2.42
-3.43
-4.92
-6.65
-8.32
-9.59
-10.17
-9.89
-8.68
-6.64
-3.96
-1.01
1.87
4.34
6.20
7.42
8.11
8.43
8.51
8.34
7.81
6.83
5.41
3.80
2.36
1.41
1.13
1.39
1.90
2.31
2.40
2.17
1.75
1.33
1.01
0.70
0.21
-0.62
-1.86
-3.36
-4.81
-5.87
-6.23
-5.72
-4.40
-2.47
-0.28
1.80
3.52
4.78
5.62
6.19
6.58
6.83
6.88
6.67
6.26
5.80
5.47
5.41
5.63
6.01
6.40
6.69
6.83
6.80
6.54
5.92
4.81
3.06
0.64
-2.31
-5.49
-8.48
-10.80
-12.07
-12.10
-10.91
-8.69
-5.76
-2.45
0.90
4.01
6.63
8.56
9.75
10.26
10.28
10.02
9.65
9.23
8.75
8.11
7.27
6.29
5.27
4.38
3.74
3.37
3.20
3.07
2.85
2.44
1.78
0.83
-0.46
-2.14
-4.14
-6.28
-8.28
-9.79
-10.56
-10.51
-9.74
-8.44
-6.75
-4.76
-2.57
-0.26
1.95
3.84
5.20
5.96
6.20
6.07
5.73
5.28
4.74
4.09
3.27
2.33
1.34
0.40
-0.35
-0.83
-1.04
-1.13
-1.38
-2.07
-3.39
-5.28
-7.48
-9.49
-10.84
-11.18
-10.40
-8.60
-6.01
-2.94
0.25
3.23
5.63
7.13
7.55
6.92
5.50
3.74
2.09
0.85
0.09
-0.32
-0.66
-1.08
-1.67
-2.36
-2.99
-3.44
-3.62
-3.54
-3.28
-2.97
-2.77
-2.86
-3.45
-4.66
-6.47
-8.68
-10.86
-12.47
-13.02
-12.25
-10.24
-7.34
-4.08
-0.95
1.80
4.10
6.08
7.85
9.40
10.63
11.38
11.60
11.41
11.05
10.81
10.84
11.12
11.46
11.64
11.48
10.93
10.03
8.86
7.52
6.09
4.63
3.16
1.61
-0.17
-2.30
-4.83
-7.57
-10.13
-12.00
-12.76
-12.21
-10.47
-7.92
-5.02
-2.21
0.18
1.98
3.07
3.52
3.43
3.01
2.46
1.95
1.55
1.24
0.93
0.56
0.14
-0.29
-0.65
-0.86
-0.89
-0.79
-0.65
-0.63
-0.89
-1.58
-2.82
-4.62
-6.85
-9.21
-11.30
-12.69
-13.03
-12.18
-10.28
-7.70
-4.96
-2.59
-0.96
-0.17
-0.04
-0.19
-0.20
0.20
1.06
2.13
3.03
3.40
3.09
2.18
0.96
-0.15
-0.80
-0.78
-0.06
1.21
2.78
4.40
5.85
7.02
7.84
8.26
8.14
7.37
5.89
3.82
1.54
-0.45
-1.68
-1.96
-1.41
-0.45
0.45
0.95
0.97
0.63
0.16
-0.24
-0.49
-0.59
-0.57
-0.40
-0.06
0.51
1.23
1.97
2.48
2.53
2.00
0.97
-0.27
-1.33
-1.87
-1.77
-1.15
-0.37
0.10
-0.16
-1.34
-3.46
-6.30
-9.52
-12.66
-15.22
-16.76
-16.97
-15.80
-13.50
-10.50
-7.33
-4.43
-2.03
-0.15
1.31
2.55
3.71
4.86
6.01
7.11
8.16
9.20
10.28
11.44
12.65
13.76
14.60
14.99
14.83
14.24
13.43
12.61
11.91
11.29
10.54
9.39
7.64
5.26
2.43
-0.50
-3.15
-5.21
-6.50
-7.05
-6.97
-6.46
-5.66
-4.74
-3.78
-2.86
-2.04
-1.36
-0.81
-0.40
-0.13
0.01
0.02
-0.04
-0.07
0.03
0.34
0.81
1.33
1.77
2.05
2.13
2.03
1.79
1.41
0.86
0.14
-0.73
-1.71
-2.76
-3.88
-5.03
-6.11
-6.96
-7.34
-7.10
-6.21
-4.81
-3.16
-1.57
-0.26
0.71
1.43
2.03
2.64
3.24
3.68
3.79
3.47
2.80
2.07
1.55
1.41
1.59
1.85
1.93
1.72
1.33
0.97
0.80
0.79
0.67
0.11
-1.14
-3.06
-5.40
-7.71
-9.54
-10.52
-10.48
-9.49
-7.79
-5.77
-3.78
-2.04
-0.53
0.91
2.45
4.12
5.78
7.13
7.93
8.09
7.70
7.00
6.29
5.78
5.55
5.53
5.55
5.39
4.84
3.83
2.45
0.93
-0.41
-1.33
-1.78
-1.92
-2.09
-2.63
-3.73
-5.32
-7.04
-8.39
-8.97
-8.58
-7.35
-5.62
-3.80
-2.17
-0.81
0.38
1.53
2.70
3.83
4.76
5.28
5.23
4.56
3.42
2.07
0.93
0.34
0.50
1.36
2.61
3.85
4.72
5.03
4.84
4.32
3.66
2.95
2.12
1.05
-0.34
-2.02
-3.75
-5.23
-6.18
-6.44
-6.08
-5.32
-4.41
-3.49
-2.55
-1.45
-0.05
1.63
3.38
4.86
5.77
5.96
5.47
4.47
3.19
1.86
0.64
-0.31
-0.88
-0.99
-0.69
-0.12
0.51
0.97
1.11
0.87
0.36
-0.32
-1.04
-1.79
-2.63
-3.62
-4.79
-6.05
-7.20
-8.01
-8.24
-7.78
-6.61
-4.86
-2.68
-0.28
2.18
4.55
6.72
8.56
9.92
10.64
10.60
9.79
8.38
6.74
5.28
4.33
3.96
3.99
4.03
3.74
2.98
1.86
0.71
-0.18
-0.65
-0.79
-0.89
-1.23
-2.03
-3.31
-4.91
-6.55
-7.91
-8.69
-8.66
-7.67
-5.76
-3.14
-0.15
2.79
5.37
7.40
8.84
9.73
10.10
9.92
9.16
7.94
6.48
5.12
4.14
3.59
3.32
3.00
2.40
1.45
0.30
-0.79
-1.64
-2.17
-2.44
-2.59
-2.79
-3.22
-4.08
-5.47
-7.36
-9.46
-11.29
-12.32
-12.20
-10.92
-8.80
-6.37
-4.14
-2.37
-1.06
-0.02
1.00
2.12
3.25
4.15
4.57
4.42
3.82
3.06
2.48
2.31
2.54
2.98
3.35
3.46
3.22
2.70
2.04
1.36
0.73
0.09
-0.69
-1.77
-3.27
-5.14
-7.16
-8.94
-10.09
-10.38
-9.80
-8.57
-7.03
-5.47
-4.10
-3.00
-2.16
-1.51
-1.00
-0.58
-0.22
0.03
0.08
-0.12
-0.52
-0.96
-1.16
-0.93
-0.22
0.83
1.93
2.79
3.28
3.40
3.29
3.09
2.89
2.63
2.18
1.38
0.18
-1.29
-2.71
-3.67
-3.88
-3.25
-2.01
-0.54
0.76
1.69
2.27
2.71
3.20
3.81
4.39
4.72
4.63
4.09
3.27
2.45
1.88
1.65
1.73
1.94
2.11
2.13
2.00
1.75
1.46
1.16
0.84
0.48
0.03
-0.55
-1.35
-2.40
-3.65
-4.92
-5.96
-6.47
-6.30
-5.48
-4.16
-2.57
-0.89
0.76
2.30
3.59
4.47
4.78
4.50
3.79
2.94
2.26
1.93
1.97
2.28
2.66
3.00
3.26
3.44
3.59
3.70
3.72
3.58
3.24
2.71
1.99
1.08
-0.03
-1.34
-2.75
-4.06
-4.97
-5.24
-4.79
-3.76
-2.44
-1.15
-0.08
0.73
1.39
2.02
2.70
3.36
3.87
4.07
3.83
3.13
2.02
0.66
-0.74
-2.00
-2.97
-3.61
-4.01
-4.28
-4.55
-4.91
-5.32
-5.66
-5.81
-5.69
-5.41
-5.18
-5.25
-5.77
-6.68
-7.72
-8.56
-8.98
-8.94
-8.56
-8.08
-7.80
-7.99
-8.89
-10.71
-13.43
-16.73
-19.95
-22.23
-22.80
-21.25
-17.68
-12.64
-6.82
-0.87
4.71
9.59
13.49
16.24
17.85
18.58
18.91
19.35
20.20
21.41
22.52
22.91
22.04
19.70
16.08
11.77
7.52
4.07
1.90
1.09
1.37
2.22
3.03
3.31
2.80
1.50
-0.33
-2.26
-3.81
-4.58
-4.35
-3.20
-1.46
0.37
1.79
2.46
2.23
1.20
-0.38
-2.21
-3.94
-5.31
-6.14
-6.40
-6.18
-5.69
-5.22
-4.98
-5.16
-5.82
-6.94
-8.44
-10.10
-11.60
-12.46
-12.18
-10.41
-7.10
-2.59
2.36
6.87
10.22
12.09
12.67
12.49
12.16
12.10
12.40
12.81
12.96
12.52
11.32
9.42
7.05
4.53
2.29
0.73
0.20
0.93
2.93
5.90
9.15
11.77
12.84
11.71
8.34
3.37
-2.08
-6.68
-9.44
-9.92
-8.33
-5.34
-1.80
1.58
4.37
6.42
7.79
8.66
9.27
9.80
10.38
10.99
11.50
11.74
11.54
10.80
9.54
7.83
5.79
3.61
1.54
-0.09
-1.01
-1.14
-0.67
-0.04
0.22
-0.27
-1.64
-3.68
-6.02
-8.22
-9.97
-11.05
-11.39
-10.99
-9.91
-8.30
-6.39
-4.42
-2.59
-1.05
0.15
1.01
1.54
1.78
1.76
1.52
1.11
0.55
-0.10
-0.79
-1.37
-1.68
-1.57
-1.00
-0.10
0.86
1.51
1.57
0.88
-0.49
-2.29
-4.13
-5.65
-6.55
-6.64
-5.89
-4.38
-2.26
0.26
2.91
5.42
7.48
8.85
9.38
9.06
8.04
6.58
4.96
3.47
2.31
1.56
1.19
1.09
1.08
1.04
0.84
0.44
-0.16
-0.91
-1.74
-2.55
-3.26
-3.84
-4.32
-4.76
-5.27
-5.83
-6.33
-6.52
-6.10
-4.90
-2.93
-0.46
2.12
4.39
6.07
7.08
7.46
7.37
7.01
6.52
6.04
5.64
5.30
4.97
4.57
4.04
3.36
2.55
1.68
0.84
0.09
-0.47
-0.80
-0.91
-0.89
-0.96
-1.33
-2.15
-3.39
-4.84
-6.14
-6.98
-7.18
-6.75
-5.91
-4.94
-4.12
-3.56
-3.25
-3.02
-2.70
-2.17
-1.45
-0.66
0.03
0.52
0.78
0.88
0.89
0.87
0.82
0.73
0.61
0.52
0.55
0.73
1.04
1.40
1.70
1.87
1.87
1.67
1.21
0.44
-0.70
-2.15
-3.67
-4.91
-5.50
-5.19
-4.03
-2.30
-0.41
1.23
2.43
3.16
3.53
3.62
3.44
2.97
2.21
1.26
0.35
-0.25
-0.35
0.11
0.98
2.01
2.95
3.59
3.84
3.75
3.41
2.93
2.34
1.62
0.71
-0.39
-1.59
-2.70
-3.49
-3.73
-3.32
-2.33
-0.96
0.51
1.80
2.73
3.27
3.47
3.47
3.40
3.35
3.32
3.26
3.07
2.68
2.13
1.53
1.04
0.83
0.93
1.24
1.56
1.66
1.46
0.98
0.38
-0.15
-0.53
-0.80
-1.10
-1.56
-2.24
-3.10
-3.96
-4.60
-4.83
-4.53
-3.69
-2.41
-0.91
0.60
1.92
2.96
3.73
4.29
4.68
4.87
4.79
4.34
3.50
2.37
1.12
-0.05
-0.96
-1.52
-1.70
-1.57
-1.25
-0.88
-0.62
-0.61
-0.89
-1.47
-2.23
-3.06
-3.81
-4.37
-4.67
-4.72
-4.56
-4.24
-3.80
-3.24
-2.52
-1.63
-0.59
0.47
1.41
2.09
2.47
2.59
2.57
2.48
2.33
2.09
1.72
1.25
0.78
0.42
0.26
0.30
0.45
0.52
0.39
-0.04
-0.73
-1.58
-2.48
-3.32
-4.08
-4.77
-5.41
-6.02
-6.53
-6.85
-6.90
-6.59
-5.83
-4.61
-2.96
-1.00
1.09
3.06
4.69
5.83
6.43
6.56
6.36
6.00
5.64
5.36
5.20
5.10
4.97
4.74
4.37
3.89
3.32
2.67
1.88
0.93
-0.19
-1.34
-2.39
-3.16
-3.58
-3.65
-3.46
-3.04
-2.40
-1.52
-0.42
0.79
1.93
2.77
3.23
3.31
3.15
2.91
2.65
2.30
1.76
0.95
-0.04
-0.98
-1.63
-1.89
-1.90
-1.96
-2.35
-3.19
-4.33
-5.48
-6.30
-6.67
-6.66
-6.48
-6.39
-6.51
-6.81
-7.14
-7.28
-7.05
-6.37
-5.23
-3.78
-2.22
-0.78
0.37
1.14
1.54
1.67
1.59
1.36
0.95
0.39
-0.27
-0.88
-1.28
-1.36
-1.15
-0.80
-0.50
-0.36
-0.37
-0.46
-0.54
-0.58
-0.71
-1.06
-1.72
-2.64
-3.68
-4.58
-5.13
-5.21
-4.78
-3.91
-2.72
-1.39
-0.11
0.89
1.48
1.60
1.33
0.79
0.11
-0.62
-1.37
-2.08
-2.66
-2.95
-2.78
-2.07
-0.85
0.64
2.09
3.22
3.88
4.12
4.06
3.86
3.60
3.23
2.64
1.80
0.77
-0.19
-0.73
-0.56
0.46
2.19
4.30
6.28
7.72
8.37
8.20
7.42
6.33
5.25
4.33
3.62
3.02
2.44
1.80
1.09
0.37
-0.28
-0.79
-1.14
-1.35
-1.47
-1.58
-1.73
-1.93
-2.21
-2.54
-2.95
-3.45
-4.01
-4.54
-4.89
-4.85
-4.31
-3.23
-1.74
-0.09
1.44
2.63
3.39
3.75
3.84
3.79
3.73
3.72
3.78
3.85
3.90
3.88
3.76
3.51
3.10
2.52
1.79
1.05
0.43
0.13
0.19
0.51
0.86
0.96
0.64
-0.04
-0.84
-1.42
-1.53
-1.10
-0.27
0.71
1.62
2.28
2.65
2.77
2.73
2.59
2.38
2.08
1.63
1.02
0.28
-0.48
-1.13
-1.56
-1.78
-1.89
-2.00
-2.18
-2.38
-2.51
-2.45
-2.16
-1.76
-1.45
-1.48
-2.02
-3.09
-4.52
-6.00
-7.11
-7.50
-6.96
-5.53
-3.51
-1.34
0.57
1.92
2.69
3.07
3.32
3.67
4.14
4.61
4.88
4.78
4.27
3.48
2.62
1.87
1.34
0.99
0.69
0.35
-0.12
-0.65
-1.14
-1.43
-1.46
-1.29
-1.07
-1.00
-1.19
-1.64
-2.20
-2.64
-2.78
-2.56
-2.03
-1.36
-0.72
-0.23
0.10
0.30
0.43
0.53
0.62
0.67
0.71
0.73
0.76
0.78
0.83
0.90
0.98
1.07
1.17
1.25
1.34
1.47
1.69
2.01
2.35
2.58
2.51
2.01
1.04
-0.30
-1.83
-3.31
-4.52
-5.32
-5.63
-5.42
-4.75
-3.71
-2.42
-1.07
0.20
1.25
2.06
2.66
3.15
3.57
3.89
4.01
3.79
3.21
2.36
1.43
0.58
-0.12
-0.79
-1.57
-2.57
-3.72
-4.85
-5.71
-6.17
-6.24
-6.11
-6.08
-6.44
-7.38
-8.91
-10.76
-12.47
-13.52
-13.58
-12.64
-11.13
-9.73
-9.06
-9.48
-10.83
-12.59
-14.07
-14.83
-14.89
-14.77
-15.32
-17.33
-21.17
-26.55
-32.62
-38.23
-42.52
-45.31
-47.22
-49.50
-53.47
-60.04
-69.24
-80.22
-91.51
-101.58
-109.39
-114.78
-118.69
-123.15
-130.92
-144.65
-165.72
-193.11
-222.90
-248.86
-263.90
-262.30
-241.77
-204.57
-156.99
-107.32
-62.92
-27.71
-1.20
20.76
43.74
72.43
109.20
153.96
204.88
259.34
314.30
366.18
410.68
443.09
459.50
458.27
440.88
411.74
376.61
340.71
307.20
276.78
248.34
220.39
192.31
164.70
139.06
116.76
98.27
82.86
69.07
55.54
41.67
27.80
14.84
3.66
-5.36
-12.52
-18.55
-24.16
-29.74
-35.12
-39.77
-43.09
-44.83
-45.28
-45.23
-45.61
-47.04
-49.57
-52.72
-55.72
-57.99
-59.34
-60.00
-60.40
-60.81
-61.26
-61.52
-61.30
-60.45
-59.00
-57.13
-54.98
-52.57
-49.80
-46.51
-42.71
-38.61
-34.54
-30.91
-27.97
-25.81
-24.37
-23.42
-22.79
-22.26
-21.74
-21.16
-20.51
-19.81
-19.07
-18.39
-17.88
-17.70
-17.96
-18.72
-19.87
-21.18
-22.41
-23.38
-24.09
-24.65
-25.17
-25.70
-26.15
-26.37
-26.24
-25.81
-25.24
-24.79
-24.63
-24.85
-25.44
-26.34
-27.51
-28.94
-30.60
-32.34
-33.85
-34.70
-34.44
-32.81
-29.89
-26.14
-22.30
-19.16
-17.35
-17.12
-18.35
-20.56
-23.18
-25.67
-27.70
-29.20
-30.32
-31.28
-32.21
-33.06
-33.60
-33.59
-32.96
-31.91
-30.83
-30.07
-29.74
-29.66
-29.49
-28.90
-27.81
-26.23
-24.20
-21.59
-18.09
-13.41
-7.45
-0.46
7.07
14.60
21.76
28.29
34.02
38.59
41.49
42.16
40.25
35.93
29.94
23.40
17.58
13.40
11.22
10.74
11.19
11.67
11.56
10.81
9.94
9.89
11.52
15.31
21.10
28.12
35.33
41.70
46.60
49.85
51.62
52.18
51.73
50.31
47.84
44.14
39.11
32.62
24.54
14.71
2.86
-11.27
-27.77
-46.44
-66.69
-87.60
-108.17
-127.64
-145.57
-161.91
-176.70
-189.78
-200.61
-208.32
-212.07
-211.47
-206.90
-199.50
-190.84
-182.55
-175.93
-171.86
-170.87
-173.15
-178.47
-185.71
-192.53
-195.45
-190.42
-173.88
-143.82
-100.48
-46.37
14.24
76.20
134.45
184.85
224.96
254.34
274.46
287.96
297.56
305.09
311.02
314.89
316.17
315.21
313.55
313.51
317.14
325.36
337.41
351.17
363.84
372.79
376.11
372.65
361.80
343.35
317.30
284.01
244.36
199.66
151.32
100.51
48.10
-4.95
-57.04
-105.59
-147.42
-179.68
-200.93
-211.69
-214.11
-211.09
-205.18
-198.04
-190.46
-182.79
-175.45
-168.93
-163.59
-159.35
-155.58
-151.40
-146.04
-139.21
-131.19
-122.62
-114.25
-106.54
-99.51
-92.89
-86.26
-79.33
-72.17
-65.13
-58.77
-53.54
-49.61
-46.78
-44.57
-42.39
-39.76
-36.52
-32.85
-29.21
-26.10
-23.83
-22.42
-21.63
-21.10
-20.57
-20.01
-19.53
-19.34
-19.54
-20.12
-20.96
-21.95
-22.94
-23.83
-24.41
-24.44
-23.68
-22.06
-19.73
-17.03
-14.36
-12.05
-10.26
-8.95
-8.05
-7.49
-7.27
-7.42
-7.86
-8.46
-8.98
-9.22
-9.10
-8.61
-7.85
-6.94
-5.95
-4.97
-4.10
-3.46
-3.16
-3.25
-3.69
-4.34
-5.12
-6.03
-7.19
-8.77
-10.82
-13.23
-15.61
-17.44
-18.20
-17.57
-15.52
-12.32
-8.45
-4.49
-0.90
1.96
3.94
4.99
5.16
4.63
3.62
2.49
1.62
1.30
1.64
2.52
3.61
4.53
5.00
4.92
4.39
3.62
2.83
2.13
1.52
0.88
0.05
-1.14
-2.84
-5.11
-7.89
-10.93
-13.78
-15.92
-16.88
-16.41
-14.53
-11.57
-7.96
-4.17
-0.61
2.44
4.75
6.19
6.75
6.57
5.94
5.24
4.79
4.74
5.09
5.66
6.26
6.78
7.18
7.50
7.76
7.95
8.00
7.86
7.50
6.89
5.96
4.60
2.69
0.15
-2.93
-6.27
-9.44
-11.95
-13.38
-13.50
-12.32
-10.00
-6.85
-3.22
0.50
3.92
6.72
8.71
9.83
10.22
10.10
9.73
9.32
8.97
8.69
8.49
8.40
8.51
8.93
9.73
10.82
11.98
12.90
13.28
13.00
12.09
10.75
9.22
7.66
6.08
4.42
2.58
0.55
-1.62
-3.83
-5.98
-7.96
-9.62
-10.68
-10.74
-9.45
-6.59
-2.30
2.92
8.35
13.21
16.89
19.08
19.82
19.35
18.07
16.32
14.43
12.65
11.17
10.13
9.63
9.64
10.00
10.46
10.77
10.67
10.06
8.95
7.44
5.67
3.74
1.72
-0.37
-2.56
-4.84
-7.16
-9.40
-11.46
-13.28
-14.81
-16.01
-16.73
-16.72
-15.59
-13.04
-8.93
-3.41
3.13
10.15
17.11
23.65
29.61
34.97
39.86
44.41
48.72
52.79
56.56
59.84
62.31
63.50
62.97
60.34
55.65
49.32
42.02
34.43
26.76
18.70
9.54
-1.36
-14.22
-28.56
-43.30
-57.02
-68.29
-75.87
-78.93
-77.21
-71.20
-62.15
-51.86
-42.22
-34.70
-30.06
-28.29
-28.89
-31.22
-34.71
-38.91
-43.36
-47.55
-50.95
-53.08
-53.74
-52.91
-50.78
-47.60
-43.61
-39.01
-33.99
-28.71
-23.24
-17.57
-11.56
-5.05
2.01
9.51
17.09
24.17
30.15
34.48
36.90
37.43
36.52
34.88
33.39
32.82
33.67
35.94
39.19
42.69
45.73
47.80
48.73
48.62
47.74
46.52
45.50
45.29
46.34
48.71
51.74
54.16
54.48
51.66
45.70
37.72
29.49
22.58
17.76
14.73
12.60
10.45
7.92
5.16
2.59
0.42
-1.59
-3.98
-7.22
-11.37
-15.93
-20.12
-23.19
-24.78
-25.05
-24.55
-23.95
-23.71
-23.96
-24.55
-25.17
-25.64
-25.99
-26.41
-27.09
-28.03
-28.98
-29.53
-29.30
-28.19
-26.40
-24.37
-22.49
-20.97
-19.71
-18.43
-16.90
-15.03
-13.02
-11.19
-9.81
-9.04
-8.89
-9.22
-9.85
-10.51
-10.85
-10.45
-8.90
-5.96
-1.69
3.50
8.98
14.08
18.33
21.54
23.77
25.18
25.91
26.04
25.58
24.59
23.17
21.53
19.86
18.36
17.15
16.24
15.56
14.98
14.35
13.47
12.22
10.54
8.51
6.25
3.90
1.56
-0.76
-3.08
-5.40
-7.64
-9.56
-10.92
-11.43
-10.96
-9.51
-7.21
-4.26
-0.86
2.84
6.70
10.54
14.10
17.05
19.14
20.12
19.96
18.77
16.86
14.61
12.37
10.40
8.75
7.33
5.96
4.52
2.97
1.42
-0.01
-1.24
-2.29
-3.30
-4.41
-5.78
-7.41
-9.25
-11.11
-12.74
-13.77
-13.83
-12.60
-9.92
-5.95
-1.09
4.03
8.73
12.43
14.77
15.63
15.09
13.41
10.99
8.32
5.93
4.26
3.57
3.86
4.87
6.23
7.53
8.46
8.87
8.73
8.06
6.95
5.51
3.85
2.04
0.11
-2.05
-4.55
-7.35
-10.20
-12.60
-13.93
-13.70
-11.77
-8.45
-4.39
-0.31
3.20
5.90
7.84
9.26
10.38
11.27
11.88
12.15
12.09
11.83
11.58
11.43
11.38
11.25
10.84
10.02
8.87
7.58
6.34
5.18
4.00
2.57
0.71
-1.60
-4.20
-6.75
-8.93
-10.48
-11.18
-10.95
-9.74
-7.63
-4.82
-1.60
1.70
4.76
7.37
9.39
10.71
11.28
11.07
10.16
8.76
7.18
5.79
4.89
4.59
4.81
5.30
5.80
6.09
6.12
5.95
5.71
5.49
5.27
4.90
4.12
2.73
0.68
-1.85
-4.49
-6.75
-8.14
-8.32
-7.19
-4.93
-1.96
1.17
3.89
5.78
6.65
6.54
5.66
4.28
2.69
1.14
-0.14
-0.91
-1.01
-0.45
0.61
1.80
2.77
3.27
3.27
3.02
2.84
2.93
3.28
3.61
3.54
2.80
1.33
-0.65
-2.72
-4.45
-5.52
-5.73
-5.08
-3.71
-1.90
-0.06
1.42
2.23
2.28
1.70
0.77
-0.22
-1.11
-1.83
-2.37
-2.65
-2.49
-1.69
-0.17
1.94
4.26
6.31
7.71
8.29
8.13
7.44
6.41
5.11
3.46
1.37
-1.13
-3.81
-6.25
-7.97
-8.62
-8.08
-6.51
-4.29
-1.86
0.36
2.13
3.31
3.92
3.98
3.59
2.83
1.84
0.81
-0.09
-0.70
-1.00
-1.01
-0.84
-0.54
-0.11
0.46
1.16
1.87
2.45
2.73
2.64
2.18
1.43
0.39
-0.98
-2.77
-4.93
-7.25
-9.29
-10.53
-10.60
-9.40
-7.17
-4.36
-1.42
1.35
3.79
5.87
7.57
8.82
9.50
9.57
9.10
8.28
7.34
6.46
5.67
4.94
4.21
3.44
2.68
1.98
1.37
0.82
0.27
-0.33
-1.03
-1.81
-2.64
-3.48
-4.26
-4.91
-5.29
-5.28
-4.78
-3.78
-2.42
-0.93
0.41
1.36
1.80
1.73
1.30
0.65
-0.07
-0.76
-1.33
-1.71
-1.81
-1.53
-0.84
0.25
1.62
3.14
4.66
6.05
7.19
7.95
8.28
8.14
7.54
6.53
5.16
3.44
1.40
-0.93
-3.41
-5.79
-7.75
-8.95
-9.15
-8.31
-6.59
-4.34
-1.98
0.10
1.64
2.52
2.82
2.68
2.29
1.85
1.50
1.39
1.61
2.22
3.20
4.40
5.60
6.54
7.03
6.99
6.41
5.39
4.04
2.45
0.67
-1.28
-3.41
-5.62
-7.77
-9.60
-10.84
-11.25
-10.71
-9.26
-7.14
-4.66
-2.11
0.25
2.29
3.90
4.98
5.41
5.17
4.35
3.21
2.10
1.36
1.17
1.51
2.16
2.82
3.20
3.16
2.70
1.96
1.10
0.28
-0.39
-0.88
-1.20
-1.44
-1.74
-2.22
-2.94
-3.85
-4.79
-5.55
-5.88
-5.63
-4.75
-3.32
-1.50
0.49
2.39
3.95
4.96
5.31
4.99
4.13
2.97
1.77
0.75
0.02
-0.40
-0.51
-0.32
0.16
0.90
1.79
2.66
3.34
3.69
3.67
3.33
2.73
1.91
0.88
-0.40
-1.91
-3.59
-5.28
-6.74
-7.76
-8.13
-7.74
-6.62
-4.92
-2.88
-0.77
1.15
2.73
3.86
4.47
4.58
4.22
3.50
2.62
1.80
1.23
1.01
1.13
1.44
1.76
1.91
1.79
1.45
1.02
0.67
0.49
0.50
0.59
0.62
0.44
-0.06
-0.91
-2.05
-3.36
-4.63
-5.62
-6.11
-5.98
-5.27
-4.20
-3.00
-1.93
-1.08
-0.50
-0.12
0.11
0.25
0.33
0.38
0.43
0.55
0.77
1.14
1.70
2.41
3.21
3.94
4.46
4.66
4.48
3.95
3.12
2.11
0.97
-0.22
-1.39
-2.43
-3.26
-3.85
-4.19
-4.32
-4.28
-4.00
-3.34
-2.16
-0.40
1.83
4.21
6.28
7.60
7.86
6.97
5.08
2.52
-0.33
-3.08
-5.41
-7.08
-7.94
-7.97
-7.27
-6.04
-4.57
-3.13
-1.97
-1.24
-0.96
-1.03
-1.28
-1.51
-1.58
-1.53
-1.52
-1.82
-2.64
-3.98
-5.60
-7.04
-7.80
-7.59
-6.38
-4.47
-2.25
-0.13
1.66
3.07
4.10
4.81
5.18
5.18
4.79
4.06
3.13
2.20
1.47
1.05
0.99
1.25
1.73
2.35
3.06
3.89
4.87
6.00
7.19
8.24
8.93
9.04
8.44
7.10
5.08
2.54
-0.25
-2.94
-5.14
-6.51
-6.90
-6.39
-5.29
-3.98
-2.81
-1.96
-1.43
-1.14
-1.02
-1.07
-1.36
-1.96
-2.90
-4.10
-5.35
-6.40
-7.00
-6.97
-6.25
-4.91
-3.16
-1.26
0.53
1.99
3.00
3.52
3.57
3.22
2.58
1.73
0.69
-0.51
-1.89
-3.38
-4.82
-5.95
-6.49
-6.24
-5.22
-3.65
-1.98
-0.65
-0.01
-0.15
-0.88
-1.81
-2.57
-2.89
-2.69
-2.06
-1.11
0.05
1.34
2.68
3.95
4.99
5.65
5.90
5.82
5.56
5.29
5.07
4.88
4.64
4.29
3.77
3.04
2.06
0.77
-0.86
-2.82
-4.96
-7.07
-8.83
-10.01
-10.40
-9.97
-8.83
-7.20
-5.43
-3.85
-2.72
-2.15
-2.12
-2.45
-2.90
-3.29
-3.46
-3.39
-3.13
-2.74
-2.22
-1.55
-0.64
0.58
2.07
3.73
5.31
6.58
7.38
7.69
7.63
7.34
6.92
6.30
5.32
3.80
1.68
-0.93
-3.78
-6.51
-8.79
-10.36
-11.07
-10.91
-9.98
-8.49
-6.67
-4.77
-2.90
-1.16
0.46
1.92
3.16
4.06
4.47
4.30
3.56
2.41
1.10
-0.04
-0.74
-0.90
-0.58
-0.04
0.45
0.68
0.61
0.34
-0.01
-0.34
-0.67
-1.05
-1.56
-2.22
-3.00
-3.85
-4.70
-5.49
-6.12
-6.49
-6.48
-6.03
-5.17
-4.03
-2.78
-1.58
-0.49
0.51
1.53
2.66
3.94
5.35
6.75
8.03
9.11
9.95
10.57
10.93
10.95
10.48
9.41
7.70
5.51
3.09
0.81
-1.06
-2.39
-3.22
-3.77
-4.27
-4.93
-5.84
-7.04
-8.47
-10.03
-11.55
-12.74
-13.27
-12.84
-11.36
-8.97
-6.03
-3.00
-0.25
1.99
3.68
4.85
5.56
5.82
5.71
5.36
4.96
4.69
4.64
4.77
4.95
5.03
4.93
4.70
4.43
4.22
4.09
3.98
3.77
3.36
2.69
1.77
0.66
-0.59
-1.94
-3.38
-4.94
-6.55
-8.09
-9.33
-10.03
-10.01
-9.24
-7.85
-6.03
-4.02
-2.06
-0.30
1.08
1.98
2.37
2.35
2.14
1.99
2.10
2.52
3.08
3.60
3.92
4.01
4.00
4.05
4.26
4.63
5.04
5.33
5.40
5.17
4.67
3.92
2.95
1.82
0.62
-0.54
-1.55
-2.41
-3.20
-4.05
-5.02
-6.00
-6.74
-6.91
-6.35
-5.10
-3.46
-1.81
-0.45
0.48
1.01
1.24
1.22
0.99
0.58
0.05
-0.47
-0.83
-0.92
-0.73
-0.27
0.37
1.09
1.75
2.25
2.49
2.43
2.11
1.61
0.99
0.30
-0.45
-1.23
-1.98
-2.63
-3.16
-3.64
-4.20
-4.95
-5.89
-6.88
-7.59
-7.73
-7.04
-5.47
-3.18
-0.47
2.22
4.45
5.88
6.33
5.87
4.73
3.25
1.73
0.34
-0.84
-1.78
-2.42
-2.64
-2.35
-1.54
-0.32
1.10
2.48
3.65
4.54
5.12
5.40
5.34
4.92
4.17
3.18
2.08
0.99
-0.00
-0.84
-1.49
-1.85
-1.82
-1.39
-0.60
0.37
1.38
2.35
3.29
4.35
5.61
7.11
8.73
10.25
11.45
12.17
12.45
12.50
12.72
13.57
15.41
18.29
21.88
25.55
28.58
30.56
31.60
32.34
33.71
36.45
40.78
46.23
51.85
56.57
59.67
60.94
60.83
60.46
61.60
66.49
77.27
95.25
120.02
149.03
177.89
201.52
215.63
218.07
209.30
191.88
169.31
144.73
120.24
96.83
74.89
54.79
37.04
22.07
9.75
-0.78
-10.80
-21.36
-32.54
-43.22
-51.62
-56.20
-56.52
-53.60
-49.45
-46.19
-45.12
-46.27
-48.55
-50.36
-50.24
-47.53
-42.54
-36.37
-30.46
-25.77
-22.22
-18.38
-11.82
0.15
19.46
46.50
79.79
116.08
151.03
179.87
198.34
203.48
194.38
172.50
141.58
106.80
73.41
45.35
24.12
8.70
-3.64
-15.96
-30.36
-47.36
-66.12
-85.22
-103.49
-120.43
-136.10
-150.62
-163.72
-174.57
-182.10
-185.55
-184.99
-181.33
-176.04
-170.47
-165.33
-160.55
-155.50
-149.56
-142.56
-134.96
-127.61
-121.21
-115.97
-111.45
-106.95
-101.83
-95.91
-89.49
-83.11
-77.31
-72.38
-68.35
-65.06
-62.28
-59.81
-57.55
-55.54
-53.89
-52.78
-52.29
-52.46
-53.26
-54.67
-56.73
-59.49
-62.90
-66.70
-70.42
-73.50
-75.56
-76.55
-76.84
-77.03
-77.73
-79.16
-81.10
-82.92
-83.83
-83.19
-80.71
-76.65
-71.64
-66.60
-62.29
-58.95
-55.88
-51.22
-42.24
-25.94
-0.17
35.37
78.47
124.65
168.32
204.41
229.84
244.32
249.85
249.62
246.60
242.69
238.73
235.02
232.00
230.48
231.48
235.56
242.45
251.03
259.74
267.29
273.22
277.96
282.52
288.03
295.34
304.79
316.20
328.97
342.15
354.53
364.73
371.34
373.04
368.89
358.44
341.92
320.17
294.55
266.71
238.26
210.55
184.42
160.18
137.73
116.69
96.70
77.54
59.20
41.92
26.12
12.30
0.91
-7.88
-14.19
-18.58
-21.81
-24.74
-28.04
-32.09
-36.91
-42.39
-48.37
-54.92
-62.35
-71.16
-81.81
-94.46
-108.87
-124.39
-140.25
-155.77
-170.56
-184.63
-198.23
-211.74
-225.66
-240.49
-256.72
-274.40
-292.77
-310.04
-323.76
-331.60
-332.30
-326.33
-315.69
-303.31
-292.05
-283.99
-279.95
-279.67
-281.86
-284.54
-285.22
-281.16
-270.03
-250.70
-223.98
-192.92
-162.20
-136.73
-120.23
-113.85
-115.85
-122.32
-128.56
-130.48
-125.60
-113.54
-96.10
-77.00
-61.03
-52.55
-53.81
-63.71
-77.92
-90.77
-97.80
-97.68
-92.30
-85.13
-78.85
-74.04
-69.54
-64.07
-57.87
-52.99
-52.20
-57.25
-67.61
-80.66
-92.91
-101.54
-105.39
-105.11
-102.41
-99.15
-96.58
-94.91
-93.41
-90.89
-86.48
-80.29
-73.80
-69.53
-70.37
-78.57
-95.05
-119.04
-148.35
-179.62
-208.79
-231.84
-245.75
-249.89
-247.15
-244.20
-249.64
-270.64
-309.27
-360.52
-413.59
-455.95
-478.44
-478.64
-461.01
-433.82
-404.99
-379.04
-356.58
-336.13
-316.36
-297.43
-280.66
-267.06
-256.18
-245.83
-233.28
-216.65
-195.99
-173.10
-150.73
-131.12
-115.04
-101.63
-88.95
-75.09
-59.00
-40.91
-21.99
-3.62
13.25
28.56
42.87
56.95
71.21
85.49
99.26
112.01
123.79
135.27
147.49
161.24
176.71
193.14
209.23
223.73
236.17
247.23
259.05
274.77
297.77
330.40
372.67
421.10
468.70
506.43
525.96
522.78
498.04
458.31
413.18
371.76
339.84
318.80
306.53
299.54
294.85
290.76
286.54
281.39
273.84
261.75
243.19
217.06
183.76
145.04
103.47
62.29
25.19
-3.62
-19.98
-20.91
-6.24
20.43
52.36
81.87
103.32
114.96
118.88
118.81
117.52
115.13
109.72
99.25
83.61
65.19
47.46
32.98
21.85
11.91
0.43
-13.88
-29.79
-43.96
-52.38
-52.60
-44.78
-31.63
-17.26
-5.66
0.47
0.13
-6.10
-16.49
-28.74
-40.45
-49.85
-56.26
-60.37
-63.70
-67.72
-72.87
-78.12
-81.47
-81.00
-75.94
-67.06
-56.23
-45.39
-35.77
-27.58
-20.41
-13.81
-7.61
-2.07
2.37
5.24
6.23
5.25
2.50
-1.43
-5.66
-9.01
-10.36
-8.88
-4.35
2.74
11.32
20.05
27.69
33.48
37.26
39.41
40.51
41.16
41.70
42.30
43.11
44.31
45.92
47.63
48.77
48.65
47.43
46.53
48.52
55.84
69.13
86.06
101.75
110.65
109.04
96.57
75.98
51.19
25.12
-1.31
-28.46
-56.37
-83.39
-106.31
-121.78
-128.14
-126.19
-118.67
-108.83
-98.78
-89.08
-79.14
-68.26
-56.27
-43.81
-31.67
-20.29
-9.37
2.12
15.48
31.64
50.66
71.46
91.80
108.79
119.68
122.79
118.17
107.59
94.00
80.34
68.50
58.82
50.41
41.98
32.84
23.34
14.64
7.99
4.02
2.46
2.45
3.12
4.09
5.57
8.11
12.04
17.18
22.77
27.77
31.26
32.71
32.05
29.44
25.20
19.59
12.95
5.73
-1.48
-8.03
-13.35
-17.09
-19.27
-20.22
-20.50
-20.76
-21.48
-22.75
-24.14
-24.78
-23.62
-19.94
-13.75
-5.94
2.01
8.49
12.44
13.65
12.75
10.95
9.59
9.83
12.51
18.25
27.47
40.20
55.67
72.10
86.81
96.95
100.56
97.25
88.14
75.28
60.76
46.31
33.41
23.81
19.53
22.24
32.08
46.65
61.14
69.77
68.14
55.10
33.43
8.77
-12.52
-25.63
-28.64
-22.67
-10.76
3.44
16.70
26.87
32.95
34.95
33.60
29.84
24.29
16.56
5.27
-11.55
-35.32
-66.09
-101.58
-137.44
-168.27
-188.89
-195.47
-186.35
-162.52
-127.70
-87.69
-48.84
-15.87
9.81
30.40
49.87
71.15
93.75
113.39
123.98
120.70
102.39
71.78
33.87
-6.35
-45.05
-79.15
-104.82
-116.55
-108.25
-75.95
-20.87
49.25
121.25
180.46
215.29
220.74
199.16
158.27
107.68
55.47
6.52
-37.23
-75.26
-106.87
-130.52
-144.32
-147.06
-139.12
-122.50
-100.23
-75.47
-50.88
-28.27
-8.77
6.86
17.97
24.08
25.00
21.13
13.57
4.08
-5.17
-12.20
-15.67
-15.27
-11.65
-6.13
-0.18
5.02
8.83
11.13
12.11
11.98
10.88
8.82
5.78
1.82
-2.83
-7.78
-12.49
-16.34
-18.76
-19.34
-17.99
-15.01
-10.97
-6.59
-2.49
0.92
3.54
5.40
6.57
7.07
6.94
6.25
5.23
4.15
3.25
2.64
2.29
2.01
1.60
0.84
-0.43
-2.32
-4.81
-7.70
-10.69
-13.48
-15.88
-17.89
-19.65
-21.20
-22.40
-22.81
-21.87
-19.10
-14.35
-7.88
-0.34
7.41
14.56
20.48
24.79
27.32
28.10
27.29
25.17
22.20
18.93
15.90
13.52
11.93
10.98
10.32
9.52
8.27
6.43
4.08
1.44
-1.31
-4.05
-6.81
-9.67
-12.62
-15.45
-17.68
-18.69
-17.92
-15.16
-10.61
-4.90
1.11
6.59
10.95
13.91
15.51
16.02
15.78
15.10
14.24
13.30
12.25
11.02
9.55
7.82
5.94
4.08
2.44
1.21
0.49
0.26
0.24
-0.02
-1.10
-3.51
-7.37
-12.21
-17.03
-20.50
-21.43
-19.18
-13.89
-6.39
2.07
10.25
17.16
22.20
25.16
26.12
25.40
23.44
20.73
17.70
14.65
11.67
8.71
5.70
2.64
-0.33
-3.03
-5.26
-6.97
-8.21
-9.14
-9.96
-10.90
-12.16
-13.92
-16.29
-19.14
-22.07
-24.34
-25.08
-23.53
-19.31
-12.68
-4.36
4.60
13.23
20.75
26.70
30.87
33.20
33.70
32.56
30.13
27.01
23.89
21.40
19.93
19.51
19.86
20.55
21.13
21.23
20.57
18.98
16.33
12.63
8.00
2.66
-3.14
-9.19
-15.29
-21.22
-26.59
-30.79
-33.12
-33.02
-30.40
-25.69
-19.80
-13.71
-8.20
-3.61
0.09
3.07
5.32
6.67
6.83
5.70
3.56
1.04
-1.12
-2.42
-2.82
-2.71
-2.66
-3.10
-4.13
-5.46
-6.68
-7.46
-7.75
-7.77
-7.88
-8.44
-9.68
-11.66
-14.24
-17.09
-19.68
-21.32
-21.34
-19.24
-14.92
-8.77
-1.59
5.68
12.19
17.38
21.02
23.05
23.48
22.35
19.75
16.02
11.77
7.89
5.22
4.34
5.25
7.42
9.94
11.92
12.74
12.23
10.59
8.15
5.15
1.72
-2.13
-6.38
-10.93
-15.61
-20.18
-24.40
-27.94
-30.33
-31.00
-29.44
-25.43
-19.24
-11.62
-3.54
4.05
10.51
15.55
19.09
21.15
21.83
21.22
19.56
17.23
14.68
12.33
10.44
9.05
8.07
7.27
6.45
5.46
4.21
2.73
1.17
-0.30
-1.49
-2.37
-3.07
-3.87
-5.13
-7.13
-9.89
-13.16
-16.36
-18.78
-19.77
-18.90
-16.09
-11.65
-6.16
-0.33
5.24
10.05
13.83
16.43
17.74
17.71
16.32
13.77
10.46
6.99
4.05
2.15
1.49
1.83
2.67
3.37
3.47
2.77
1.38
-0.40
-2.26
-3.97
-5.46
-6.77
-8.08
-9.53
-11.23
-13.13
-14.97
-16.30
-16.58
-15.36
-12.39
-7.83
-2.09
4.14
10.15
15.30
19.12
21.28
21.66
20.31
17.46
13.58
9.28
5.23
2.02
0.02
-0.69
-0.34
0.64
1.72
2.46
2.54
1.88
0.58
-1.17
-3.17
-5.28
-7.47
-9.76
-12.21
-14.76
-17.26
-19.37
-20.71
-20.84
-19.45
-16.43
-11.96
-6.44
-0.44
5.42
10.62
14.73
17.50
18.86
18.87
17.73
15.78
13.43
11.10
9.13
7.74
6.98
6.73
6.76
6.81
6.67
6.20
5.33
4.07
2.46
0.55
-1.61
-3.98
-6.52
-9.18
-11.94
-14.62
-16.92
-18.38
-18.45
-16.72
-13.09
-7.89
-1.77
4.46
10.02
14.32
16.99
17.86
16.91
14.37
10.71
6.64
2.99
0.44
-0.67
-0.45
0.60
1.82
2.64
2.76
2.18
1.12
-0.10
-1.24
-2.17
-2.90
-3.59
-4.49
-5.91
-8.05
-10.92
-14.21
-17.24
-19.15
-19.16
-16.84
-12.33
-6.31
0.21
6.23
10.98
14.05
15.37
15.08
13.46
10.87
7.79
4.79
2.45
1.20
1.17
2.15
3.63
5.01
5.81
5.81
5.10
3.98
2.77
1.65
0.57
-0.65
-2.29
-4.59
-7.57
-11.06
-14.64
-17.74
-19.71
-20.05
-18.48
-15.09
-10.35
-4.95
0.33
4.79
7.97
9.62
9.75
8.53
6.25
3.34
0.31
-2.30
-4.00
-4.48
-3.73
-2.03
0.10
2.06
3.35
3.70
3.14
1.88
0.23
-1.58
-3.46
-5.49
-7.77
-10.34
-13.07
-15.64
-17.55
-18.35
-17.71
-15.54
-12.01
-7.45
-2.34
2.85
7.63
11.57
14.29
15.61
15.50
14.15
11.99
9.57
7.51
6.29
6.12
6.87
8.07
9.10
9.44
8.85
7.42
5.51
3.53
1.76
0.24
-1.18
-2.75
-4.74
-7.32
-10.50
-14.07
-17.58
-20.37
-21.72
-21.05
-18.19
-13.45
-7.56
-1.51
3.82
7.76
9.98
10.49
9.51
7.47
4.91
2.38
0.42
-0.57
-0.39
0.92
3.05
5.50
7.67
9.04
9.26
8.28
6.34
3.82
1.16
-1.38
-3.71
-5.95
-8.25
-10.70
-13.25
-15.67
-17.62
-18.73
-18.62
-17.07
-14.04
-9.73
-4.62
0.65
5.43
9.18
11.67
12.92
13.14
12.62
11.57
10.17
8.55
6.94
5.64
4.98
5.12
5.97
7.15
8.13
8.44
7.87
6.49
4.61
2.56
0.55
-1.41
-3.45
-5.66
-8.04
-10.44
-12.62
-14.35
-15.39
-15.50
-14.50
-12.22
-8.70
-4.14
1.01
6.19
10.84
14.46
16.74
17.51
16.84
14.96
12.33
9.52
7.16
5.70
5.31
5.84
6.88
7.90
8.44
8.20
7.11
5.31
3.10
0.79
-1.37
-3.27
-5.01
-6.83
-9.00
-11.67
-14.72
-17.77
-20.22
-21.42
-20.87
-18.38
-14.14
-8.68
-2.73
2.99
7.90
11.67
14.20
15.50
15.65
14.75
12.97
10.59
8.08
5.98
4.75
4.58
5.33
6.54
7.64
8.19
7.98
7.07
5.72
4.21
2.70
1.19
-0.46
-2.42
-4.88
-7.89
-11.34
-14.91
-18.08
-20.23
-20.81
-19.48
-16.25
-11.52
-5.92
-0.18
5.08
9.40
12.57
14.48
15.14
14.61
13.03
10.66
7.92
5.29
3.22
1.95
1.45
1.47
1.63
1.59
1.17
0.35
-0.80
-2.19
-3.80
-5.66
-7.74
-9.98
-12.27
-14.45
-16.41
-18.03
-19.16
-19.52
-18.79
-16.60
-12.79
-7.46
-1.06
5.66
11.87
16.81
19.92
20.98
20.08
17.55
13.94
9.89
6.11
3.16
1.40
0.86
1.21
1.89
2.31
2.00
0.84
-0.99
-3.08
-4.96
-6.33
-7.15
-7.66
-8.31
-9.53
-11.61
-14.49
-17.67
-20.29
-21.39
-20.19
-16.41
-10.42
-3.07
4.56
11.46
16.93
20.63
22.52
22.72
21.47
19.12
16.14
13.08
10.52
8.85
8.20
8.38
9.00
9.61
9.86
9.57
8.80
7.68
6.40
5.05
3.62
2.00
0.01
-2.54
-5.75
-9.50
-13.40
-16.76
-18.78
-18.75
-16.37
-11.88
-6.04
0.14
5.66
9.87
12.55
13.79
13.86
13.02
11.48
9.47
7.26
5.17
3.53
2.57
2.31
2.58
3.09
3.50
3.58
3.21
2.45
1.46
0.41
-0.64
-1.75
-3.08
-4.85
-7.23
-10.19
-13.50
-16.67
-19.10
-20.20
-19.54
-17.02
-12.87
-7.61
-1.92
3.53
8.25
11.95
14.49
15.87
16.12
15.32
13.62
11.29
8.73
6.39
4.74
4.03
4.26
5.10
6.02
6.49
6.16
5.01
3.29
1.37
-0.41
-1.93
-3.27
-4.69
-6.42
-8.60
-11.20
-14.07
-16.93
-19.43
-21.14
-21.63
-20.53
-17.68
-13.25
-7.78
-2.01
3.28
7.53
10.54
12.42
13.37
13.61
13.20
12.17
10.56
8.62
6.72
5.29
4.63
4.78
5.54
6.50
7.24
7.46
6.98
5.82
4.12
2.09
-0.05
-2.14
-4.05
-5.77
-7.32
-8.82
-10.43
-12.24
-14.28
-16.38
-18.13
-18.97
-18.30
-15.70
-11.16
-5.11
1.61
8.01
13.25
16.84
18.71
19.13
18.50
17.19
15.46
13.50
11.53
9.82
8.66
8.22
8.48
9.15
9.80
9.98
9.45
8.18
6.38
4.35
2.30
0.34
-1.56
-3.44
-5.32
-7.15
-8.85
-10.38
-11.82
-13.34
-15.14
-17.25
-19.42
-21.09
-21.56
-20.24
-16.94
-11.94
-5.98
0.06
5.39
9.51
12.26
13.70
14.02
13.44
12.18
10.50
8.68
7.03
5.82
5.25
5.38
6.11
7.26
8.52
9.56
10.09
9.92
8.96
7.27
5.05
2.57
0.14
-1.98
-3.67
-4.93
-5.94
-6.93
-8.16
-9.83
-11.98
-14.44
-16.81
-18.50
-18.88
-17.47
-14.10
-9.03
-2.92
3.38
9.01
13.33
16.00
17.00
16.55
15.06
12.98
10.74
8.71
7.15
6.18
5.82
5.95
6.38
6.84
7.11
7.02
6.51
5.59
4.31
2.74
0.89
-1.14
-3.22
-5.13
-6.70
-7.85
-8.69
-9.46
-10.47
-11.96
-13.99
-16.41
-18.82
-20.66
-21.34
-20.39
-17.55
-12.98
-7.18
-0.95
4.86
9.50
12.56
13.97
13.97
12.98
11.42
9.65
7.94
6.48
5.39
4.75
4.57
4.74
5.08
5.32
5.26
4.81
3.99
2.92
1.77
0.63
-0.50
-1.67
-2.91
-4.23
-5.57
-6.83
-7.98
-9.10
-10.38
-11.97
-13.85
-15.68
-16.88
-16.79
-14.94
-11.32
-6.37
-0.85
4.39
8.69
11.75
13.54
14.22
14.01
13.09
11.59
9.68
7.58
5.58
3.99
3.05
2.86
3.31
4.18
5.13
5.83
6.00
5.53
4.43
2.87
1.06
-0.81
-2.57
-4.20
-5.72
-7.27
-8.96
-10.91
-13.10
-15.35
-17.30
-18.50
-18.48
-16.96
-13.90
-9.59
-4.51
0.72
5.52
9.42
12.13
13.49
13.52
12.35
10.28
7.67
4.97
2.64
1.03
0.35
0.58
1.46
2.58
3.55
4.04
3.92
3.25
2.18
0.89
-0.50
-1.92
-3.40
-4.99
-6.74
-8.70
-10.87
-13.19
-15.50
-17.51
-18.84
-19.03
-17.72
-14.78
-10.43
-5.18
0.24
5.12
8.93
11.41
12.57
12.53
11.50
9.68
7.34
4.80
2.48
0.80
-0.00
0.12
0.94
2.06
3.03
3.55
3.50
2.95
2.07
1.03
-0.07
-1.18
-2.31
-3.50
-4.82
-6.37
-8.25
-10.42
-12.66
-14.51
-15.38
-14.74
-12.37
-8.46
-3.59
1.52
6.20
9.99
12.72
14.37
14.97
14.54
13.13
10.85
8.01
5.05
2.49
0.75
0.01
0.13
0.77
1.46
1.83
1.71
1.13
0.20
-0.92
-2.18
-3.59
-5.19
-7.00
-8.95
-10.94
-12.88
-14.71
-16.33
-17.56
-18.11
-17.59
-15.70
-12.34
-7.71
-2.33
3.11
7.94
11.66
14.02
15.02
14.86
13.77
12.00
9.78
7.35
5.01
3.07
1.82
1.44
1.84
2.74
3.76
4.52
4.83
4.65
4.01
3.01
1.67
0.00
-1.98
-4.19
-6.56
-8.96
-11.30
-13.46
-15.19
-16.14
-15.92
-14.23
-11.06
-6.75
-1.90
2.78
6.69
9.47
11.03
11.50
11.06
9.91
8.25
6.28
4.27
2.55
1.43
1.11
1.56
2.50
3.54
4.27
4.44
3.99
3.08
1.91
0.65
-0.64
-2.01
-3.55
-5.38
-7.53
-9.95
-12.53
-15.03
-17.11
-18.37
-18.40
-16.90
-13.82
-9.42
-4.24
1.03
5.72
9.36
11.70
12.75
12.66
11.67
10.03
8.03
5.98
4.18
2.92
2.36
2.53
3.25
4.21
5.07
5.50
5.32
4.52
3.24
1.70
0.06
-1.60
-3.33
-5.17
-7.19
-9.35
-11.58
-13.69
-15.43
-16.50
-16.55
-15.29
-12.59
-8.61
-3.83
1.10
5.54
9.01
11.34
12.52
12.68
11.97
10.54
8.61
6.47
4.53
3.13
2.50
2.64
3.36
4.34
5.22
5.72
5.69
5.12
4.08
2.66
1.00
-0.84
-2.82
-4.89
-7.03
-9.20
-11.38
-13.46
-15.27
-16.50
-16.75
-15.64
-12.97
-8.91
-3.95
1.20
5.83
9.45
11.85
13.11
13.38
12.85
11.65
9.94
7.88
5.79
3.97
2.70
2.12
2.17
2.66
3.25
3.65
3.62
3.06
2.01
0.61
-0.97
-2.58
-4.18
-5.81
-7.61
-9.68
-12.05
-14.56
-16.92
-18.72
-19.52
-18.95
-16.81
-13.13
-8.24
-2.69
2.82
7.65
11.34
13.67
14.72
14.67
13.80
12.34
10.47
8.41
6.44
4.95
4.29
4.62
5.80
7.36
8.70
9.28
8.85
7.52
5.63
3.60
1.67
-0.12
-1.93
-3.95
-6.31
-8.98
-11.80
-14.51
-16.85
-18.50
-19.16
-18.54
-16.48
-12.96
-8.25
-2.92
2.34
6.83
10.11
12.05
12.83
12.77
12.13
11.06
9.63
7.91
6.11
4.54
3.49
3.10
3.25
3.66
3.96
3.90
3.38
2.45
1.23
-0.12
-1.56
-3.04
-4.58
-6.18
-7.85
-9.57
-11.35
-13.18
-15.04
-16.78
-18.12
-18.66
-17.95
-15.69
-11.84
-6.77
-1.14
4.23
8.63
11.65
13.24
13.61
13.11
12.09
10.79
9.40
8.04
6.90
6.12
5.82
6.01
6.57
7.28
7.88
8.16
7.96
7.25
6.08
4.57
2.90
1.19
-0.50
-2.18
-3.90
-5.68
-7.52
-9.41
-11.41
-13.60
-15.98
-18.34
-20.19
-20.85
-19.67
-16.37
-11.17
-4.84
1.63
7.28
11.50
14.07
15.13
15.04
14.19
12.97
11.66
10.46
9.44
8.64
8.02
7.56
7.21
6.93
6.64
6.26
5.72
5.01
4.17
3.24
2.22
1.04
-0.44
-2.27
-4.38
-6.57
-8.58
-10.21
-11.47
-12.56
-13.78
-15.33
-17.18
-19.02
-20.25
-20.24
-18.53
-15.02
-10.08
-4.41
1.14
5.85
9.28
11.35
12.21
12.12
11.39
10.28
9.02
7.80
6.80
6.13
5.79
5.70
5.73
5.74
5.60
5.22
4.56
3.60
2.38
0.95
-0.63
-2.26
-3.86
-5.30
-6.47
-7.30
-7.82
-8.23
-8.76
-9.68
-11.03
-12.61
-14.00
-14.61
-13.91
-11.64
-7.81
-2.82
2.67
7.91
12.21
15.16
16.65
16.84
16.07
14.68
12.98
11.23
9.65
8.42
7.66
7.38
7.45
7.65
7.70
7.41
6.70
5.58
4.16
2.55
0.85
-0.85
-2.54
-4.19
-5.84
-7.54
-9.35
-11.35
-13.56
-15.96
-18.41
-20.58
-22.00
-22.14
-20.54
-17.03
-11.85
-5.64
0.73
6.42
10.80
13.65
15.00
15.10
14.22
12.64
10.62
8.50
6.62
5.28
4.66
4.75
5.38
6.26
7.10
7.64
7.73
7.36
6.57
5.48
4.22
2.84
1.33
-0.35
-2.26
-4.38
-6.63
-8.93
-11.28
-13.71
-16.22
-18.62
-20.45
-21.08
-19.90
-16.66
-11.65
-5.66
0.25
5.14
8.53
10.38
11.01
10.85
10.22
9.29
8.17
6.96
5.83
4.92
4.31
3.97
3.79
3.66
3.47
3.16
2.68
2.04
1.22
0.27
-0.79
-1.94
-3.24
-4.74
-6.46
-8.31
-10.11
-11.68
-12.94
-13.99
-15.02
-16.19
-17.34
-18.02
-17.58
-15.43
-11.40
-5.86
0.37
6.32
11.21
14.66
16.71
17.68
17.88
17.53
16.66
15.29
13.53
11.65
9.96
8.76
8.14
7.96
7.96
7.84
7.39
6.57
5.47
4.18
2.80
1.35
-0.19
-1.81
-3.43
-4.92
-6.15
-7.10
-7.89
-8.72
-9.84
-11.37
-13.22
-15.08
-16.46
-16.80
-15.68
-12.90
-8.62
-3.34
2.22
7.28
11.25
13.77
14.84
14.67
13.58
11.90
9.93
7.91
6.08
4.62
3.67
3.29
3.45
4.02
4.83
5.64
6.22
6.40
6.09
5.28
4.04
2.46
0.65
-1.26
-3.13
-4.78
-6.10
-7.04
-7.77
-8.57
-9.77
-11.55
-13.78
-16.04
-17.65
-17.91
-16.39
-13.06
-8.34
-2.95
2.29
6.72
9.94
11.86
12.62
12.48
11.69
10.49
9.09
7.67
6.39
5.42
4.86
4.76
5.03
5.51
5.97
6.19
6.03
5.46
4.52
3.27
1.82
0.23
-1.43
-3.06
-4.52
-5.75
-6.72
-7.56
-8.49
-9.71
-11.33
-13.24
-15.10
-16.38
-16.53
-15.15
-12.08
-7.55
-2.07
3.67
8.91
13.03
15.62
16.59
16.06
14.41
12.12
9.65
7.41
5.68
4.62
4.26
4.50
5.16
5.97
6.63
6.91
6.66
5.90
4.71
3.25
1.64
-0.01
-1.70
-3.43
-5.25
-7.14
-9.07
-11.01
-12.98
-15.00
-16.99
-18.76
-19.91
-19.90
-18.27
-14.87
-9.98
-4.27
1.35
6.14
9.63
11.73
12.58
12.37
11.26
9.37
6.93
4.30
1.97
0.39
-0.17
0.24
1.28
2.47
3.32
3.52
2.96
1.76
0.15
-1.55
-3.08
-4.29
-5.21
-6.02
-6.95
-8.21
-9.86
-11.78
-13.70
-15.20
-15.86
-15.26
-13.16
-9.56
-4.75
0.63
5.79
9.96
12.64
13.73
13.45
12.23
10.49
8.54
6.60
4.80
3.36
2.45
2.17
2.42
2.94
3.33
3.30
2.75
1.82
0.81
-0.03
-0.63
-1.15
-1.90
-3.20
-5.23
-7.96
-11.14
-14.38
-17.19
-19.09
-19.66
-18.59
-15.79
-11.45
-6.05
-0.28
5.13
9.60
12.76
14.56
15.10
14.62
13.36
11.56
9.49
7.48
5.85
4.85
4.54
4.81
5.33
5.68
5.52
4.63
3.03
0.91
-1.46
-3.78
-5.85
-7.61
-9.14
-10.58
-12.14
-13.91
-15.89
-17.91
-19.66
-20.73
-20.67
-19.14
-16.03
-11.54
-6.18
-0.67
4.33
8.34
11.16
12.81
13.45
13.25
12.34
10.91
9.19
7.54
6.28
5.65
5.70
6.27
7.07
7.75
8.03
7.77
6.94
5.64
4.05
2.34
0.64
-0.98
-2.57
-4.20
-5.98
-7.95
-10.10
-12.34
-14.44
-16.08
-16.78
-16.12
-13.80
-9.89
-4.80
0.70
5.79
9.82
12.46
13.78
14.06
13.70
12.99
12.09
11.11
10.11
9.15
8.30
7.63
7.11
6.71
6.32
5.83
5.10
4.06
2.66
0.95
-0.96
-2.93
-4.84
-6.58
-8.11
-9.43
-10.52
-11.38
-12.03
-12.52
-12.92
-13.29
-13.55
-13.46
-12.62
-10.67
-7.43
-3.06
1.92
6.84
11.05
14.12
15.92
16.55
16.23
15.16
13.54
11.58
9.56
7.79
6.59
6.12
6.32
6.93
7.58
7.94
7.84
7.28
6.33
5.06
3.50
1.67
-0.38
-2.45
-4.33
-5.80
-6.82
-7.56
-8.25
-9.18
-10.50
-12.25
-14.26
-16.21
-17.70
-18.24
-17.42
-15.00
-11.07
-6.07
-0.73
4.10
7.74
9.83
10.43
9.94
8.87
7.63
6.42
5.27
4.13
3.05
2.16
1.69
1.76
2.27
2.95
3.42
3.38
2.73
1.53
-0.01
-1.65
-3.21
-4.49
-5.35
-5.73
-5.69
-5.40
-5.13
-5.17
-5.76
-6.98
-8.72
-10.69
-12.45
-13.49
-13.30
-11.57
-8.25
-3.64
1.67
6.94
11.50
14.88
16.92
17.71
17.50
16.61
15.27
13.69
12.02
10.43
9.11
8.19
7.73
7.64
7.73
7.76
7.52
6.90
5.89
4.56
3.06
1.49
-0.06
-1.58
-3.15
-4.81
-6.63
-8.55
-10.51
-12.46
-14.39
-16.32
-18.24
-19.93
-20.94
-20.75
-18.92
-15.37
-10.45
-4.85
0.62
5.30
8.81
11.08
12.25
12.58
12.28
11.54
10.45
9.13
7.70
6.35
5.29
4.71
4.67
5.06
5.62
6.01
5.99
5.42
4.34
2.92
1.29
-0.43
-2.20
-3.98
-5.68
-7.19
-8.44
-9.47
-10.44
-11.60
-13.11
-14.96
-16.84
-18.21
-18.46
-17.15
-14.18
-9.85
-4.75
0.40
4.97
8.54
10.95
12.25
12.59
12.13
11.05
9.55
7.89
6.37
5.30
4.89
5.19
6.01
7.01
7.81
8.14
7.85
6.95
5.57
3.90
2.16
0.51
-0.93
-2.16
-3.28
-4.42
-5.66
-7.02
-8.45
-9.93
-11.52
-13.28
-15.12
-16.71
-17.48
-16.84
-14.43
-10.35
-5.13
0.40
5.43
9.40
12.06
13.45
13.74
13.15
11.87
10.09
8.05
6.03
4.34
3.22
2.83
3.14
3.97
5.02
5.94
6.46
6.40
5.67
4.30
2.41
0.19
-2.11
-4.24
-6.01
-7.36
-8.36
-9.19
-10.10
-11.27
-12.78
-14.46
-15.95
-16.74
-16.31
-14.34
-10.82
-6.10
-0.78
4.48
9.09
12.75
15.37
17.08
18.08
18.57
18.68
18.49
18.08
17.47
16.73
15.90
15.01
14.02
12.86
11.43
9.67
7.62
5.42
3.28
1.33
-0.42
-2.09
-3.87
-5.90
-8.20
-10.67
-13.15
-15.46
-17.39
-18.73
-19.17
-18.46
-16.49
-13.35
-9.43
-5.26
-1.36
1.90
4.33
5.87
6.54
6.34
5.32
3.63
1.57
-0.39
-1.80
-2.33
-1.92
-0.80
0.60
1.78
2.38
2.25
1.46
0.21
-1.28
-2.81
-4.26
-5.58
-6.74
-7.80
-8.86
-10.07
-11.55
-13.35
-15.34
-17.21
-18.53
-18.79
-17.61
-14.80
-10.52
-5.21
0.46
5.77
10.13
13.23
15.01
15.61
15.27
14.16
12.48
10.42
8.28
6.39
5.08
4.52
4.69
5.31
6.02
6.43
6.32
5.65
4.52
3.14
1.70
0.37
-0.80
-1.83
-2.79
-3.83
-5.09
-6.67
-8.59
-10.72
-12.77
-14.31
-14.89
-14.12
-11.89
-8.35
-3.93
0.77
5.15
8.78
11.40
12.92
13.40
12.93
11.70
9.99
8.10
6.37
5.03
4.21
3.91
4.01
4.36
4.76
5.02
4.96
4.46
3.51
2.18
0.63
-0.99
-2.54
-3.92
-5.13
-6.18
-7.15
-8.18
-9.41
-10.93
-12.73
-14.57
-16.02
-16.56
-15.73
-13.30
-9.41
-4.54
0.56
5.08
8.35
10.01
10.09
8.92
6.99
4.83
2.84
1.26
0.21
-0.28
-0.19
0.45
1.56
2.94
4.33
5.40
5.93
5.85
5.25
4.34
3.26
2.07
0.76
-0.75
-2.48
-4.36
-6.26
-8.06
-9.64
-10.89
-11.63
-11.61
-10.59
-8.46
-5.31
-1.48
2.51
6.12
8.88
10.52
11.00
10.48
9.24
7.61
5.87
4.21
2.74
1.56
0.76
0.42
0.56
1.12
1.91
2.67
3.14
3.14
2.60
1.62
0.35
-1.00
-2.33
-3.61
-4.91
-6.34
-7.97
-9.82
-11.83
-13.86
-15.68
-17.00
-17.45
-16.67
-14.43
-10.79
-6.10
-1.01
3.81
7.82
10.72
12.50
13.24
13.12
12.27
10.84
9.00
7.04
5.28
4.04
3.53
3.76
4.54
5.52
6.30
6.59
6.21
5.23
3.86
2.36
0.92
-0.37
-1.53
-2.64
-3.74
-4.87
-6.04
-7.23
-8.43
-9.61
-10.61
-11.14
-10.80
-9.26
-6.37
-2.31
2.41
7.07
10.96
13.60
14.81
14.74
13.71
12.08
10.13
8.07
6.03
4.13
2.52
1.34
0.70
0.59
0.86
1.24
1.46
1.30
0.69
-0.25
-1.35
-2.43
-3.46
-4.49
-5.68
-7.11
-8.76
-10.51
-12.18
-13.60
-14.69
-15.32
-15.35
-14.55
-12.74
-9.86
-6.09
-1.86
2.27
5.76
8.27
9.69
10.11
9.70
8.66
7.10
5.19
3.16
1.34
0.14
-0.14
0.61
2.17
4.07
5.74
6.71
6.82
6.17
5.05
3.77
2.46
1.12
-0.36
-2.06
-3.98
-6.02
-8.03
-9.83
-11.18
-11.83
-11.47
-9.91
-7.09
-3.28
1.04
5.20
8.57
10.70
11.40
10.76
9.09
6.80
4.31
2.02
0.26
-0.76
-0.96
-0.47
0.44
1.40
2.01
2.05
1.48
0.47
-0.67
-1.68
-2.42
-3.00
-3.66
-4.69
-6.30
-8.49
-11.10
-13.79
-16.14
-17.73
-18.17
-17.20
-14.76
-11.07
-6.60
-1.92
2.37
5.88
8.42
9.97
10.61
10.42
9.52
8.05
6.30
4.62
3.40
2.85
2.99
3.57
4.27
4.78
4.97
4.81
4.39
3.82
3.14
2.34
1.40
0.30
-0.97
-2.41
-4.03
-5.78
-7.55
-9.13
-10.19
-10.40
-9.52
-7.46
-4.40
-0.68
3.22
6.82
9.75
11.83
12.96
13.17
12.52
11.09
9.03
6.60
4.18
2.19
0.97
0.63
1.05
1.92
2.84
3.50
3.69
3.36
2.56
1.40
0.03
-1.43
-2.89
-4.29
-5.71
-7.21
-8.88
-10.65
-12.31
-13.48
-13.72
-12.74
-10.45
-7.09
-3.11
0.95
4.56
7.40
9.30
10.23
10.21
9.31
7.64
5.43
3.01
0.82
-0.74
-1.43
-1.24
-0.40
0.72
1.74
2.40
2.65
2.57
2.31
1.96
1.47
0.74
-0.37
-1.86
-3.65
-5.48
-7.10
-8.24
-8.68
-8.33
-7.15
-5.18
-2.60
0.34
3.31
5.99
8.10
9.48
10.03
9.76
8.72
7.04
4.95
2.78
0.91
-0.28
-0.57
0.02
1.20
2.53
3.53
3.85
3.43
2.38
0.99
-0.50
-1.93
-3.29
-4.68
-6.18
-7.82
-9.56
-11.27
-12.71
-13.61
-13.63
-12.49
-10.08
-6.53
-2.20
2.34
6.49
9.77
11.93
12.94
12.93
12.10
10.62
8.72
6.61
4.65
3.15
2.38
2.41
3.09
4.15
5.31
6.40
7.42
8.47
9.63
10.94
12.28
13.40
13.96
13.51
11.61
7.96
2.63
-3.89
-10.64
-16.48
-20.45
-22.04
-21.31
-18.81
-15.30
-11.51
-7.97
-5.00
-2.74
-1.29
-0.64
-0.75
-1.48
-2.58
-3.70
-4.43
-4.48
-3.69
-2.22
-0.41
1.27
2.45
2.92
2.75
2.14
1.32
0.48
-0.34
-1.14
-1.96
-2.82
-3.71
-4.66
-5.74
-7.02
-8.47
-9.92
-11.02
-11.35
-10.52
-8.34
-4.91
-0.60
4.01
8.31
11.80
14.18
15.40
15.60
15.04
14.08
13.05
12.25
11.89
12.06
12.77
13.91
15.33
16.81
18.14
19.10
19.60
19.62
19.25
18.56
17.54
16.07
13.93
10.97
7.14
2.64
-2.25
-7.19
-11.91
-16.17
-19.71
-22.14
-23.03
-22.03
-19.18
-14.94
-10.18
-5.86
-2.74
-1.12
-0.85
-1.50
-2.56
-3.71
-4.81
-5.86
-6.83
-7.61
-8.00
-7.82
-7.09
-6.04
-5.10
-4.66
-4.97
-5.96
-7.33
-8.68
-9.69
-10.23
-10.36
-10.23
-10.00
-9.80
-9.77
-10.06
-10.84
-12.12
-13.68
-14.98
-15.37
-14.28
-11.48
-7.16
-1.91
3.55
8.54
12.54
15.28
16.66
16.74
15.74
13.98
11.88
9.81
8.11
6.93
6.32
6.21
6.49
7.02
7.63
8.11
8.26
7.96
7.16
5.98
4.56
3.12
1.77
0.54
-0.66
-1.93
-3.35
-4.94
-6.64
-8.35
-9.94
-11.26
-12.09
-12.19
-11.29
-9.27
-6.21
-2.41
1.61
5.30
8.26
10.26
11.26
11.35
10.65
9.33
7.61
5.79
4.29
3.44
3.44
4.25
5.54
6.84
7.68
7.77
7.03
5.65
3.98
2.35
0.97
-0.14
-1.12
-2.23
-3.64
-5.45
-7.61
-9.91
-12.12
-13.91
-14.97
-15.03
-13.92
-11.65
-8.46
-4.80
-1.21
1.80
3.89
4.94
5.06
4.42
3.28
1.85
0.34
-1.01
-1.95
-2.26
-1.84
-0.78
0.63
2.03
3.12
3.73
3.91
3.80
3.52
3.09
2.38
1.18
-0.65
-3.10
-6.00
-8.99
-11.67
-13.68
-14.70
-14.56
-13.19
-10.68
-7.29
-3.43
0.43
3.84
6.49
8.27
9.19
9.36
8.90
7.92
6.53
4.97
3.56
2.67
2.57
3.29
4.60
6.01
7.03
7.32
6.82
5.71
4.31
2.89
1.54
0.25
-1.09
-2.57
-4.23
-6.03
-7.90
-9.70
-11.14
-11.91
-11.63
-10.07
-7.25
-3.46
0.75
4.78
8.11
10.48
11.79
12.09
11.51
10.22
8.42
6.40
4.49
3.04
2.25
2.15
2.53
3.03
3.29
3.06
2.28
1.08
-0.31
-1.68
-2.87
-3.87
-4.73
-5.59
-6.58
-7.85
-9.44
-11.31
-13.23
-14.81
-15.60
-15.20
-13.40
-10.31
-6.28
-1.84
2.44
6.13
8.91
10.65
11.27
10.82
9.45
7.45
5.24
3.23
1.79
1.14
1.28
2.06
3.19
4.36
5.27
5.69
5.53
4.81
3.69
2.37
1.06
-0.16
-1.31
-2.52
-3.94
-5.65
-7.59
-9.58
-11.28
-12.31
-12.27
-10.93
-8.26
-4.52
-0.18
4.16
7.89
10.55
11.88
11.86
10.64
8.54
5.97
3.33
1.03
-0.58
-1.30
-1.16
-0.37
0.68
1.57
1.96
1.74
1.06
0.20
-0.57
-1.14
-1.60
-2.23
-3.30
-4.97
-7.21
-9.75
-12.15
-13.89
-14.49
-13.58
-11.08
-7.17
-2.38
2.61
7.09
10.56
12.80
13.81
13.83
13.06
11.72
9.98
8.00
5.98
4.10
2.56
1.47
0.88
0.68
0.68
0.66
0.39
-0.21
-1.13
-2.22
-3.32
-4.31
-5.23
-6.18
-7.27
-8.52
-9.81
-10.96
-11.71
-11.84
-11.17
-9.60
-7.13
-3.85
-0.06
3.86
7.41
10.18
11.89
12.46
12.02
10.83
9.23
7.53
6.00
4.81
4.06
3.76
3.83
4.19
4.66
5.07
5.22
4.93
4.16
2.92
1.36
-0.29
-1.86
-3.23
-4.36
-5.36
-6.42
-7.71
-9.34
-11.20
-12.99
-14.27
-14.58
-13.62
-11.38
-8.15
-4.38
-0.58
2.84
5.62
7.62
8.78
9.08
8.55
7.32
5.66
3.95
2.62
1.97
2.13
2.92
4.01
4.98
5.52
5.55
5.15
4.56
3.92
3.27
2.51
1.49
0.11
-1.60
-3.52
-5.47
-7.30
-8.86
-9.99
-10.49
-10.12
-8.73
-6.30
-3.04
0.68
4.42
7.76
10.35
12.02
12.69
12.42
11.34
9.68
7.68
5.61
3.73
2.26
1.36
1.07
1.25
1.65
1.90
1.72
0.97
-0.27
-1.77
-3.28
-4.66
-5.84
-6.92
-8.02
-9.24
-10.65
-12.17
-13.58
-14.53
-14.57
-13.40
-10.93
-7.43
-3.37
0.73
4.47
7.60
9.99
11.51
12.01
11.40
9.81
7.55
5.15
3.15
1.89
1.46
1.67
2.19
2.66
2.82
2.55
1.86
0.82
-0.40
-1.68
-2.86
-3.92
-4.86
-5.80
-6.90
-8.27
-9.90
-11.59
-12.91
-13.35
-12.49
-10.19
-6.68
-2.52
1.64
5.21
7.87
9.56
10.39
10.54
10.13
9.28
8.08
6.70
5.36
4.30
3.68
3.54
3.75
4.07
4.22
4.02
3.44
2.60
1.70
0.89
0.22
-0.42
-1.16
-2.12
-3.33
-4.73
-6.31
-8.03
-9.81
-11.46
-12.61
-12.84
-11.84
-9.54
-6.23
-2.39
1.45
4.88
7.63
9.57
10.61
10.71
9.92
8.42
6.52
4.60
3.00
1.90
1.34
1.23
1.41
1.68
1.91
1.98
1.82
1.40
0.70
-0.20
-1.20
-2.19
-3.11
-3.95
-4.77
-5.67
-6.72
-7.89
-9.03
-9.85
-10.03
-9.35
-7.79
-5.48
-2.72
0.18
2.93
5.35
7.32
8.73
9.47
9.43
8.57
6.95
4.83
2.58
0.68
-0.52
-0.84
-0.37
0.64
1.77
2.67
3.05
2.80
2.03
0.93
-0.22
-1.19
-1.85
-2.27
-2.62
-3.17
-4.10
-5.38
-6.77
-7.89
-8.31
-7.75
-6.15
-3.65
-0.54
2.82
6.07
8.90
11.04
12.28
12.54
11.83
10.33
8.37
6.31
4.55
3.36
2.86
2.96
3.43
3.93
4.18
3.98
3.32
2.29
1.05
-0.29
-1.65
-3.05
-4.59
-6.32
-8.28
-10.38
-12.44
-14.10
-15.01
-14.80
-13.33
-10.70
-7.28
-3.61
-0.23
2.49
4.43
5.66
6.34
6.63
6.53
6.01
5.00
3.58
1.99
0.60
-0.24
-0.33
0.31
1.40
2.55
3.35
3.58
3.19
2.32
1.18
-0.01
-1.10
-2.07
-3.01
-4.05
-5.31
-6.82
-8.45
-9.88
-10.74
-10.64
-9.38
-6.98
-3.71
0.02
3.78
7.18
9.93
11.86
12.85
12.84
11.88
10.15
7.97
5.73
3.78
2.37
1.59
1.32
1.35
1.44
1.40
1.17
0.80
0.38
-0.02
-0.39
-0.83
-1.47
-2.40
-3.65
-5.12
-6.70
-8.27
-9.72
-10.97
-11.86
-12.17
-11.67
-10.17
-7.73
-4.58
-1.14
2.13
4.94
7.17
8.86
10.08
10.77
10.78
9.98
8.38
6.24
4.05
2.32
1.43
1.46
2.18
3.22
4.20
4.86
5.12
4.98
4.54
3.88
3.08
2.23
1.42
0.74
0.21
-0.17
-0.45
-0.66
-0.76
-0.61
-0.01
1.27
3.39
6.32
9.75
13.14
15.79
17.08
16.64
14.51
11.09
6.92
2.53
-1.72
-5.63
-9.09
-11.95
-14.02
-15.12
-15.24
-14.58
-13.50
-12.36
-11.41
-10.68
-10.08
-9.52
-8.98
-8.59
-8.52
-8.93
-9.86
-11.21
-12.68
-13.89
-14.40
-13.88
-12.15
-9.25
-5.42
-1.11
3.18
6.97
9.91
11.81
12.67
12.60
11.77
10.43
8.80
7.18
5.86
5.09
4.95
5.33
5.91
6.28
6.14
5.44
4.33
3.12
2.06
1.23
0.50
-0.35
-1.54
-3.15
-5.14
-7.31
-9.40
-11.09
-12.08
-12.07
-10.90
-8.56
-5.28
-1.49
2.24
5.36
7.47
8.41
8.27
7.30
5.80
4.08
2.34
0.75
-0.53
-1.37
-1.74
-1.71
-1.47
-1.25
-1.19
-1.27
-1.40
-1.48
-1.48
-1.50
-1.70
-2.19
-3.01
-4.11
-5.38
-6.73
-8.04
-9.09
-9.55
-9.08
-7.41
-4.57
-0.87
3.10
6.74
9.56
11.35
12.08
11.86
10.84
9.12
6.89
4.44
2.20
0.63
0.03
0.46
1.69
3.26
4.72
5.68
5.94
5.47
4.35
2.77
0.93
-0.96
-2.71
-4.23
-5.54
-6.82
-8.26
-9.96
-11.87
-13.68
-14.94
-15.18
-14.15
-11.85
-8.66
-5.09
-1.71
1.05
2.95
3.97
4.18
3.73
2.81
1.64
0.47
-0.44
-0.92
-0.90
-0.44
0.31
1.18
2.01
2.70
3.20
3.48
3.52
3.33
2.87
2.10
0.93
-0.70
-2.81
-5.24
-7.62
-9.48
-10.27
-9.66
-7.60
-4.41
-0.60
3.20
6.42
8.67
9.82
9.90
9.12
7.79
6.20
4.63
3.31
2.41
2.05
2.26
2.95
3.94
4.99
5.88
6.48
6.73
6.61
6.04
4.90
3.08
0.59
-2.35
-5.42
-8.29
-10.72
-12.63
-13.93
-14.48
-14.08
-12.53
-9.77
-6.03
-1.76
2.46
6.12
8.84
10.51
11.11
10.77
9.67
8.05
6.20
4.48
3.23
2.71
3.01
4.02
5.39
6.70
7.51
7.59
6.95
5.84
4.62
3.61
2.97
2.66
2.45
2.00
1.02
-0.65
-2.95
-5.57
-8.01
-9.68
-10.10
-9.02
-6.53
-3.06
0.76
4.27
6.97
8.58
9.07
8.54
7.16
5.20
2.93
0.70
-1.14
-2.27
-2.54
-2.04
-1.06
-0.04
0.64
0.79
0.48
-0.01
-0.38
-0.45
-0.24
0.02
0.02
-0.52
-1.72
-3.52
-5.72
-7.96
-9.78
-10.73
-10.46
-8.81
-5.99
-2.43
1.28
4.62
7.24
9.02
9.97
10.16
9.64
8.47
6.81
4.93
3.14
1.75
0.95
0.72
0.91
1.28
1.60
1.71
1.51
0.98
0.18
-0.81
-1.89
-3.02
-4.25
-5.69
-7.45
-9.56
-11.80
-13.77
-14.96
-14.94
-13.52
-10.83
-7.26
-3.34
0.45
3.72
6.22
7.82
8.44
8.04
6.68
4.58
2.13
-0.19
-1.95
-2.88
-3.00
-2.55
-1.90
-1.37
-1.15
-1.21
-1.41
-1.62
-1.77
-1.95
-2.33
-3.09
-4.40
-6.27
-8.57
-11.02
-13.22
-14.68
-15.00
-13.91
-11.38
-7.67
-3.28
1.19
5.17
8.27
10.31
11.30
11.36
10.63
9.32
7.68
6.03
4.69
3.94
3.85
4.31
5.01
5.61
5.82
5.57
4.92
4.05
3.12
2.19
1.22
0.07
-1.44
-3.41
-5.82
-8.40
-10.70
-12.13
-12.20
-10.65
-7.58
-3.49
0.90
4.81
7.66
9.17
9.40
8.62
7.19
5.46
3.75
2.31
1.33
0.97
1.19
1.85
2.67
3.41
3.94
4.28
4.60
5.03
5.59
6.14
6.42
6.16
5.14
3.27
0.61
-2.65
-6.17
-9.53
-12.18
-13.66
-13.65
-12.11
-9.35
-5.89
-2.40
0.53
2.49
3.35
3.21
2.35
1.12
-0.14
-1.16
-1.75
-1.76
-1.15
0.00
1.50
3.09
4.48
5.51
6.13
6.41
6.51
6.54
6.56
6.50
6.24
5.64
4.61
3.11
1.19
-1.04
-3.40
-5.59
-7.25
-8.03
-7.73
-6.38
-4.28
-1.92
0.22
1.82
2.73
2.99
2.67
1.88
0.71
-0.65
-1.85
-2.47
-2.16
-0.79
1.40
3.93
6.19
7.66
8.10
7.55
6.28
4.67
3.09
1.74
0.66
-0.26
-1.25
-2.55
-4.33
-6.59
-9.16
-11.64
-13.50
-14.28
-13.63
-11.50
-8.15
-4.01
0.36
4.46
7.89
10.37
11.71
11.89
11.05
9.57
7.95
6.69
6.10
6.24
6.85
7.53
7.91
7.75
7.03
5.90
4.59
3.31
2.15
1.07
-0.09
-1.61
-3.70
-6.39
-9.41
-12.26
-14.33
-15.13
-14.45
-12.43
-9.51
-6.28
-3.27
-0.85
0.81
1.72
1.98
1.75
1.17
0.41
-0.36
-0.97
-1.23
-1.08
-0.57
0.12
0.72
1.00
0.86
0.33
-0.46
-1.33
-2.11
-2.68
-3.03
-3.20
-3.33
-3.56
-3.99
-4.62
-5.28
-5.72
-5.70
-5.05
-3.78
-2.00
0.16
2.53
4.98
7.30
9.25
10.54
10.93
10.32
8.77
6.55
4.05
1.70
-0.12
-1.15
-1.33
-0.81
0.08
0.98
1.60
1.85
1.76
1.41
0.88
0.15
-0.82
-2.06
-3.52
-5.08
-6.57
-7.83
-8.66
-8.88
-8.30
-6.82
-4.50
-1.60
1.48
4.33
6.63
8.20
8.98
9.01
8.34
7.10
5.48
3.75
2.21
1.12
0.63
0.70
1.19
1.85
2.47
2.92
3.15
3.21
3.15
2.98
2.60
1.91
0.76
-0.86
-2.88
-5.11
-7.30
-9.22
-10.59
-11.20
-10.87
-9.52
-7.27
-4.39
-1.31
1.51
3.68
4.98
5.37
4.97
3.98
2.64
1.21
-0.07
-0.94
-1.23
-0.87
0.04
1.24
2.42
3.30
3.77
3.88
3.78
3.59
3.33
2.95
2.34
1.42
0.20
-1.30
-3.01
-4.84
-6.64
-8.15
-9.02
-8.95
-7.74
-5.47
-2.44
0.88
4.04
6.62
8.38
9.20
9.06
8.05
6.37
4.30
2.21
0.47
-0.69
-1.18
-1.11
-0.74
-0.33
-0.09
-0.12
-0.40
-0.89
-1.55
-2.37
-3.40
-4.65
-6.09
-7.65
-9.22
-10.65
-11.73
-12.21
-11.81
-10.35
-7.79
-4.39
-0.63
2.94
5.85
7.90
9.11
9.61
9.50
8.81
7.54
5.75
3.71
1.82
0.49
-0.02
0.28
1.16
2.25
3.18
3.69
3.62
2.98
1.90
0.61
-0.61
-1.58
-2.24
-2.69
-3.17
-3.88
-4.85
-5.89
-6.64
-6.70
-5.82
-3.96
-1.31
1.76
4.83
7.50
9.51
10.65
10.85
10.11
8.58
6.50
4.19
1.96
0.05
-1.41
-2.41
-3.06
-3.46
-3.74
-3.95
-4.13
-4.28
-4.41
-4.55
-4.70
-4.88
-5.10
-5.38
-5.76
-6.30
-7.02
-7.88
-8.67
-9.08
-8.73
-7.37
-4.93
-1.66
1.97
5.37
7.98
9.45
9.65
8.74
7.07
5.08
3.24
1.90
1.24
1.23
1.68
2.25
2.61
2.55
2.02
1.17
0.22
-0.58
-1.13
-1.44
-1.65
-1.97
-2.60
-3.71
-5.40
-7.62
-10.08
-12.32
-13.75
-13.85
-12.38
-9.51
-5.72
-1.69
1.96
4.80
6.66
7.52
7.50
6.80
5.65
4.37
3.26
2.58
2.45
2.81
3.47
4.18
4.70
4.89
4.69
4.12
3.27
2.27
1.23
0.21
-0.79
-1.84
-2.96
-4.16
-5.30
-6.17
-6.52
-6.15
-4.95
-2.99
-0.48
2.28
4.95
7.24
8.97
10.04
10.43
10.15
9.27
7.84
6.04
4.14
2.48
1.43
1.23
1.86
3.04
4.28
5.10
5.20
4.58
3.45
2.15
0.91
-0.21
-1.36
-2.72
-4.36
-6.18
-7.95
-9.40
-10.31
-10.55
-10.06
-8.76
-6.63
-3.76
-0.42
2.93
5.74
7.60
8.34
8.11
7.27
6.16
5.02
3.93
2.92
2.05
1.45
1.29
1.64
2.37
3.19
3.76
3.80
3.28
2.31
1.16
0.01
-1.03
-2.03
-3.14
-4.53
-6.23
-8.15
-9.99
-11.37
-11.93
-11.44
-9.86
-7.37
-4.27
-0.95
2.24
4.96
6.98
8.14
8.42
7.92
6.85
5.51
4.18
3.11
2.45
2.20
2.27
2.49
2.71
2.82
2.79
2.63
2.36
1.96
1.37
0.51
-0.63
-2.01
-3.53
-5.08
-6.54
-7.80
-8.76
-9.26
-9.15
-8.29
-6.64
-4.30
-1.50
1.39
4.01
6.03
7.26
7.67
7.39
6.62
5.58
4.41
3.20
2.01
0.97
0.23
-0.01
0.31
1.09
2.03
2.79
3.08
2.79
1.98
0.80
-0.61
-2.16
-3.76
-5.33
-6.78
-8.02
-8.98
-9.67
-10.06
-10.06
-9.49
-8.10
-5.75
-2.50
1.38
5.37
8.99
11.78
13.50
14.08
13.56
12.08
9.84
7.19
4.56
2.43
1.17
0.87
1.35
2.17
2.89
3.19
3.01
2.44
1.69
0.91
0.17
-0.55
-1.34
-2.26
-3.40
-4.79
-6.42
-8.18
-9.82
-11.00
-11.36
-10.65
-8.84
-6.12
-2.86
0.48
3.49
5.83
7.26
7.70
7.22
6.05
4.54
3.08
1.99
1.40
1.30
1.53
1.94
2.43
2.91
3.31
3.54
3.53
3.24
2.74
2.06
1.25
0.28
-0.92
-2.42
-4.18
-6.07
-7.85
-9.20
-9.81
-9.45
-8.04
-5.74
-2.90
-0.02
2.41
4.05
4.82
4.88
4.46
3.80
3.01
2.10
1.12
0.17
-0.56
-0.86
-0.59
0.19
1.26
2.28
2.98
3.24
3.09
2.73
2.36
2.11
1.96
1.75
1.24
0.25
-1.24
-3.07
-4.84
-6.13
-6.53
-5.82
-4.05
-1.47
1.49
4.34
6.66
8.14
8.62
8.16
6.98
5.42
3.82
2.46
1.46
0.78
0.32
-0.06
-0.49
-1.00
-1.59
-2.25
-2.90
-3.44
-3.76
-3.82
-3.66
-3.47
-3.48
-3.93
-4.92
-6.39
-8.06
-9.52
-10.33
-10.13
-8.72
-6.16
-2.77
0.96
4.49
7.33
9.18
9.93
9.66
8.60
6.99
5.05
3.01
1.04
-0.68
-2.01
-2.85
-3.23
-3.27
-3.19
-3.24
-3.51
-3.98
-4.49
-4.88
-5.08
-5.14
-5.24
-5.54
-6.13
-6.96
-7.85
-8.56
-8.80
-8.29
-6.84
-4.39
-1.09
2.70
6.50
9.80
12.22
13.55
13.81
13.15
11.81
10.05
8.14
6.30
4.71
3.49
2.70
2.34
2.34
2.60
2.96
3.26
3.28
2.86
1.87
0.27
-1.89
-4.44
-7.14
-9.67
-11.73
-13.07
-13.53
-13.03
-11.62
-9.45
-6.73
-3.75
-0.78
1.90
4.12
5.78
6.82
7.25
7.03
6.18
4.79
3.14
1.56
0.38
-0.19
-0.19
0.15
0.53
0.69
0.51
0.03
-0.60
-1.26
-1.88
-2.45
-3.04
-3.74
-4.62
-5.68
-6.89
-8.11
-9.08
-9.48
-9.01
-7.45
-4.84
-1.43
2.32
5.91
8.91
11.05
12.20
12.35
11.59
10.10
8.17
6.17
4.48
3.35
2.82
2.72
2.81
2.88
2.86
2.74
2.54
2.20
1.60
0.63
-0.73
-2.38
-4.12
-5.70
-6.93
-7.66
-7.87
-7.58
-6.85
-5.78
-4.40
-2.73
-0.76
1.54
4.13
6.89
9.61
11.95
13.54
14.02
13.22
11.21
8.33
5.15
2.31
0.37
-0.36
0.19
1.81
4.09
6.52
8.57
9.84
10.08
9.27
7.62
5.42
2.98
0.45
-2.11
-4.74
-7.43
-9.99
-12.02
-13.04
-12.69
-10.86
-7.84
-4.24
-0.78
1.89
3.39
3.68
2.96
1.55
-0.20
-1.99
-3.59
-4.80
-5.42
-5.35
-4.63
-3.45
-2.15
-1.14
-0.71
-0.96
-1.71
-2.67
-3.49
-3.94
-4.04
-3.98
-4.08
-4.60
-5.62
-6.97
-8.28
-9.04
-8.82
-7.40
-4.87
-1.63
1.75
4.69
6.79
7.95
8.32
8.18
7.80
7.31
6.76
6.13
5.48
4.95
4.68
4.75
5.09
5.48
5.68
5.54
5.08
4.43
3.81
3.34
3.00
2.63
2.01
1.02
-0.39
-2.10
-3.91
-5.52
-6.66
-7.05
-6.50
-4.97
-2.63
0.22
3.17
5.79
7.85
9.25
10.04
10.27
10.00
9.20
7.89
6.21
4.44
2.96
2.08
1.96
2.54
3.57
4.71
5.66
6.17
6.17
5.67
4.76
3.60
2.27
0.80
-0.88
-2.84
-5.07
-7.40
-9.47
-10.86
-11.19
-10.33
-8.40
-5.76
-2.91
-0.31
1.67
2.87
3.28
3.03
2.30
1.26
0.07
-1.08
-1.99
-2.47
-2.38
-1.81
-1.00
-0.33
-0.11
-0.44
-1.23
-2.19
-3.09
-3.85
-4.56
-5.45
-6.70
-8.39
-10.47
-12.73
-14.85
-16.43
-17.03
-16.32
-14.17
-10.77
-6.60
-2.28
1.54
4.43
6.20
6.89
6.71
5.96
4.93
3.92
3.17
2.84
2.96
3.41
3.97
4.32
4.22
3.57
2.44
1.07
-0.26
-1.31
-1.96
-2.27
-2.43
-2.71
-3.32
-4.35
-5.67
-6.94
-7.71
-7.56
-6.24
-3.82
-0.60
2.88
6.10
8.62
10.18
10.66
10.10
8.70
6.76
4.66
2.78
1.38
0.56
0.24
0.25
0.41
0.62
0.85
1.12
1.46
1.84
2.19
2.37
2.23
1.60
0.37
-1.46
-3.72
-6.08
-8.12
-9.38
-9.57
-8.58
-6.53
-3.76
-0.71
2.16
4.43
5.83
6.26
5.78
4.65
3.19
1.77
0.64
-0.08
-0.41
-0.46
-0.34
-0.12
0.20
0.60
1.05
1.45
1.70
1.69
1.35
0.63
-0.54
-2.25
-4.50
-7.15
-9.84
-12.07
-13.26
-12.99
-11.14
-7.97
-4.03
-0.04
3.36
5.74
7.01
7.31
6.95
6.18
5.21
4.17
3.16
2.33
1.87
1.90
2.39
3.13
3.76
3.94
3.48
2.42
1.01
-0.45
-1.72
-2.72
-3.49
-4.14
-4.79
-5.51
-6.33
-7.24
-8.16
-8.85
-9.00
-8.31
-6.58
-3.90
-0.63
2.71
5.64
7.83
9.19
9.79
9.78
9.30
8.46
7.46
6.50
5.82
5.53
5.59
5.81
5.90
5.66
5.02
4.04
2.89
1.71
0.58
-0.54
-1.75
-3.16
-4.85
-6.79
-8.85
-10.76
-12.16
-12.70
-12.12
-10.36
-7.64
-4.37
-1.08
1.72
3.69
4.70
4.80
4.17
3.09
1.81
0.58
-0.39
-0.98
-1.11
-0.81
-0.19
0.52
1.06
1.21
0.85
0.03
-1.04
-2.14
-3.04
-3.63
-3.95
-4.12
-4.26
-4.48
-4.79
-5.02
-4.92
-4.23
-2.82
-0.74
1.73
4.20
6.27
7.70
8.38
8.32
7.61
6.35
4.74
2.98
1.35
0.11
-0.61
-0.85
-0.76
-0.58
-0.52
-0.65
-0.95
-1.33
-1.70
-2.01
-2.26
-2.55
-2.97
-3.62
-4.57
-5.84
-7.31
-8.73
-9.76
-9.97
-9.05
-6.95
-3.89
-0.40
2.87
5.37
6.79
7.11
6.54
5.43
4.06
2.70
1.50
0.63
0.19
0.25
0.75
1.50
2.26
2.79
2.97
2.79
2.39
1.91
1.42
0.86
0.10
-1.00
-2.48
-4.25
-6.07
-7.63
-8.68
-8.99
-8.45
-7.05
-4.89
-2.13
0.90
3.82
6.20
7.69
8.14
7.62
6.42
4.93
3.51
2.41
1.73
1.47
1.51
1.74
2.00
2.17
2.17
1.95
1.53
0.96
0.26
-0.60
-1.68
-3.09
-4.81
-6.73
-8.63
-10.15
-10.99
-10.90
-9.78
-7.70
-4.84
-1.53
1.86
4.93
7.30
8.73
9.11
8.52
7.24
5.63
4.05
2.79
1.95
1.50
1.30
1.24
1.25
1.33
1.48
1.66
1.77
1.67
1.22
0.41
-0.73
-2.09
-3.59
-5.17
-6.78
-8.27
-9.41
-9.89
-9.44
-7.93
-5.50
-2.48
0.69
3.60
6.00
7.80
9.00
9.64
9.71
9.26
8.38
7.31
6.38
5.88
5.96
6.52
7.29
7.97
8.38
8.51
8.48
8.43
8.39
8.27
7.91
7.17
6.02
4.52
2.84
1.14
-0.39
-1.55
-2.13
-1.95
-0.93
0.83
3.06
5.31
7.16
8.27
8.49
7.89
6.64
4.99
3.17
1.40
-0.11
-1.19
-1.76
-1.82
-1.53
-1.14
-0.89
-0.95
-1.34
-1.95
-2.62
-3.17
-3.52
-3.70
-3.81
-4.02
-4.48
-5.31
-6.47
-7.72
-8.70
-8.98
-8.26
-6.44
-3.73
-0.57
2.48
4.96
6.55
7.14
6.79
5.69
4.07
2.27
0.63
-0.52
-0.95
-0.62
0.30
1.51
2.65
3.47
3.88
3.92
3.72
3.42
3.06
2.62
1.98
0.97
-0.52
-2.50
-4.79
-7.07
-8.94
-10.05
-10.18
-9.32
-7.66
-5.51
-3.21
-1.07
0.64
1.75
2.17
1.87
0.96
-0.39
-1.93
-3.41
-4.62
-5.40
-5.71
-5.61
-5.24
-4.73
-4.23
-3.83
-3.58
-3.51
-3.65
-4.04
-4.71
-5.67
-6.90
-8.28
-9.61
-10.59
-10.91
-10.28
-8.58
-5.91
-2.63
0.75
3.69
5.80
6.92
7.13
6.71
5.98
5.17
4.38
3.59
2.79
1.98
1.30
0.91
0.96
1.50
2.44
3.60
4.74
5.64
6.11
6.00
5.21
3.68
1.49
-1.16
-3.94
-6.47
-8.36
-9.34
-9.29
-8.28
-6.52
-4.34
-2.02
0.17
2.07
3.59
4.67
5.28
5.36
4.87
3.81
2.26
0.42
-1.42
-2.88
-3.65
-3.52
-2.54
-0.99
0.60
1.65
1.69
0.54
-1.72
-4.74
-8.12
-11.44
-14.28
-16.20
-16.73
-15.49
-12.36
-7.70
-2.29
2.80
6.64
8.68
8.97
8.02
6.55
5.17
4.19
3.63
3.32
3.08
2.86
2.64
2.41
2.12
1.69
1.04
0.22
-0.65
-1.43
-1.98
-2.32
-2.54
-2.78
-3.16
-3.69
-4.25
-4.59
-4.40
-3.42
-1.50
1.25
4.51
7.76
10.45
12.18
12.74
12.20
10.83
8.95
6.84
4.66
2.51
0.42
-1.51
-3.17
-4.45
-5.28
-5.71
-5.83
-5.72
-5.40
-4.87
-4.13
-3.29
-2.61
-2.36
-2.72
-3.66
-4.91
-6.00
-6.50
-6.06
-4.57
-2.17
0.79
3.87
6.61
8.64
9.72
9.86
9.17
7.88
6.25
4.49
2.79
1.30
0.16
-0.57
-0.89
-0.88
-0.69
-0.41
-0.12
0.20
0.52
0.81
0.97
0.84
0.27
-0.80
-2.34
-4.17
-6.00
-7.50
-8.30
-8.11
-6.82
-4.53
-1.55
1.66
4.64
6.98
8.45
8.99
8.68
7.72
6.37
4.88
3.48
2.34
1.58
1.23
1.25
1.53
1.93
2.28
2.43
2.24
1.65
0.69
-0.51
-1.82
-3.09
-4.28
-5.38
-6.44
-7.44
-8.25
-8.63
-8.30
-7.10
-5.06
-2.44
0.38
2.96
5.03
6.43
7.17
7.27
6.75
5.59
3.83
1.69
-0.46
-2.09
-2.78
-2.38
-1.10
0.62
2.29
3.59
4.53
5.31
6.17
7.19
8.18
8.72
8.41
7.06
4.86
2.41
0.47
-0.28
0.50
2.70
5.83
9.23
12.29
14.61
15.98
16.41
16.04
15.11
13.92
12.74
11.75
10.91
9.98
8.64
6.66
3.98
0.82
-2.48
-5.52
-7.98
-9.62
-10.36
-10.30
-9.69
-8.90
-8.39
-8.50
-9.38
-10.98
-13.03
-15.18
-17.10
-18.50
-19.11
-18.75
-17.27
-14.68
-11.21
-7.28
-3.37
0.06
2.77
4.68
5.86
6.48
6.74
6.89
7.28
8.29
10.28
13.44
17.70
22.68
27.81
32.45
36.04
38.22
38.93
38.37
36.97
35.30
33.84
32.92
32.58
32.64
32.71
32.39
31.33
29.25
26.03
21.57
15.85
8.92
0.90
-7.97
-17.36
-26.86
-36.01
-44.34
-51.34
-56.53
-59.54
-60.25
-58.85
-55.81
-51.77
-47.32
-42.94
-38.88
-35.27
-32.16
-29.57
-27.50
-25.89
-24.63
-23.60
-22.69
-21.75
-20.63
-19.05
-16.71
-13.38
-9.03
-3.93
1.41
6.41
10.55
13.44
14.91
14.98
13.85
11.88
9.57
7.45
5.94
5.31
5.55
6.48
7.78
9.10
10.08
10.45
10.04
8.87
7.11
5.06
3.01
1.12
-0.58
-2.15
-3.61
-4.85
-5.61
-5.59
-4.60
-2.68
-0.05
2.89
5.73
8.08
9.63
10.14
9.55
7.96
5.67
3.13
0.78
-1.04
-2.20
-2.74
-2.82
-2.61
-2.29
-1.97
-1.75
-1.70
-1.84
-2.09
-2.37
-2.64
-2.95
-3.46
-4.24
-5.23
-6.17
-6.60
-6.09
-4.38
-1.50
2.20
6.17
9.82
12.64
14.30
14.66
13.81
12.02
9.68
7.28
5.24
3.85
3.21
3.16
3.38
3.53
3.31
2.57
1.31
-0.34
-2.23
-4.23
-6.25
-8.25
-10.21
-12.04
-13.60
-14.68
-15.00
-14.31
-12.46
-9.50
-5.67
-1.42
2.71
6.18
8.63
9.86
9.93
9.06
7.56
5.77
3.99
2.44
1.27
0.55
0.32
0.56
1.16
1.94
2.63
2.96
2.77
2.05
0.98
-0.20
-1.30
-2.29
-3.29
-4.42
-5.64
-6.68
-7.12
-6.59
-4.94
-2.42
0.48
3.15
5.11
6.12
6.19
5.49
4.26
2.72
1.05
-0.55
-1.92
-2.88
-3.29
-3.11
-2.40
-1.32
-0.08
1.07
1.93
2.35
2.31
1.82
0.93
-0.34
-1.92
-3.75
-5.60
-7.13
-7.95
-7.73
-6.35
-3.99
-1.08
1.89
4.43
6.24
7.23
7.46
7.05
6.18
4.95
3.49
1.93
0.41
-0.87
-1.76
-2.16
-2.09
-1.71
-1.23
-0.83
-0.60
-0.55
-0.67
-0.92
-1.37
-2.11
-3.23
-4.73
-6.46
-8.08
-9.11
-9.15
-7.94
-5.60
-2.56
0.58
3.23
5.01
5.84
5.84
5.26
4.30
3.09
1.71
0.30
-0.99
-1.96
-2.47
-2.50
-2.14
-1.53
-0.84
-0.21
0.26
0.53
0.62
0.53
0.22
-0.36
-1.27
-2.50
-3.94
-5.36
-6.49
-7.04
-6.83
-5.83
-4.15
-2.02
0.25
2.34
3.94
4.87
5.05
4.55
3.62
2.51
1.49
0.69
0.14
-0.19
-0.33
-0.30
-0.03
0.48
1.16
1.87
2.45
2.78
2.88
2.80
2.63
2.34
1.84
1.04
-0.05
-1.21
-2.04
-2.13
-1.19
0.77
3.45
6.33
8.85
10.58
11.26
10.86
9.56
7.62
5.34
3.02
0.88
-0.95
-2.36
-3.36
-4.02
-4.44
-4.74
-5.06
-5.45
-5.92
-6.37
-6.68
-6.81
-6.79
-6.76
-6.85
-7.10
-7.33
-7.22
-6.41
-4.71
-2.19
0.76
3.60
5.79
7.02
7.27
6.71
5.67
4.42
3.17
2.02
1.00
0.13
-0.57
-1.09
-1.47
-1.73
-1.92
-2.07
-2.20
-2.32
-2.48
-2.69
-3.01
-3.49
-4.19
-5.15
-6.38
-7.71
-8.90
-9.57
-9.41
-8.21
-6.01
-3.06
0.19
3.28
5.81
7.56
8.46
8.60
8.11
7.22
6.19
5.26
4.63
4.34
4.30
4.31
4.13
3.61
2.75
1.65
0.49
-0.63
-1.65
-2.62
-3.50
-4.23
-4.69
-4.78
-4.50
-3.87
-2.92
-1.61
0.14
2.38
4.98
7.57
9.64
10.78
10.78
9.79
8.16
6.31
4.54
2.96
1.61
0.48
-0.36
-0.86
-1.02
-0.96
-0.91
-1.06
-1.49
-2.15
-2.84
-3.40
-3.73
-3.88
-4.02
-4.33
-4.99
-6.06
-7.46
-8.93
-10.13
-10.68
-10.33
-9.05
-7.06
-4.70
-2.34
-0.24
1.48
2.81
3.78
4.38
4.58
4.38
3.90
3.33
2.95
3.00
3.62
4.74
6.09
7.25
7.85
7.66
6.73
5.34
3.83
2.45
1.30
0.27
-0.85
-2.24
-3.93
-5.74
-7.35
-8.36
-8.43
-7.39
-5.27
-2.38
0.83
3.83
6.21
7.75
8.46
8.49
8.12
7.55
6.92
6.26
5.54
4.74
3.89
3.07
2.39
1.89
1.53
1.25
0.98
0.71
0.48
0.30
0.13
-0.18
-0.80
-1.84
-3.30
-5.06
-6.93
-8.72
-10.28
-11.46
-12.10
-11.99
-10.97
-9.02
-6.26
-3.08
0.09
2.82
4.87
6.24
7.07
7.58
7.92
8.09
8.03
7.68
7.06
6.28
5.52
4.86
4.31
3.76
3.13
2.43
1.75
1.20
0.84
0.59
0.27
-0.28
-1.14
-2.27
-3.51
-4.73
-5.85
-6.84
-7.69
-8.29
-8.48
-8.04
-6.80
-4.77
-2.13
0.75
3.47
5.71
7.26
8.13
8.43
8.30
7.86
7.12
6.10
4.84
3.50
2.29
1.46
1.13
1.25
1.64
2.03
2.21
2.08
1.71
1.28
0.98
0.93
1.13
1.42
1.59
1.40
0.68
-0.66
-2.56
-4.83
-7.14
-9.08
-10.23
-10.30
-9.17
-7.01
-4.16
-1.09
1.77
4.13
5.84
6.85
7.23
7.04
6.40
5.46
4.40
3.40
2.65
2.28
2.35
2.81
3.53
4.29
4.80
4.81
4.19
3.00
1.42
-0.24
-1.74
-2.93
-3.85
-4.63
-5.43
-6.36
-7.44
-8.60
-9.75
-10.76
-11.45
-11.62
-11.08
-9.66
-7.36
-4.39
-1.14
1.94
4.45
6.21
7.25
7.76
7.96
7.99
7.85
7.53
7.00
6.35
5.77
5.44
5.47
5.79
6.22
6.55
6.62
6.36
5.78
4.99
4.08
3.17
2.39
1.84
1.57
1.51
1.46
1.14
0.25
-1.38
-3.67
-6.28
-8.66
-10.21
-10.48
-9.37
-7.14
-4.34
-1.59
0.64
2.16
3.02
3.41
3.56
3.62
3.67
3.75
3.89
4.09
4.30
4.44
4.44
4.26
3.93
3.49
3.00
2.49
2.02
1.66
1.46
1.42
1.46
1.39
1.01
0.17
-1.15
-2.90
-4.96
-7.20
-9.39
-11.19
-12.19
-11.98
-10.38
-7.59
-4.10
-0.64
2.20
4.10
5.09
5.43
5.47
5.48
5.57
5.76
6.00
6.21
6.33
6.28
5.96
5.31
4.36
3.22
2.12
1.28
0.85
0.78
0.84
0.69
0.01
-1.27
-3.02
-4.89
-6.54
-7.73
-8.39
-8.55
-8.21
-7.25
-5.50
-2.86
0.51
4.24
7.80
10.79
13.00
14.40
15.00
14.69
13.26
10.66
7.19
3.55
0.69
-0.69
-0.39
1.14
3.14
4.90
6.09
6.82
7.41
8.08
8.82
9.36
9.30
8.35
6.34
3.35
-0.28
-3.99
-7.10
-8.99
-9.32
-8.21
-6.20
-4.03
-2.41
-1.71
-1.99
-2.99
-4.43
-6.08
-7.86
-9.77
-11.79
-13.85
-15.82
-17.54
-18.83
-19.56
-19.63
-19.02
-17.80
-16.13
-14.26
-12.44
-10.91
-9.86
-9.30
-9.16
-9.26
-9.39
-9.41
-9.20
-8.69
-7.80
-6.40
-4.41
-1.81
1.22
4.35
7.16
9.24
10.35
10.46
9.67
8.17
6.17
3.98
1.89
0.24
-0.72
-0.89
-0.32
0.79
2.11
3.33
4.20
4.55
4.42
3.94
3.36
2.92
2.75
2.77
2.71
2.20
0.92
-1.25
-4.07
-6.99
-9.33
-10.46
-10.12
-8.41
-5.81
-2.91
-0.20
2.04
3.74
4.95
5.79
6.36
6.74
7.00
7.18
7.24
7.15
6.85
6.36
5.74
5.05
4.33
3.53
2.65
1.72
0.88
0.28
-0.05
-0.27
-0.75
-1.79
-3.53
-5.78
-8.06
-9.76
-10.38
-9.65
-7.64
-4.72
-1.38
1.89
4.73
6.93
8.44
9.30
9.56
9.32
8.71
7.93
7.18
6.65
6.41
6.39
6.43
6.32
5.93
5.25
4.38
3.43
2.54
1.81
1.34
1.16
1.25
1.42
1.43
1.02
0.15
-1.00
-2.02
-2.43
-1.93
-0.55
1.39
3.40
5.01
5.91
6.04
5.47
4.35
2.88
1.25
-0.37
-1.80
-2.91
-3.66
-4.09
-4.26
-4.22
-3.99
-3.64
-3.21
-2.83
-2.62
-2.69
-3.09
-3.80
-4.81
-6.05
-7.48
-8.97
-10.33
-11.27
-11.48
-10.68
-8.77
-5.89
-2.38
1.26
4.51
6.93
8.28
8.51
7.83
6.56
5.07
3.71
2.68
2.09
1.93
2.13
2.59
3.20
3.81
4.24
4.35
4.01
3.25
2.17
0.91
-0.39
-1.68
-2.98
-4.28
-5.49
-6.40
-6.73
-6.21
-4.77
-2.56
0.12
2.83
5.19
6.95
8.00
8.40
8.29
7.85
7.25
6.67
6.21
5.91
5.77
5.73
5.74
5.73
5.61
5.31
4.75
3.86
2.64
1.14
-0.54
-2.33
-4.20
-6.15
-8.11
-9.86
-11.06
-11.28
-10.29
-8.09
-5.04
-1.68
1.44
3.99
5.81
6.94
7.39
7.20
6.39
5.11
3.63
2.28
1.32
0.81
0.59
0.42
0.08
-0.49
-1.22
-1.98
-2.68
-3.27
-3.79
-4.29
-4.83
-5.48
-6.31
-7.31
-8.34
-9.14
-9.34
-8.61
-6.83
-4.20
-1.15
1.79
4.18
5.79
6.60
6.75
6.40
5.71
4.75
3.63
2.45
1.36
0.50
-0.03
-0.20
-0.09
0.17
0.43
0.55
0.50
0.27
-0.07
-0.53
-1.15
-2.05
-3.25
-4.63
-5.89
-6.60
-6.34
-4.92
-2.47
0.60
3.72
6.41
8.29
9.23
9.24
8.51
7.29
5.86
4.51
3.43
2.68
2.19
1.84
1.50
1.13
0.74
0.39
0.12
-0.06
-0.21
-0.40
-0.73
-1.31
-2.22
-3.47
-5.01
-6.65
-8.12
-9.06
-9.17
-8.27
-6.38
-3.75
-0.77
2.02
4.20
5.49
5.86
5.41
4.37
2.94
1.30
-0.37
-1.84
-2.89
-3.37
-3.24
-2.65
-1.89
-1.28
-1.03
-1.22
-1.77
-2.48
-3.19
-3.85
-4.52
-5.32
-6.30
-7.37
-8.27
-8.65
-8.17
-6.71
-4.40
-1.63
1.16
3.55
5.31
6.43
6.96
7.02
6.66
5.91
4.84
3.60
2.39
1.48
1.05
1.16
1.73
2.53
3.27
3.69
3.61
3.02
2.05
0.89
-0.30
-1.43
-2.51
-3.58
-4.61
-5.45
-5.83
-5.49
-4.29
-2.37
-0.08
2.10
3.72
4.56
4.59
4.00
3.02
1.87
0.69
-0.37
-1.12
-1.28
-0.60
1.04
3.51
6.40
9.14
11.18
12.11
11.82
10.41
8.13
5.22
1.89
-1.72
-5.45
-9.02
-12.05
-14.10
-14.82
-14.06
-12.01
-9.12
-6.00
-3.30
-1.45
-0.64
-0.77
-1.56
-2.64
-3.67
-4.44
-4.89
-5.12
-5.26
-5.45
-5.74
-6.06
-6.25
-6.08
-5.37
-4.04
-2.21
-0.12
1.88
3.46
4.36
4.52
4.00
3.03
1.93
1.02
0.63
0.97
2.08
3.83
5.92
8.03
9.96
11.74
13.56
15.59
17.80
19.89
21.36
21.76
20.93
19.02
16.44
13.62
10.80
8.02
5.19
2.21
-0.83
-3.77
-6.43
-8.74
-10.76
-12.66
-14.63
-16.76
-18.99
-21.10
-22.79
-23.68
-23.50
-22.14
-19.71
-16.53
-13.04
-9.70
-6.86
-4.71
-3.28
-2.46
-2.07
-1.94
-1.94
-1.97
-2.00
-2.00
-1.95
-1.86
-1.72
-1.55
-1.40
-1.32
-1.39
-1.63
-2.06
-2.66
-3.42
-4.32
-5.33
-6.36
-7.21
-7.63
-7.35
-6.22
-4.28
-1.81
0.80
3.20
5.17
6.65
7.71
8.45
8.88
8.97
8.68
8.02
7.08
6.07
5.17
4.57
4.33
4.38
4.56
4.70
4.60
4.19
3.46
2.53
1.55
0.59
-0.38
-1.45
-2.69
-4.03
-5.22
-5.91
-5.77
-4.69
-2.82
-0.54
1.69
3.51
4.72
5.28
5.25
4.72
3.75
2.42
0.85
-0.79
-2.24
-3.27
-3.72
-3.56
-2.91
-2.04
-1.25
-0.79
-0.78
-1.18
-1.88
-2.74
-3.69
-4.71
-5.79
-6.86
-7.76
-8.28
-8.22
-7.42
-5.87
-3.65
-0.93
2.00
4.80
7.11
8.61
9.11
8.60
7.28
5.52
3.73
2.28
1.43
1.24
1.59
2.22
2.82
3.19
3.23
2.96
2.47
1.81
0.98
-0.10
-1.46
-3.07
-4.77
-6.34
-7.54
-8.19
-8.13
-7.31
-5.72
-3.47
-0.83
1.84
4.10
5.58
6.09
5.66
4.50
2.96
1.36
-0.04
-1.06
-1.62
-1.72
-1.44
-0.96
-0.49
-0.19
-0.14
-0.27
-0.46
-0.63
-0.79
-1.11
-1.79
-2.95
-4.46
-6.01
-7.14
-7.43
-6.65
-4.83
-2.25
0.62
3.29
5.37
6.62
7.03
6.74
6.02
5.12
4.27
3.59
3.09
2.71
2.36
2.00
1.63
1.34
1.22
1.32
1.60
1.93
2.08
1.82
1.03
-0.32
-2.09
-4.01
-5.79
-7.13
-7.82
-7.75
-6.91
-5.39
-3.37
-1.06
1.28
3.42
5.14
6.32
6.89
6.84
6.23
5.15
3.75
2.20
0.70
-0.55
-1.41
-1.82
-1.78
-1.39
-0.80
-0.16
0.37
0.68
0.72
0.43
-0.24
-1.33
-2.82
-4.59
-6.35
-7.76
-8.42
-8.04
-6.52
-4.03
-0.97
2.16
4.89
6.94
8.20
8.76
8.73
8.19
7.19
5.79
4.15
2.57
1.35
0.68
0.57
0.81
1.14
1.37
1.47
1.52
1.59
1.64
1.54
1.07
0.07
-1.48
-3.45
-5.57
-7.49
-8.84
-9.30
-8.70
-7.01
-4.43
-1.31
1.92
4.80
7.01
8.34
8.76
8.34
7.31
5.93
4.47
3.16
2.15
1.44
0.96
0.61
0.34
0.14
0.07
0.13
0.24
0.24
-0.06
-0.79
-1.93
-3.35
-4.91
-6.52
-8.13
-9.75
-11.24
-12.33
-12.64
-11.81
-9.68
-6.40
-2.42
1.65
5.21
7.86
9.44
10.00
9.79
9.06
8.07
7.04
6.15
5.50
5.15
5.09
5.22
5.40
5.48
5.34
4.94
4.39
3.78
3.21
2.68
2.08
1.21
-0.10
-1.90
-4.07
-6.30
-8.15
-9.20
-9.14
-7.92
-5.71
-2.86
0.17
3.04
5.49
7.39
8.68
9.29
9.14
8.25
6.77
5.02
3.40
2.21
1.54
1.23
1.03
0.71
0.23
-0.32
-0.78
-1.06
-1.19
-1.31
-1.59
-2.14
-3.00
-4.13
-5.49
-6.96
-8.40
-9.64
-10.42
-10.54
-9.83
-8.29
-6.06
-3.43
-0.71
1.81
3.95
5.60
6.68
7.12
6.86
5.93
4.51
2.90
1.50
0.64
0.43
0.76
1.34
1.84
2.06
1.91
1.48
0.94
0.41
-0.05
-0.50
-1.05
-1.87
-3.06
-4.60
-6.37
-8.09
-9.44
-10.12
-9.90
-8.76
-6.81
-4.26
-1.39
1.53
4.26
6.58
8.32
9.38
9.72
9.39
8.53
7.35
6.13
5.11
4.43
4.14
4.07
3.99
3.66
2.95
1.95
0.93
0.18
-0.11
-0.00
0.22
0.19
-0.41
-1.67
-3.52
-5.67
-7.82
-9.60
-10.65
-10.69
-9.56
-7.37
-4.44
-1.32
1.49
3.65
5.11
6.02
6.59
6.96
7.11
6.97
6.47
5.69
4.79
4.01
3.48
3.20
3.08
2.97
2.78
2.48
2.09
1.65
1.18
0.69
0.13
-0.55
-1.40
-2.43
-3.64
-4.98
-6.38
-7.75
-8.96
-9.90
-10.38
-10.24
-9.31
-7.54
-5.04
-2.08
0.95
3.63
5.63
6.80
7.19
6.94
6.26
5.33
4.29
3.27
2.37
1.73
1.48
1.69
2.31
3.19
4.08
4.75
4.99
4.73
4.01
2.96
1.74
0.52
-0.57
-1.43
-2.06
-2.57
-3.12
-3.89
-4.98
-6.34
-7.74
-8.87
-9.37
-9.03
-7.82
-5.87
-3.45
-0.82
1.74
4.00
5.77
6.88
7.27
6.95
6.08
4.89
3.65
2.58
1.84
1.54
1.69
2.25
3.13
4.12
4.92
5.28
5.04
4.22
3.01
1.72
0.61
-0.22
-0.84
-1.48
-2.38
-3.62
-5.09
-6.46
-7.32
-7.33
-6.32
-4.39
-1.87
0.83
3.36
5.46
7.00
7.98
8.42
8.39
7.93
7.18
6.23
5.23
4.30
3.54
3.00
2.66
2.49
2.39
2.27
2.05
1.67
1.13
0.43
-0.39
-1.31
-2.25
-3.19
-4.04
-4.80
-5.51
-6.24
-7.10
-8.17
-9.38
-10.52
-11.29
-11.33
-10.38
-8.41
-5.63
-2.47
0.56
3.01
4.63
5.39
5.48
5.14
4.59
4.00
3.46
3.01
2.73
2.66
2.83
3.19
3.62
3.99
4.16
4.09
3.77
3.26
2.64
1.96
1.30
0.67
0.07
-0.58
-1.41
-2.50
-3.76
-4.97
-5.76
-5.80
-4.93
-3.26
-1.11
1.11
3.12
4.74
5.96
6.78
7.17
7.05
6.38
5.20
3.68
2.04
0.51
-0.76
-1.67
-2.26
-2.59
-2.79
-2.99
-3.31
-3.78
-4.36
-4.91
-5.31
-5.49
-5.50
-5.47
-5.60
-6.01
-6.78
-7.85
-9.07
-10.23
-11.08
-11.38
-10.95
-9.70
-7.65
-4.96
-1.86
1.33
4.33
6.83
8.61
9.56
9.74
9.33
8.59
7.78
7.05
6.44
5.93
5.48
5.10
4.83
4.66
4.55
4.37
4.02
3.47
2.82
2.19
1.65
1.19
0.67
-0.01
-0.97
-2.18
-3.60
-5.11
-6.55
-7.74
-8.45
-8.49
-7.75
-6.26
-4.23
-1.95
0.25
2.14
3.64
4.75
5.51
5.98
6.16
6.02
5.55
4.81
3.94
3.12
2.58
2.42
2.58
2.88
3.08
3.00
2.60
1.95
1.17
0.40
-0.31
-0.96
-1.56
-2.16
-2.81
-3.63
-4.69
-6.05
-7.62
-9.16
-10.32
-10.76
-10.26
-8.79
-6.51
-3.70
-0.69
2.15
4.53
6.19
7.00
6.95
6.19
4.98
3.66
2.48
1.64
1.13
0.88
0.76
0.65
0.49
0.28
0.06
-0.14
-0.33
-0.54
-0.83
-1.28
-1.87
-2.58
-3.30
-3.93
-4.44
-4.87
-5.29
-5.79
-6.31
-6.69
-6.67
-6.01
-4.62
-2.58
-0.16
2.33
4.57
6.36
7.56
8.10
8.01
7.36
6.30
5.06
3.85
2.82
2.01
1.43
1.05
0.88
0.93
1.16
1.47
1.71
1.73
1.48
1.01
0.44
-0.11
-0.56
-0.92
-1.27
-1.69
-2.29
-3.13
-4.23
-5.53
-6.84
-7.90
-8.38
-8.03
-6.74
-4.64
-2.06
0.56
2.79
4.39
5.26
5.51
5.30
4.80
4.12
3.32
2.47
1.73
1.23
1.06
1.21
1.54
1.84
1.96
1.80
1.42
0.92
0.44
0.11
-0.02
0.03
0.08
-0.04
-0.52
-1.39
-2.54
-3.71
-4.62
-5.06
-4.93
-4.21
-2.92
-1.13
1.03
3.37
5.54
7.18
8.03
7.99
7.15
5.76
4.08
2.36
0.79
-0.48
-1.34
-1.74
-1.75
-1.57
-1.42
-1.49
-1.84
-2.40
-3.02
-3.56
-3.97
-4.29
-4.58
-4.95
-5.45
-6.13
-7.03
-8.14
-9.35
-10.45
-11.14
-11.12
-10.24
-8.49
-6.08
-3.33
-0.60
1.81
3.73
5.09
5.86
6.07
5.74
4.97
3.90
2.80
1.95
1.60
1.84
2.54
3.43
4.26
4.81
5.01
4.90
4.53
3.94
3.19
2.35
1.53
0.81
0.16
-0.57
-1.63
-3.17
-5.12
-7.14
-8.69
-9.31
-8.75
-7.10
-4.74
-2.13
0.31
2.33
3.83
4.75
5.09
4.88
4.16
3.08
1.84
0.68
-0.20
-0.68
-0.72
-0.41
0.12
0.71
1.20
1.49
1.52
1.30
0.89
0.34
-0.28
-0.94
-1.63
-2.35
-3.09
-3.85
-4.56
-5.16
-5.51
-5.49
-4.95
-3.84
-2.17
-0.05
2.32
4.64
6.63
8.03
8.66
8.49
7.61
6.19
4.46
2.69
1.16
0.10
-0.35
-0.21
0.33
1.00
1.53
1.77
1.68
1.34
0.86
0.28
-0.39
-1.19
-2.14
-3.23
-4.38
-5.56
-6.65
-7.59
-8.22
-8.40
-7.98
-6.87
-5.14
-2.92
-0.46
1.98
4.15
5.82
6.81
6.98
6.33
4.95
3.14
1.29
-0.19
-0.99
-1.06
-0.53
0.26
1.01
1.47
1.56
1.31
0.83
0.23
-0.41
-1.04
-1.67
-2.36
-3.23
-4.34
-5.64
-6.88
-7.75
-7.95
-7.35
-6.05
-4.34
-2.52
-0.74
0.99
2.79
4.69
6.57
8.13
9.02
9.04
8.18
6.69
4.96
3.36
2.12
1.32
0.89
0.69
0.64
0.68
0.81
0.98
1.10
1.05
0.72
0.06
-0.91
-2.10
-3.42
-4.74
-5.97
-6.98
-7.63
-7.78
-7.32
-6.20
-4.49
-2.33
0.03
2.32
4.26
5.64
6.35
6.39
5.86
4.91
3.73
2.47
1.23
0.11
-0.84
-1.55
-1.97
-2.13
-2.04
-1.77
-1.34
-0.80
-0.27
0.11
0.13
-0.38
-1.47
-3.05
-4.84
-6.54
-7.82
-8.55
-8.69
-8.35
-7.63
-6.61
-5.27
-3.60
-1.59
0.67
3.01
5.16
6.87
7.90
8.15
7.64
6.54
5.08
3.56
2.26
1.41
1.13
1.35
1.90
2.50
2.86
2.83
2.37
1.55
0.55
-0.47
-1.40
-2.24
-3.04
-3.91
-4.91
-6.06
-7.27
-8.40
-9.22
-9.48
-8.97
-7.61
-5.44
-2.71
0.26
3.07
5.42
7.08
7.97
8.08
7.53
6.47
5.09
3.60
2.22
1.17
0.60
0.59
1.08
1.88
2.74
3.43
3.78
3.76
3.42
2.87
2.22
1.48
0.63
-0.38
-1.61
-3.04
-4.62
-6.17
-7.47
-8.22
-8.21
-7.33
-5.68
-3.51
-1.15
1.12
3.12
4.79
6.08
6.96
7.31
7.08
6.30
5.12
3.82
2.66
1.85
1.52
1.65
2.17
2.91
3.69
4.28
4.53
4.36
3.82
3.04
2.15
1.24
0.29
-0.78
-2.02
-3.41
-4.79
-5.91
-6.52
-6.41
-5.50
-3.87
-1.70
0.79
3.37
5.80
7.88
9.46
10.44
10.83
10.73
10.28
9.65
8.98
8.33
7.73
7.16
6.54
5.80
4.89
3.80
2.60
1.42
0.41
-0.31
-0.75
-1.03
-1.41
-2.21
-3.68
-5.93
-8.80
-11.86
-14.51
-16.16
-16.45
-15.30
-13.02
-10.05
-6.91
-3.96
-1.45
0.50
1.76
2.24
1.90
0.84
-0.66
-2.18
-3.31
-3.78
-3.56
-2.85
-1.96
-1.20
-0.78
-0.77
-1.10
-1.64
-2.23
-2.76
-3.18
-3.52
-3.88
-4.42
-5.27
-6.45
-7.85
-9.22
-10.20
-10.48
-9.81
-8.18
-5.69
-2.62
0.71
3.98
6.90
9.26
10.93
11.83
11.95
11.39
10.36
9.20
8.31
8.01
8.43
9.42
10.61
11.58
12.10
12.22
12.28
12.75
13.97
15.92
18.28
20.55
22.32
23.54
24.68
26.65
30.51
37.15
46.87
59.14
72.59
85.23
94.93
99.98
99.65
94.64
86.99
79.67
75.67
77.03
84.17
95.74
109.16
121.38
129.79
132.77
129.82
121.38
108.51
92.62
75.27
57.94
41.91
28.03
16.57
7.31
-0.41
-7.38
-14.28
-21.43
-28.78
-35.92
-42.31
-47.56
-51.55
-54.43
-56.47
-57.85
-58.63
-58.72
-58.05
-56.69
-54.91
-53.14
-51.84
-51.44
-52.19
-54.15
-57.16
-60.89
-64.81
-68.33
-70.79
-71.62
-70.49
-67.45
-62.93
-57.82
-53.13
-49.79
-48.30
-48.67
-50.46
-53.00
-55.67
-57.89
-59.14
-58.92
-56.88
-52.99
-47.76
-42.18
-37.40
-34.25
-32.91
-32.84
-33.17
-33.19
-32.73
-32.21
-32.36
-33.74
-36.48
-40.11
-43.84
-46.84
-48.52
-48.69
-47.61
-45.81
-43.90
-42.31
-41.18
-40.34
-39.48
-38.36
-37.02
-35.85
-35.41
-36.25
-38.76
-42.98
-48.72
-55.57
-63.09
-70.88
-78.68
-86.36
-93.86
-101.00
-107.34
-112.14
-114.57
-113.97
-110.17
-103.56
-94.91
-85.03
-74.47
-63.36
-51.59
-38.91
-25.11
-9.96
6.93
26.11
48.17
73.31
100.96
129.71
157.65
183.06
205.13
224.13
241.10
257.13
272.67
287.11
299.06
306.99
309.96
308.18
303.03
296.71
291.37
288.07
286.14
282.99
274.88
258.22
230.82
192.30
143.94
87.94
27.16
-34.67
-92.62
-140.83
-173.84
-188.62
-186.03
-170.86
-150.08
-130.10
-114.59
-103.94
-96.27
-89.31
-81.78
-73.60
-65.25
-56.81
-47.53
-36.20
-21.83
-4.39
15.16
35.06
53.65
70.07
84.56
98.34
113.01
129.72
148.52
168.33
187.38
203.90
216.61
224.79
227.97
225.77
218.25
206.37
192.34
179.15
169.47
164.27
162.22
160.14
154.51
143.01
125.36
103.07
78.34
52.98
27.76
2.72
-22.42
-47.87
-73.98
-101.75
-133.42
-172.33
-221.70
-282.24
-350.11
-416.56
-469.96
-500.17
-502.84
-481.15
-444.35
-403.79
-368.83
-344.72
-332.70
-331.42
-338.21
-349.36
-360.07
-365.05
