1540297112.00
64.000000
-0.00
-0.00
-0.00
-0.00
-0.00
-0.00
-0.00
-0.00
-0.00
-0.00
0.00
0.01
0.01
-0.00
-0.03
-0.05
-0.05
0.00
0.13
0.36
0.66
1.01
1.37
1.72
2.06
2.40
2.79
3.24
3.80
4.42
5.06
5.67
6.21
6.70
7.18
7.73
8.39
9.27
10.27
11.31
12.26
13.08
13.81
14.63
15.73
17.27
19.47
22.14
25.00
27.76
30.26
32.57
35.00
38.00
41.86
46.98
53.00
59.41
65.65
71.36
76.60
81.86
87.83
95.04
104.02
114.27
125.03
135.43
144.91
153.51
161.84
171.23
180.37
191.52
205.28
221.79
239.92
256.75
267.96
268.88
256.12
228.78
189.22
141.29
89.40
36.85
-14.79
-65.28
-114.76
-163.01
-209.22
-251.99
-290.46
-323.91
-351.85
-373.62
-388.22
-394.38
-390.90
-377.26
-353.70
-322.45
-286.19
-247.67
-209.23
-172.43
-138.04
-106.23
-76.88
-49.79
-25.04
-2.66
17.29
34.74
49.83
62.83
74.06
83.73
91.86
98.24
102.62
105.18
106.03
105.36
103.45
100.62
97.12
93.18
88.93
84.51
80.04
75.55
71.09
66.71
62.42
58.24
54.14
50.11
46.15
42.27
38.44
34.66
30.86
27.06
23.23
19.41
15.62
11.95
8.51
5.39
2.64
0.35
-1.45
-2.76
-3.57
-3.96
-3.96
-3.66
-3.20
-2.69
-2.25
-1.95
-1.89
-2.10
-2.56
-3.25
-4.17
-5.26
-6.49
-7.80
-9.15
-10.48
-11.71
-12.78
-13.66
-14.30
-14.72
-14.90
-14.89
-14.73
-14.44
-14.11
-13.81
-13.63
-13.62
-13.84
-14.29
-14.92
-15.65
-16.37
-17.01
-17.43
-17.57
-17.37
-16.80
-15.89
-14.69
-13.28
-11.80
-10.38
-9.14
-8.14
-7.45
-7.04
-6.84
-6.77
-6.72
-6.60
-6.32
-5.81
-5.04
-3.98
-2.64
-1.05
0.69
2.54
4.40
6.23
7.97
9.62
11.20
12.72
14.13
15.42
16.51
17.35
17.94
18.33
18.66
19.09
19.65
20.35
21.02
21.42
21.25
20.33
18.58
16.05
12.75
8.70
3.79
-2.14
-9.24
-17.42
-26.27
-35.11
-43.08
-49.38
-53.56
-55.69
-56.34
-56.32
-56.36
-56.73
-57.18
-56.95
-55.29
-51.95
-47.49
-43.22
-40.76
-41.22
-44.63
-49.66
-54.10
-55.83
-53.92
-49.32
-44.52
-42.60
-45.72
-53.84
-64.65
-74.48
-80.34
-81.29
-79.25
-78.19
-82.13
-93.34
-111.64
-135.02
-160.89
-186.83
-210.23
-227.46
-233.60
-224.02
-197.07
-156.51
-111.56
-73.49
-50.38
-42.97
-44.28
-43.69
-33.33
-12.93
9.91
24.59
24.38
10.98
-5.89
-14.21
-6.89
13.75
37.00
50.31
46.91
30.17
11.86
5.31
17.39
44.21
72.90
89.07
84.97
64.07
39.15
24.91
29.58
50.03
73.48
84.98
76.12
49.96
19.49
0.06
0.64
18.61
41.40
53.95
47.56
24.91
-1.44
-16.52
-11.65
10.59
37.65
54.43
51.85
31.98
6.74
-9.21
-6.99
11.28
33.67
45.66
38.65
15.27
-12.17
-28.84
-26.06
-6.35
18.13
32.94
30.02
12.24
-8.32
-17.79
-8.87
14.77
40.35
53.56
46.82
23.88
-2.27
-16.96
-12.23
8.42
31.94
43.48
35.10
10.44
-17.24
-32.90
-28.39
-7.26
17.52
31.39
26.81
7.60
-13.38
-22.13
-11.72
13.38
39.86
53.26
46.39
23.44
-2.31
-16.35
-11.23
9.04
31.26
40.99
30.95
5.55
-21.67
-35.93
-29.80
-7.63
17.16
30.19
24.59
4.98
-15.38
-22.79
-11.21
13.94
38.90
49.64
40.07
15.62
-9.93
-22.47
-15.72
5.07
26.30
34.10
22.54
-2.81
-28.04
-39.15
-30.15
-6.72
17.29
28.12
20.22
-0.50
-20.26
-25.80
-12.27
13.60
37.46
45.63
33.18
6.77
-19.10
-30.63
-22.67
-1.63
18.33
23.97
10.77
-14.25
-36.70
-43.39
-30.05
-4.02
20.07
29.00
18.63
-3.68
-23.39
-27.43
-11.84
15.78
40.75
49.81
38.82
15.12
-6.83
-14.03
-2.57
19.95
39.04
41.90
25.10
-3.38
-28.72
-37.92
-27.22
-4.12
17.17
24.35
14.05
-6.19
-22.58
-23.32
-5.76
21.68
44.18
49.00
32.86
4.06
-22.12
-32.12
-21.74
1.44
22.72
29.07
16.86
-6.01
-24.94
-27.42
-10.52
17.03
40.01
45.56
30.65
3.90
-19.62
-27.14
-15.68
6.29
23.97
25.13
7.35
-20.36
-42.86
-47.76
-32.61
-6.46
15.68
21.67
9.39
-12.19
-28.42
-27.87
-9.12
18.26
39.35
42.62
26.64
0.98
-19.46
-23.20
-8.79
14.17
30.80
29.74
9.84
-18.88
-41.16
-45.24
-29.60
-3.93
16.79
21.15
7.91
-13.30
-27.88
-24.92
-3.84
25.06
46.63
49.61
33.16
7.32
-12.88
-16.28
-2.12
19.51
33.83
30.24
8.77
-19.74
-40.06
-41.51
-24.24
0.86
18.62
18.62
1.13
-22.91
-38.51
-35.35
-13.71
15.47
37.11
40.59
25.83
3.19
-12.85
-12.17
4.84
27.32
40.60
34.86
11.22
-18.69
-39.41
-40.54
-22.76
2.69
20.77
21.43
5.31
-16.71
-30.21
-25.69
-4.16
23.26
41.93
42.14
24.73
0.73
-15.28
-13.58
4.82
28.49
42.42
36.79
12.92
-17.22
-37.99
-38.95
-20.87
4.74
22.68
22.88
6.22
-16.22
-29.97
-25.72
-5.04
20.46
35.97
32.13
10.55
-16.90
-35.07
-34.23
-15.71
8.76
24.24
21.22
1.40
-23.39
-38.25
-34.00
-12.68
13.60
30.00
27.72
9.16
-13.45
-25.59
-18.95
3.43
28.79
42.18
35.17
10.90
-17.53
-34.81
-32.08
-12.17
12.03
25.50
19.84
-1.81
-26.64
-39.91
-33.73
-11.69
13.28
26.87
21.75
1.92
-19.67
-28.95
-19.02
5.81
32.23
45.77
38.94
15.74
-10.64
-25.46
-20.72
0.02
23.65
35.26
26.90
2.26
-25.23
-40.37
-35.03
-13.09
11.94
24.98
18.31
-4.00
-28.43
-40.26
-32.08
-8.13
18.29
32.84
28.43
9.35
-11.37
-19.81
-9.38
15.24
40.62
52.53
44.25
20.55
-5.03
-18.17
-12.24
7.75
28.11
34.79
21.74
-5.33
-32.28
-44.93
-37.28
-14.98
8.16
18.41
10.22
-10.67
-30.69
-36.58
-23.18
3.44
29.42
41.19
33.30
11.51
-10.69
-20.00
-11.29
9.34
28.22
32.39
17.52
-9.33
-33.62
-41.98
-30.00
-4.97
18.42
26.77
15.69
-7.51
-28.25
-33.25
-18.23
9.43
34.93
44.59
33.75
9.34
-14.26
-23.60
-14.08
7.34
26.42
30.25
14.97
-11.82
-35.51
-43.14
-30.97
-6.65
15.39
22.64
11.72
-9.64
-27.27
-29.09
-12.20
15.14
38.28
44.57
30.68
4.58
-19.08
-27.31
-16.31
6.26
25.82
29.49
13.70
-13.56
-37.41
-44.73
-31.84
-6.73
15.76
22.77
11.01
-11.26
-29.23
-30.42
-12.15
16.62
40.46
46.45
31.79
5.28
-17.74
-24.46
-12.01
10.79
28.92
30.10
12.12
-15.77
-38.32
-43.30
-28.52
-3.12
18.00
23.01
10.02
-11.91
-28.25
-27.65
-8.65
19.34
41.51
46.18
31.59
6.83
-13.50
-17.80
-4.29
17.88
34.12
33.09
13.52
-14.88
-37.05
-41.36
-26.43
-1.96
17.18
19.72
4.68
-18.07
-33.67
-31.17
-10.00
19.46
41.75
45.24
28.71
2.07
-19.53
-24.34
-10.81
11.49
27.70
26.51
6.90
-21.10
-42.25
-45.10
-28.66
-3.04
16.66
19.39
4.57
-17.46
-31.79
-27.78
-5.51
24.06
45.50
47.73
30.36
3.86
-16.62
-20.04
-5.79
16.01
30.66
27.70
7.08
-20.58
-40.28
-41.45
-24.18
0.77
18.39
18.31
0.85
-23.02
-38.29
-34.63
-12.45
17.12
38.90
42.27
27.27
4.43
-11.65
-10.88
6.28
28.93
42.46
37.14
14.13
-15.07
-35.27
-36.48
-19.72
3.69
18.97
16.66
-1.93
-25.37
-39.03
-33.57
-10.42
18.70
38.69
39.52
21.90
-3.11
-20.66
-20.70
-3.78
19.19
33.62
29.77
8.77
-17.96
-35.45
-33.96
-14.69
10.74
27.40
25.81
7.50
-15.96
-29.95
-25.49
-4.77
20.13
34.27
28.68
5.63
-22.36
-40.06
-38.23
-18.96
5.45
20.05
16.05
-4.00
-27.69
-40.25
-33.21
-9.48
18.27
35.17
32.74
13.75
-9.51
-22.53
-17.09
3.90
28.13
41.29
35.48
13.88
-11.04
-25.03
-20.44
-0.85
21.09
31.14
22.05
-2.15
-28.18
-41.31
-33.66
-8.80
20.08
37.90
36.03
17.03
-6.96
-21.54
-18.35
0.05
21.75
32.72
25.14
2.19
-23.65
-37.98
-32.82
-11.47
13.46
27.60
23.38
4.37
-16.81
-26.20
-16.80
7.01
31.97
43.72
35.21
10.87
-15.90
-30.65
-26.12
-6.52
15.08
24.78
16.00
-6.58
-29.84
-40.10
-31.21
-8.25
15.46
26.42
18.83
-1.96
-22.54
-29.53
-17.36
8.21
33.33
44.03
34.23
9.25
-17.19
-31.03
-25.84
-6.59
13.47
20.78
9.61
-14.44
-37.65
-46.36
-34.96
-9.43
16.15
27.91
20.22
-0.98
-21.75
-28.33
-15.21
11.55
37.82
49.57
41.00
17.78
-6.27
-17.43
-10.11
9.84
28.63
32.97
18.10
-9.26
-34.67
-44.59
-34.19
-10.28
12.83
21.79
11.94
-10.00
-29.98
-34.94
-20.40
6.83
32.59
43.53
34.76
12.55
-9.42
-18.16
-9.10
11.16
28.83
31.30
14.81
-13.09
-37.72
-45.96
-33.86
-8.99
14.02
22.15
11.51
-10.42
-29.26
-32.30
-15.87
12.26
37.38
46.31
35.06
11.02
-11.33
-18.88
-7.66
14.70
33.46
35.53
17.31
-13.01
-39.98
-49.80
-38.19
-12.77
11.53
21.23
12.01
-8.94
-27.32
-30.36
-14.28
13.31
37.92
46.63
35.71
12.71
-8.06
-14.13
-2.31
19.19
35.72
35.00
14.59
-16.37
-42.38
-50.49
-37.73
-12.76
9.46
16.42
5.25
-15.75
-32.31
-32.67
-14.55
13.31
36.31
42.49
29.46
5.77
-14.13
-18.41
-4.83
17.71
34.60
34.14
14.57
-14.76
-38.58
-44.63
-30.57
-5.26
16.49
22.66
10.82
-10.55
-27.24
-27.72
-9.96
17.26
39.49
44.95
31.49
7.80
-11.77
-15.68
-2.19
19.39
34.30
31.27
9.40
-20.97
-44.18
-48.38
-32.42
-6.56
13.77
16.97
1.99
-21.14
-37.40
-35.68
-15.24
13.69
36.01
40.38
25.80
2.05
-16.14
-17.75
-1.98
21.09
36.63
33.77
12.20
-17.45
-39.73
-43.25
-27.27
-2.00
17.52
20.28
5.55
-16.73
-32.05
-29.89
-9.86
17.87
38.67
41.87
26.93
3.79
-13.20
-13.72
2.31
24.37
37.76
32.36
8.82
-21.50
-43.05
-45.05
-27.72
-2.15
16.42
17.54
1.41
-21.21
-35.62
-31.82
-10.32
18.01
38.35
40.44
24.45
0.80
-16.05
-16.08
0.38
22.55
35.80
30.29
7.00
-22.59
-43.09
-44.08
-26.19
-0.71
17.27
17.67
1.22
-21.04
-34.60
-30.03
-8.56
18.57
36.88
37.16
20.74
-1.32
-14.99
-11.59
6.97
29.11
40.58
32.88
8.44
-20.59
-39.32
-38.52
-19.95
4.83
21.34
20.60
4.12
-17.09
-29.21
-23.79
-2.67
22.85
38.71
36.25
17.24
-7.01
-22.41
-20.24
-2.40
19.55
31.39
24.61
1.65
-25.37
-41.79
-38.81
-18.64
6.81
23.13
21.79
5.01
-15.66
-26.42
-19.31
2.96
28.35
42.50
37.01
14.37
-13.30
-31.27
-30.58
-13.09
9.43
22.61
17.83
-2.64
-27.01
-41.03
-36.38
-15.67
9.25
24.40
21.86
4.26
-16.78
-27.81
-21.38
-0.34
23.65
37.15
32.68
13.20
-9.53
-21.86
-16.11
4.75
28.46
40.69
33.28
9.13
-19.29
-37.15
-35.71
-17.44
5.62
19.08
14.78
-4.53
-26.82
-38.10
-30.66
-7.68
18.56
34.01
31.08
13.07
-7.78
-17.63
-9.30
13.39
37.44
48.45
39.00
13.18
-15.53
-32.05
-28.39
-8.29
14.98
26.58
18.83
-4.33
-29.67
-42.60
-35.62
-12.78
12.89
27.13
22.78
3.92
-16.60
-24.98
-14.65
9.67
34.59
45.92
37.13
13.16
-12.27
-24.77
-17.75
3.70
25.67
33.90
22.10
-4.29
-31.12
-44.01
-36.52
-13.90
10.17
21.68
14.44
-6.42
-27.61
-35.61
-24.49
0.48
25.91
38.13
31.11
9.90
-12.35
-22.15
-13.70
7.59
28.26
34.89
22.12
-4.05
-29.59
-40.76
-32.06
-9.48
13.12
22.26
12.72
-9.39
-30.23
-36.49
-23.04
3.89
30.14
41.80
33.03
9.40
-15.42
-27.54
-20.83
-0.50
20.07
27.44
16.08
-8.24
-31.77
-40.91
-30.35
-6.30
17.20
26.62
16.90
-5.56
-26.60
-32.80
-19.30
7.26
32.48
42.56
32.23
7.82
-16.44
-26.69
-17.31
5.68
28.05
35.82
23.40
-3.14
-29.37
-40.97
-32.00
-8.49
15.18
24.82
14.63
-9.37
-32.94
-42.15
-31.42
-6.74
17.98
29.24
21.74
1.49
-17.90
-23.33
-9.86
16.27
41.17
51.38
41.67
18.02
-5.78
-16.32
-8.38
11.89
30.61
34.59
19.22
-8.60
-34.37
-44.58
-34.52
-11.13
11.26
19.49
9.20
-12.58
-31.61
-35.05
-18.85
9.59
35.69
46.05
36.11
12.65
-10.25
-19.49
-10.57
9.71
27.46
30.12
14.02
-13.24
-37.13
-44.79
-32.51
-7.94
14.40
21.72
10.29
-12.30
-31.70
-35.17
-18.96
9.34
35.12
45.21
35.26
12.16
-10.03
-18.48
-9.12
10.93
27.65
28.69
10.90
-17.49
-41.54
-48.36
-34.62
-8.58
14.70
22.22
10.44
-12.68
-32.46
-36.07
-19.95
8.02
33.16
42.45
32.00
9.22
-11.65
-17.89
-5.93
16.37
34.39
35.47
16.50
-13.93
-40.36
-49.33
-37.07
-11.59
12.09
20.86
10.89
-10.25
-28.27
-30.67
-14.01
13.97
38.82
47.79
37.07
13.95
-7.60
-15.03
-4.66
16.09
33.22
34.41
16.52
-12.47
-37.83
-46.67
-35.25
-11.17
11.20
19.16
8.98
-12.03
-29.96
-32.58
-16.52
10.50
34.19
42.04
30.53
7.24
-13.68
-19.86
-7.96
14.15
32.22
34.05
16.90
-10.91
-34.62
-41.57
-28.45
-3.12
20.02
28.47
18.74
-1.78
-19.40
-22.30
-7.59
16.69
36.28
39.01
22.03
-6.27
-31.02
-39.40
-27.91
-4.58
16.01
21.34
8.20
-15.49
-35.47
-39.63
-25.00
0.46
22.70
29.81
19.01
-1.84
-18.89
-20.52
-4.26
21.53
42.39
46.23
30.39
3.47
-19.68
-26.51
-14.12
8.84
27.47
29.45
12.36
-14.83
-36.93
-41.52
-26.13
0.36
22.95
29.42
17.19
-5.21
-23.51
-26.07
-10.78
13.59
32.56
34.45
17.18
-10.26
-33.06
-39.01
-25.50
-1.15
19.47
24.29
10.79
-12.65
-31.68
-34.45
-18.47
7.85
30.18
36.54
24.25
1.35
-18.13
-22.41
-8.93
14.10
32.44
34.27
17.24
-9.91
-32.40
-37.94
-23.90
0.94
21.72
26.32
12.38
-11.32
-30.07
-32.09
-15.31
11.26
32.92
37.82
23.83
-0.33
-20.31
-24.46
-10.57
12.68
30.93
32.49
15.17
-12.25
-35.16
-41.42
-28.36
-4.54
15.61
20.10
6.45
-16.91
-35.61
-37.86
-21.31
5.58
28.55
35.92
25.24
4.66
-12.01
-13.49
2.37
27.16
46.83
49.84
34.00
7.83
-14.32
-20.65
-8.75
12.76
29.35
29.30
10.55
-17.83
-40.98
-46.94
-33.58
-9.82
9.85
13.97
0.83
-20.60
-36.06
-34.56
-14.85
13.65
36.21
41.24
26.91
2.19
-18.54
-23.64
-11.02
10.55
26.83
26.49
7.92
-19.66
-41.50
-45.84
-30.78
-5.43
15.56
20.55
7.60
-14.45
-31.33
-31.85
-14.41
12.02
33.13
37.68
23.96
0.85
-17.52
-19.96
-4.67
19.41
37.83
38.99
20.97
-7.22
-30.72
-37.29
-24.30
-0.43
19.68
23.98
9.96
-13.89
-33.27
-36.53
-21.52
3.26
23.82
29.03
17.06
-3.59
-19.33
-19.55
-2.84
21.88
40.56
42.14
24.95
-2.07
-24.51
-30.65
-18.09
4.60
23.19
25.99
10.70
-14.24
-34.61
-38.79
-24.40
0.20
21.09
26.92
15.57
-4.72
-20.33
-20.41
-3.33
22.01
41.33
43.26
26.03
-1.22
-23.66
-29.24
-15.63
8.21
27.41
29.84
13.23
-13.51
-35.46
-40.29
-25.32
0.94
23.89
31.29
20.20
-1.47
-19.83
-23.17
-8.90
14.82
33.81
36.24
19.45
-8.11
-31.89
-39.51
-27.83
-4.85
15.24
20.51
8.38
-12.93
-29.35
-29.44
-11.32
15.89
37.42
41.40
25.81
-0.36
-22.25
-27.83
-14.93
7.51
24.88
25.47
7.53
-19.61
-41.09
-45.24
-30.38
-5.80
13.85
17.29
3.19
-19.08
-35.07
-33.80
-14.07
14.50
37.19
42.56
28.96
5.41
-13.77
-17.26
-3.30
19.16
35.91
35.78
17.38
-10.04
-31.76
-36.11
-21.07
4.49
26.01
31.73
19.32
-2.93
-21.07
-23.80
-9.09
14.48
32.72
34.18
16.86
-10.33
-32.79
-38.58
-25.27
-1.49
18.41
22.78
9.58
-12.55
-29.38
-29.67
-11.72
15.32
36.83
41.14
26.22
0.90
-20.36
-25.80
-13.12
9.01
26.09
26.24
7.29
-21.78
-45.84
-52.28
-38.17
-12.13
10.96
18.61
7.83
-13.34
-30.68
-32.40
-15.93
10.61
33.28
40.53
29.77
8.85
-8.79
-11.99
1.75
24.50
42.64
44.75
28.25
1.18
-22.35
-30.24
-19.29
2.75
21.90
26.19
12.69
-10.75
-30.10
-33.45
-17.93
8.41
31.29
38.43
26.53
3.08
-17.98
-24.41
-12.75
9.60
28.71
32.23
16.63
-10.46
-34.71
-43.26
-32.11
-8.55
13.35
21.12
11.20
-8.96
-25.61
-26.99
-10.38
15.98
37.71
42.59
27.61
0.83
-23.29
-32.14
-22.25
-1.18
16.91
19.68
3.87
-22.60
-45.21
-51.32
-37.33
-10.96
13.32
22.81
13.75
-6.53
-24.11
-26.62
-10.61
16.47
40.51
48.95
37.91
14.40
-7.74
-16.11
-6.78
13.19
30.11
31.80
14.90
-12.89
-37.21
-45.36
-33.74
-9.81
12.12
19.51
8.70
-12.86
-31.13
-33.73
-17.19
10.79
35.66
44.34
32.69
7.85
-15.90
-25.33
-15.87
5.87
26.12
32.23
20.09
-3.37
-24.28
-29.98
-16.44
9.29
33.04
41.82
31.21
7.88
-14.28
-22.38
-11.98
10.16
30.02
34.56
19.36
-8.48
-34.49
-45.09
-35.36
-11.91
11.15
20.62
11.88
-8.54
-26.97
-30.86
-16.17
10.03
33.60
41.50
29.31
3.70
-21.25
-32.29
-24.54
-4.20
15.10
20.58
7.83
-16.40
-38.24
-44.85
-31.93
-6.41
17.67
27.38
18.36
-2.85
-22.61
-28.23
-15.33
9.66
33.19
42.50
32.96
10.71
-10.93
-19.33
-9.92
10.93
29.70
33.64
18.44
-9.17
-35.00
-45.60
-35.88
-11.94
12.42
23.89
17.15
-2.12
-20.73
-25.85
-12.49
13.24
37.47
46.58
34.92
8.27
-19.34
-33.60
-27.87
-6.86
16.24
27.74
21.37
1.82
-18.20
-25.53
-14.47
9.62
33.33
42.94
32.43
6.96
-19.76
-33.57
-27.88
-7.43
14.47
23.98
14.80
-8.01
-31.11
-40.87
-31.31
-7.75
16.26
27.03
18.64
-3.66
-26.44
-36.04
-26.33
-2.38
22.46
34.41
27.07
5.21
-18.06
-28.97
-21.17
0.46
22.71
31.85
21.78
-2.41
-27.22
-38.72
-30.50
-7.29
17.70
30.77
25.43
6.16
-14.35
-22.72
-12.71
10.98
35.19
45.95
36.37
10.78
-17.64
-34.34
-31.57
-12.67
10.07
22.86
18.54
0.67
-18.72
-26.46
-16.13
7.68
31.93
42.57
32.75
6.81
-21.92
-38.78
-36.07
-17.18
5.38
17.67
12.38
-6.94
-28.02
-37.40
-28.25
-4.57
20.92
34.44
28.95
8.28
-14.94
-26.70
-19.73
2.30
26.73
39.38
32.71
10.33
-14.97
-28.83
-23.46
-2.39
21.54
33.77
26.67
3.91
-21.55
-35.08
-29.10
-7.39
16.96
29.46
22.59
0.15
-24.74
-37.64
-30.82
-7.79
18.70
34.14
30.52
10.74
-13.15
-27.05
-22.87
-3.30
19.78
32.33
26.29
4.36
-21.37
-36.59
-32.96
-13.02
11.25
25.46
21.19
0.83
-23.67
-37.86
-33.01
-11.02
16.50
35.23
36.17
20.70
-0.35
-13.23
-9.37
9.44
31.87
43.75
36.47
12.17
-17.16
-36.54
-36.59
-18.90
4.86
20.03
17.47
-1.17
-24.37
-37.69
-32.16
-9.49
18.67
37.56
37.75
20.32
-3.66
-19.83
-18.77
-1.52
20.96
34.41
29.55
7.71
-19.86
-38.44
-38.24
-19.95
5.56
23.75
24.72
8.80
-13.77
-28.97
-27.26
-9.32
14.25
29.02
25.25
3.50
-25.17
-45.69
-47.51
-30.46
-4.98
14.31
17.11
3.41
-16.59
-28.89
-23.85
-2.03
25.76
45.03
45.82
28.49
3.59
-14.20
-14.61
2.34
26.27
42.50
40.55
20.29
-7.80
-28.79
-31.64
-15.57
9.49
28.80
31.29
15.87
-8.10
-26.41
-28.46
-13.62
8.35
23.11
20.34
-0.13
-27.81
-47.77
-49.26
-31.86
-5.88
13.82
16.53
1.83
-20.19
-34.95
-31.83
-10.37
19.20
41.97
46.68
32.10
7.65
-12.09
-15.81
-2.02
20.08
36.12
35.04
15.81
-11.82
-32.83
-35.64
-18.71
8.34
30.43
35.65
21.89
-2.19
-22.34
-27.23
-15.03
5.65
20.94
20.07
1.76
-24.74
-45.09
-48.20
-32.56
-7.29
13.27
18.03
5.55
-15.16
-30.00
-28.06
-8.11
20.42
42.97
47.99
33.60
8.61
-12.53
-18.12
-5.86
15.74
32.48
32.82
14.72
-13.11
-36.15
-42.56
-29.98
-6.79
12.81
17.34
4.58
-17.01
-33.43
-33.40
-14.90
13.30
36.63
43.06
29.81
5.08
-16.73
-23.21
-10.98
12.25
32.33
36.87
22.49
-3.23
-26.04
-33.31
-21.12
3.38
26.26
34.88
25.11
3.56
-16.36
-22.38
-10.69
11.78
31.28
35.33
20.04
-7.35
-32.54
-42.39
-32.35
-9.21
13.06
21.60
12.21
-8.29
-26.21
-29.18
-13.58
13.07
36.46
43.60
30.45
4.13
-20.94
-31.47
-22.82
-1.63
18.12
23.51
10.22
-14.85
-37.67
-45.34
-33.63
-9.59
12.75
20.63
10.02
-12.11
-31.76
-36.24
-21.37
6.11
32.29
44.17
36.91
16.61
-3.49
-10.61
0.12
22.56
43.16
48.78
34.55
6.79
-20.29
-32.72
-24.91
-2.89
19.09
27.12
15.48
-9.87
-34.82
-45.44
-35.98
-12.18
12.19
23.35
15.58
-5.65
-26.82
-34.47
-22.92
2.25
27.22
38.03
28.53
4.08
-21.58
-34.24
-27.40
-6.19
15.75
24.46
13.89
-10.60
-35.21
-45.95
-36.72
-12.84
12.25
24.96
19.30
0.23
-19.37
-26.45
-15.27
9.32
34.54
47.10
40.71
19.76
-3.25
-14.91
-8.47
12.02
33.92
43.44
33.71
8.86
-18.10
-32.85
-28.11
-7.97
14.45
24.96
16.54
-6.46
-30.77
-42.18
-33.68
-9.65
16.71
31.07
26.22
6.02
-16.83
-28.27
-21.01
1.33
26.12
39.24
33.16
11.34
-13.75
-27.94
-23.54
-3.95
18.43
29.54
22.06
-0.27
-24.67
-36.88
-29.45
-6.17
20.04
34.67
29.89
9.05
-15.30
-28.84
-23.70
-2.98
20.82
33.31
26.49
3.36
-23.71
-40.17
-37.68
-18.89
4.24
17.71
13.70
-4.79
-25.73
-35.31
-26.16
-1.77
25.29
40.80
36.95
16.97
-6.74
-19.93
-14.60
6.28
30.23
42.59
34.85
9.66
-20.49
-40.37
-40.51
-22.55
1.67
17.32
15.10
-3.53
-27.13
-41.25
-36.82
-15.46
11.46
29.63
29.95
13.84
-7.69
-20.64
-16.19
4.19
29.24
44.53
40.72
19.03
-9.21
-29.05
-30.31
-13.42
10.63
26.92
25.16
5.71
-20.64
-38.95
-38.81
-20.35
5.92
25.36
27.71
12.85
-9.17
-24.32
-22.77
-4.68
19.65
35.93
34.09
14.29
-12.93
-32.77
-34.59
-18.04
6.42
23.87
23.58
5.25
-20.72
-39.41
-40.02
-22.06
4.43
24.97
28.99
15.87
-4.87
-19.45
-17.82
0.47
25.73
43.84
44.28
26.29
-0.50
-21.59
-25.84
-11.82
11.15
28.67
29.67
12.88
-12.30
-31.43
-33.45
-17.07
8.28
28.16
31.50
16.98
-6.38
-24.52
-26.73
-12.01
10.28
25.88
24.02
3.83
-24.79
-46.80
-50.56
-34.38
-7.63
14.80
21.15
9.50
-11.21
-26.61
-25.37
-5.83
22.74
45.70
51.38
37.78
13.70
-6.52
-11.46
0.82
21.55
36.66
35.10
15.55
-12.73
-35.32
-40.91
-27.76
-4.94
13.20
15.34
-0.49
-25.55
-45.50
-48.69
-32.78
-6.16
16.83
24.21
13.13
-8.39
-26.32
-28.74
-12.84
13.17
34.87
40.10
26.15
1.31
-19.84
-25.01
-11.52
11.96
30.70
32.43
14.60
-13.87
-37.85
-44.64
-31.12
-5.57
17.25
24.84
13.96
-7.55
-25.51
-27.76
-11.20
16.31
40.45
48.70
37.48
14.12
-7.52
-15.12
-5.13
15.07
31.66
32.68
15.21
-12.71
-36.61
-44.10
-32.07
-8.61
11.86
17.10
4.18
-18.84
-37.53
-39.71
-22.44
6.21
31.63
41.04
30.63
7.71
-13.69
-20.81
-9.41
13.63
34.35
39.88
26.00
-0.39
-25.01
-34.51
-24.21
-0.97
20.87
27.95
15.56
-9.54
-33.05
-41.49
-29.98
-4.90
19.89
31.21
24.11
4.63
-13.90
-18.85
-5.66
19.27
42.11
49.66
37.03
10.58
-15.56
-27.65
-20.18
0.81
21.34
27.80
14.84
-11.39
-36.83
-47.66
-38.17
-14.04
11.07
23.56
17.53
-1.89
-21.67
-28.70
-17.30
7.29
31.84
42.85
34.34
11.32
-12.97
-24.83
-17.98
2.59
23.56
31.32
19.95
-5.06
-29.95
-40.74
-31.45
-7.62
16.87
27.98
19.60
-2.93
-25.86
-35.36
-25.28
-0.80
24.40
36.19
27.98
4.47
-21.06
-34.41
-28.51
-7.52
15.61
26.87
19.29
-3.08
-27.37
-39.53
-32.37
-9.87
15.28
29.20
24.79
5.90
-14.94
-24.04
-14.48
9.73
35.69
48.97
41.83
17.56
-11.10
-29.39
-28.64
-11.14
11.21
24.19
19.43
-0.62
-24.18
-37.17
-31.53
-10.05
15.14
29.83
26.03
6.65
-16.16
-28.30
-21.81
0.23
25.36
38.97
32.65
9.05
-19.42
-37.85
-37.17
-19.28
4.15
18.84
16.26
-1.33
-22.25
-32.56
-24.31
-0.49
26.50
42.10
37.94
16.74
-9.15
-25.01
-22.04
-2.42
21.81
35.94
30.95
8.72
-18.93
-37.18
-36.68
-18.85
4.85
19.96
17.42
-1.18
-24.43
-37.94
-32.72
-10.53
17.08
35.46
35.24
17.70
-6.05
-21.68
-19.81
-1.57
21.96
36.31
31.93
9.86
-18.61
-38.50
-39.57
-22.19
2.81
20.71
21.42
5.33
-17.04
-31.31
-27.77
-7.14
19.77
38.36
38.65
21.09
-3.68
-21.06
-20.85
-3.19
21.34
37.84
35.56
14.20
-15.70
-38.80
-43.53
-28.64
-4.03
15.36
18.28
3.64
-18.91
-34.82
-33.36
-14.02
13.18
33.61
36.49
21.20
-2.43
-20.03
-20.98
-4.62
19.23
36.03
34.98
15.35
-12.91
-34.81
-38.84
-23.58
1.21
20.50
22.67
6.23
-19.28
-38.88
-40.93
-23.78
3.23
25.38
31.15
18.78
-2.79
-19.34
-19.62
-1.99
24.62
45.80
50.01
35.22
10.08
-11.12
-16.73
-4.54
16.69
32.51
31.35
11.42
-17.95
-41.63
-47.46
-33.22
-7.98
13.32
18.60
5.55
-17.08
-34.71
-35.56
-17.44
10.91
34.81
42.14
30.13
6.86
-13.60
-19.33
-7.47
13.97
31.00
31.89
14.24
-13.49
-36.73
-43.24
-30.22
-5.93
15.22
21.21
9.32
-12.25
-29.32
-30.24
-12.74
14.50
36.74
41.68
26.58
-0.13
-23.73
-31.59
-20.31
2.18
21.42
24.85
9.21
-17.64
-41.15
-48.49
-36.00
-11.24
11.46
19.45
8.90
-13.03
-32.36
-36.60
-21.82
5.10
30.42
41.49
33.93
14.05
-4.86
-10.39
1.92
25.74
47.55
54.55
42.08
16.46
-8.55
-19.73
-12.05
8.24
27.24
31.74
16.93
-10.61
-36.58
-47.34
-37.62
-13.70
10.40
21.15
13.19
-7.64
-27.83
-34.13
-21.32
4.76
30.46
42.32
34.73
13.12
-9.27
-19.16
-11.00
9.70
29.61
35.55
22.29
-4.25
-30.18
-41.77
-33.24
-10.19
13.67
24.51
16.27
-5.88
-28.49
-37.73
-27.25
-2.00
24.54
38.13
31.98
10.50
-13.22
-25.14
-18.53
2.08
23.64
32.47
22.42
-1.39
-25.51
-36.12
-27.15
-3.89
20.03
30.70
21.91
-1.26
-25.33
-36.37
-27.84
-4.41
20.58
32.91
25.53
2.54
-23.10
-37.10
-31.98
-11.42
11.98
24.25
18.20
-2.44
-25.16
-36.15
-28.47
-6.22
17.88
29.95
23.00
1.05
-23.04
-35.15
-27.85
-4.63
21.81
36.96
32.57
11.41
-14.39
-30.31
-27.61
-8.48
15.15
28.74
23.56
1.74
-24.77
-41.21
-38.56
-18.70
6.71
23.27
22.14
5.11
-16.43
-28.32
-21.84
1.29
29.71
48.98
49.67
32.70
8.72
-8.24
-8.74
6.59
27.23
39.16
33.15
10.30
-18.35
-38.21
-39.58
-23.32
-0.39
14.86
13.10
-4.54
-27.05
-40.17
-34.79
-12.38
15.87
35.38
36.66
20.46
-2.51
-18.17
-16.93
0.79
24.69
40.71
39.07
20.00
-6.37
-25.80
-28.12
-13.21
8.84
23.67
21.14
1.19
-25.83
-45.26
-46.63
-29.71
-4.67
14.02
16.05
1.22
-20.44
-34.67
-31.36
-10.34
18.29
39.99
43.99
29.41
5.70
-12.98
-15.85
-1.72
20.11
35.48
33.63
13.66
-14.84
-37.13
-41.87
-27.59
-3.60
15.67
19.11
5.23
-16.96
-33.39
-33.28
-15.33
11.51
33.18
38.65
26.09
3.96
-14.07
-16.93
-2.41
21.30
40.40
43.24
27.16
0.07
-23.92
-32.44
-21.97
0.08
19.67
24.49
10.92
-13.60
-35.09
-41.19
-28.37
-4.09
17.75
24.85
13.79
-8.06
-26.80
-30.30
-15.19
11.09
34.30
41.71
29.33
4.22
-19.61
-29.16
-19.89
1.57
21.37
26.59
12.83
-13.26
-37.63
-47.07
-36.82
-13.34
9.58
18.93
9.90
-11.34
-31.24
-36.97
-23.69
2.64
28.68
41.46
35.64
16.56
-3.04
-10.52
-0.51
21.80
43.60
52.02
41.58
17.43
-7.51
-20.10
-14.51
4.24
23.27
29.63
17.86
-6.67
-30.77
-41.22
-32.43
-9.85
13.25
23.38
14.71
-7.68
-30.60
-40.54
-31.32
-7.69
17.14
29.22
21.80
-0.81
-25.74
-38.93
-33.27
-12.74
9.94
20.96
13.48
-8.33
-31.67
-42.69
-34.57
-11.62
13.35
26.56
21.20
1.33
-20.41
-30.29
-21.31
2.87
29.80
45.57
42.51
23.64
0.76
-12.36
-7.90
11.34
33.37
44.08
35.54
10.71
-17.95
-35.63
-33.73
-14.84
8.65
22.13
17.18
-3.39
-27.12
-39.31
-31.53
-6.58
22.98
42.08
41.60
23.46
-0.60
-16.04
-13.73
4.68
27.65
40.65
34.59
11.22
-17.72
-37.25
-37.85
-20.88
2.21
16.89
14.10
-4.35
-26.87
-39.03
-32.20
-8.60
19.69
37.84
36.70
17.96
-6.77
-22.98
-21.42
-3.49
19.52
33.12
28.07
5.72
-22.61
-42.17
-43.19
-26.40
-2.52
14.22
14.51
-0.81
-21.23
-32.95
-27.12
-5.09
22.15
40.26
39.74
21.43
-3.92
-21.87
-22.46
-5.81
17.66
33.43
31.16
10.71
-17.58
-38.87
-42.15
-26.59
-2.09
16.76
19.18
4.38
-17.97
-33.54
-31.86
-12.42
14.89
35.52
38.65
23.41
-0.65
-19.23
-21.52
-6.35
16.90
33.91
33.67
14.91
-12.92
-35.17
-40.26
-26.30
-2.28
17.46
21.55
8.20
-13.86
-30.67
-31.24
-14.02
12.18
33.28
38.05
24.51
1.08
-18.35
-22.41
-8.67
14.72
33.70
36.43
20.04
-7.39
-31.52
-39.75
-28.40
-4.99
16.36
23.15
11.77
-10.55
-29.93
-34.19
-19.83
5.83
28.96
37.27
27.06
5.34
-14.35
-19.81
-7.30
16.12
36.52
41.24
26.23
-1.43
-27.41
-38.28
-29.05
-6.19
16.33
25.13
15.08
-7.85
-30.13
-38.71
-28.39
-4.88
18.74
29.66
22.68
3.23
-15.91
-22.10
-10.22
14.23
38.09
48.21
38.99
15.71
-8.46
-20.17
-13.60
6.02
25.48
31.47
18.48
-7.87
-33.92
-45.97
-38.05
-15.42
8.54
20.15
13.26
-7.37
-28.83
-37.70
-27.80
-3.77
21.45
34.23
28.03
7.20
-15.55
-26.61
-19.46
1.49
23.37
32.56
22.72
-1.45
-26.67
-38.95
-31.51
-8.70
16.48
29.94
24.51
3.96
-19.25
-31.26
-24.68
-2.90
21.81
35.48
30.44
9.73
-14.68
-28.88
-25.10
-6.32
15.58
27.01
20.74
0.23
-22.26
-32.95
-24.71
-1.24
24.85
39.41
34.84
14.44
-9.39
-22.56
-17.20
3.75
27.92
40.75
33.69
9.22
-20.52
-40.49
-41.20
-24.05
-0.43
15.18
13.57
-3.98
-26.52
-40.05
-35.74
-15.16
10.68
27.85
27.57
11.28
-10.18
-23.11
-18.85
1.12
25.73
40.81
37.18
16.06
-11.34
-30.30
-30.84
-13.59
10.36
26.11
23.56
3.26
-23.76
-42.50
-42.59
-24.20
2.18
22.08
25.41
12.05
-8.17
-21.61
-18.75
0.25
25.48
43.04
43.09
25.52
0.25
-18.52
-20.45
-5.09
17.46
32.65
29.85
8.75
-20.26
-42.01
-45.26
-29.05
-3.30
17.20
21.34
7.92
-13.78
-29.60
-28.76
-10.08
17.34
39.41
45.03
32.42
10.01
-8.61
-12.63
-0.33
19.68
33.74
31.23
11.02
-17.59
-40.15
-45.37
-31.61
-7.88
11.59
15.61
2.53
-18.92
-34.76
-34.04
-15.18
12.90
35.75
41.71
28.39
4.04
-17.23
-23.55
-12.12
9.10
26.20
27.56
10.73
-15.98
-38.19
-43.94
-30.49
-5.95
15.39
21.54
9.60
-12.52
-30.78
-33.12
-16.49
11.31
36.06
45.14
34.77
11.98
-9.44
-17.03
-6.88
13.96
31.68
33.90
17.06
-11.37
-36.98
-46.69
-36.23
-12.39
10.89
20.80
12.86
-6.58
-24.23
-27.81
-13.16
13.07
37.14
46.10
35.25
10.83
-13.43
-24.25
-16.40
4.21
24.08
30.06
17.13
-8.71
-33.73
-44.54
-35.67
-12.70
11.04
22.33
15.60
-3.95
-23.41
-29.89
-17.99
6.89
31.38
42.05
33.01
9.46
-15.26
-27.34
-20.45
0.56
22.58
31.97
22.56
-0.96
-25.56
-37.59
-30.52
-8.55
15.80
29.17
24.91
6.86
-12.97
-21.55
-12.46
10.13
33.50
43.81
34.02
8.21
-20.55
-37.54
-34.72
-15.30
8.23
21.46
16.46
-3.81
-27.18
-39.57
-33.13
-10.77
15.46
31.56
29.66
12.46
-8.31
-19.05
-12.27
8.88
32.08
43.21
34.57
9.49
-19.25
-36.85
-34.77
-15.59
8.61
23.42
20.39
1.72
-21.02
-33.85
-28.35
-6.50
20.34
38.04
37.68
20.58
-2.53
-17.89
-16.65
-0.11
20.81
32.13
25.09
1.44
-27.21
-46.06
-45.63
-27.22
-2.21
14.80
14.44
-2.10
-23.78
-36.33
-30.62
-7.95
20.58
40.43
41.82
25.26
1.17
-16.24
-17.10
-1.45
20.55
34.80
31.37
10.49
-17.47
-37.84
-40.12
-24.06
0.22
18.23
19.68
4.42
-17.39
-31.38
-27.58
-6.31
21.71
41.51
42.42
24.25
-2.53
-22.93
-25.89
-10.61
12.92
29.86
29.09
9.67
-18.53
-40.55
-44.80
-29.73
-4.62
15.96
20.74
8.07
-13.18
-29.00
-28.57
-10.61
15.74
36.16
39.36
23.59
-2.28
-23.85
-29.40
-16.53
6.35
24.91
27.28
10.89
-15.87
-38.50
-44.71
-31.41
-6.69
15.18
22.07
11.07
-9.96
-27.07
-28.58
-11.95
14.66
37.01
43.14
30.20
6.17
-14.80
-20.52
-7.71
15.91
36.11
40.38
25.21
-1.95
-26.82
-36.52
-26.91
-4.94
15.65
22.46
11.55
-10.29
-29.60
-34.25
-20.42
5.08
28.73
38.02
28.55
6.57
-14.70
-22.69
-12.63
9.55
30.48
37.24
24.72
-1.20
-26.93
-38.96
-31.49
-9.88
12.68
22.95
15.36
-4.86
-24.82
-31.67
-20.12
4.40
28.80
39.89
31.93
9.93
-13.23
-24.31
-17.20
3.40
24.61
32.96
22.22
-2.90
-29.29
-43.05
-37.35
-16.37
7.22
19.92
15.17
-2.96
-22.19
-29.51
-18.80
5.45
30.54
42.87
35.79
13.43
-11.47
-24.99
-19.86
0.27
22.68
33.10
23.95
-1.21
-29.56
-46.34
-43.18
-22.89
2.38
18.23
16.46
-0.57
-21.28
-32.06
-25.07
-2.86
23.06
39.10
37.34
20.23
-0.91
-12.67
-7.34
12.38
34.61
45.47
37.12
12.59
-15.81
-33.52
-32.01
-13.68
9.62
23.68
20.09
1.02
-22.09
-35.35
-30.43
-9.32
16.63
33.41
32.30
14.76
-8.38
-23.39
-21.49
-4.08
18.03
31.11
26.51
5.92
-19.50
-35.64
-33.52
-14.45
10.59
27.53
27.21
10.61
-11.85
-26.47
-24.23
-6.05
17.49
32.34
28.97
7.89
-20.29
-40.93
-43.61
-27.89
-3.69
14.79
17.35
3.71
-16.35
-29.04
-24.81
-4.14
22.41
40.50
40.23
22.02
-3.59
-22.12
-23.42
-7.60
14.96
29.80
26.73
5.81
-22.47
-43.29
-45.89
-29.66
-4.52
15.08
18.58
5.35
-14.98
-28.39
-24.73
-3.82
24.15
44.49
46.32
28.82
1.78
-19.96
-25.03
-11.91
10.15
26.68
26.45
8.05
-19.18
-40.63
-44.88
-30.21
-5.65
14.40
18.59
5.08
-17.38
-34.64
-35.33
-17.41
10.52
34.15
41.63
30.18
7.69
-12.02
-17.20
-4.93
16.90
34.48
36.00
18.80
-9.00
-32.95
-40.56
-28.33
-3.70
19.28
28.22
19.31
-0.57
-18.09
-21.43
-7.19
17.34
38.36
43.52
29.10
2.28
-22.85
-33.31
-24.55
-3.09
17.52
24.65
13.94
-8.19
-28.35
-34.12
-21.15
4.06
27.85
37.24
27.25
3.75
-19.80
-30.17
-21.79
-0.05
21.66
29.82
18.51
-7.01
-33.22
-46.04
-38.81
-16.19
8.71
22.04
17.17
-1.60
-21.68
-29.72
-19.42
4.83
30.39
43.79
38.42
18.37
-3.99
-15.20
-8.53
12.03
33.91
43.41
33.57
8.43
-19.13
-34.84
-31.05
-11.08
12.69
26.35
22.43
4.19
-16.40
-25.92
-17.34
5.53
30.10
42.20
34.27
9.67
-18.92
-36.78
-35.45
-17.38
5.48
18.97
14.86
-4.24
-26.58
-38.27
-31.52
-9.28
16.28
31.06
27.10
7.27
-16.34
-29.62
-24.49
-3.66
20.67
34.02
27.83
4.46
-23.98
-42.57
-41.95
-23.65
0.81
16.87
15.39
-2.11
-24.36
-37.09
-31.39
-9.10
18.23
36.12
35.40
17.50
-6.33
-21.76
-19.52
-0.73
23.55
38.87
35.63
14.74
-12.74
-32.01
-32.89
-15.69
8.78
25.77
25.11
7.07
-17.76
-34.76
-33.78
-14.98
11.24
30.47
32.53
17.33
-5.27
-21.30
-20.76
-3.45
20.75
37.64
36.81
17.69
-9.92
-31.44
-35.71
-21.29
2.62
21.75
25.08
11.26
-10.66
-26.63
-25.95
-7.52
19.14
39.51
42.35
26.17
0.11
-21.38
-26.78
-14.16
7.68
24.45
24.66
6.45
-21.21
-43.60
-48.67
-33.88
-7.76
15.14
22.74
12.33
-8.02
-24.28
-24.94
-7.74
18.76
40.15
44.48
29.19
2.61
-20.72
-28.42
-17.31
4.76
23.56
26.86
11.59
-14.30
-36.45
-42.38
-28.75
-3.35
19.47
27.14
16.07
-6.24
-25.58
-29.33
-13.75
13.77
38.71
47.70
36.08
10.53
-14.79
-26.30
-18.66
2.08
22.23
28.57
16.15
-8.79
-32.32
-41.12
-30.24
-6.04
17.52
27.26
18.35
-2.83
-22.50
-27.67
-13.77
12.56
37.13
46.32
34.86
8.73
-18.09
-31.67
-25.84
-5.64
15.66
24.53
14.84
-8.43
-32.22
-42.99
-34.48
-11.46
13.00
25.31
19.09
-1.14
-22.58
-31.74
-22.27
1.14
25.45
36.79
28.58
5.37
-19.60
-32.16
-25.38
-3.59
20.00
31.18
23.04
-0.05
-24.85
-37.06
-29.51
-6.30
19.49
33.53
28.34
7.53
-16.35
-29.22
-23.48
-2.51
21.28
33.79
27.45
5.61
-19.26
-32.95
-27.78
-7.18
16.28
28.32
21.40
-0.90
-25.70
-38.34
-30.71
-5.92
23.36
42.17
41.65
23.84
0.39
-14.43
-11.84
6.31
28.48
40.44
33.51
9.72
-19.12
-38.25
-38.41
-21.07
2.47
17.80
15.84
-2.10
-24.94
-38.52
-33.75
-11.75
16.46
36.42
38.27
22.25
-1.45
-18.69
-19.41
-3.51
18.91
33.65
30.62
9.84
-18.42
-39.47
-42.64
-27.32
-3.14
15.73
18.90
5.59
-15.00
-29.31
-27.43
-8.87
16.93
36.03
38.03
22.03
-2.62
-21.79
-24.61
-9.76
13.43
30.57
30.56
12.08
-15.51
-37.51
-42.26
-27.76
-2.69
18.79
25.22
14.26
-6.10
-22.41
-23.66
-7.78
17.04
36.92
40.28
24.60
-1.97
-25.13
-32.52
-20.72
2.54
22.96
27.98
13.99
-11.48
-34.09
-41.00
-28.16
-2.67
21.43
31.40
23.00
2.79
-15.84
-20.61
-7.55
16.60
38.20
44.68
31.90
6.59
-17.39
-27.14
-18.13
3.02
22.51
27.48
13.59
-12.48
-36.72
-46.05
-35.67
-11.84
11.85
22.52
15.31
-3.94
-22.15
-26.82
-13.29
12.32
36.42
45.78
34.97
9.66
-16.59
-29.98
-24.19
-4.00
17.75
27.75
20.00
-0.80
-21.96
-30.34
-19.93
4.54
30.05
42.87
36.23
14.09
-10.96
-25.06
-20.95
-2.07
19.39
29.75
21.83
-0.72
-25.44
-38.41
-32.33
-10.87
13.37
26.42
21.08
1.14
-20.87
-31.16
-22.72
0.38
25.17
37.33
29.34
4.82
-23.32
-40.36
-38.03
-19.12
4.27
18.04
14.27
-4.19
-25.49
-35.92
-28.02
-5.11
20.54
34.93
30.39
10.09
-13.75
-26.99
-21.80
-1.21
22.46
34.76
27.48
3.41
-24.96
-42.73
-40.96
-21.67
3.27
19.30
17.66
0.32
-21.10
-32.37
-24.84
-0.74
28.02
46.70
46.02
27.46
2.32
-14.93
-14.86
1.42
22.91
35.36
29.60
6.98
-21.20
-40.30
-40.72
-23.47
0.51
16.79
15.90
-1.30
-24.07
-38.13
-34.01
-12.45
15.74
35.97
38.11
22.20
-1.59
-18.98
-19.74
-3.70
19.09
34.37
32.00
11.97
-15.44
-35.55
-37.70
-21.30
3.82
23.30
26.48
12.46
-9.51
-25.51
-25.10
-7.44
17.98
36.79
37.92
19.98
-7.69
-30.31
-36.07
-22.66
1.19
21.15
25.59
12.39
-9.96
-27.39
-28.55
-11.49
15.08
36.85
42.16
28.60
4.42
-16.33
-21.90
-9.57
12.60
30.53
32.25
14.98
-13.07
-37.27
-44.97
-32.64
-8.09
14.23
21.76
11.04
-10.28
-28.15
-30.47
-14.31
12.18
34.49
40.15
25.93
-0.32
-24.06
-32.60
-22.27
-0.46
18.77
23.07
9.01
-15.88
-37.51
-43.60
-30.64
-6.07
16.07
23.44
12.52
-9.43
-28.52
-32.34
-17.08
10.14
35.30
45.47
36.08
13.47
-8.80
-17.84
-8.80
12.33
32.28
38.38
25.92
1.03
-22.78
-32.35
-22.31
1.79
26.52
38.36
31.16
9.59
-13.58
-24.99
-18.39
1.72
22.60
30.85
20.22
-4.51
-30.14
-42.72
-35.57
-13.23
11.13
23.57
17.49
-2.52
-23.45
-31.60
-20.66
4.36
29.91
41.69
32.84
7.90
-19.67
-35.31
-31.56
-12.17
10.14
21.40
14.57
-6.44
-29.02
-39.45
-30.82
-7.22
18.52
32.30
26.75
5.48
-19.04
-32.62
-27.47
-6.65
17.68
31.41
26.68
6.35
-17.54
-30.96
-26.05
-5.83
17.59
30.10
24.02
2.52
-21.93
-34.89
-28.23
-4.72
23.29
41.22
40.42
23.00
0.48
-13.08
-9.23
9.89
32.58
44.58
37.33
13.11
-16.11
-35.49
-35.80
-18.62
4.60
19.47
17.07
-0.99
-23.46
-36.26
-30.56
-8.14
19.44
37.38
36.07
16.38
-10.64
-30.21
-32.18
-16.64
6.06
21.72
20.54
2.96
-20.59
-35.91
-33.30
-13.36
13.24
31.93
32.73
15.93
-8.10
-25.03
-24.90
-7.88
15.57
30.95
28.01
6.91
-21.67
-42.64
-45.00
-28.15
-2.44
17.14
19.57
4.06
-19.55
-36.69
-36.57
-18.40
8.32
29.42
34.24
21.71
0.78
-14.95
-15.19
1.14
25.06
42.74
43.49
25.99
-0.70
-22.29
-27.36
-13.92
9.12
27.28
28.87
11.78
-15.16
-37.30
-42.58
-28.41
-3.07
19.21
26.60
16.32
-3.89
-20.51
-22.30
-6.88
17.65
37.42
40.83
25.35
-0.81
-23.41
-30.30
-18.39
4.33
23.59
27.17
12.07
-13.72
-35.80
-41.76
-28.27
-3.04
19.82
28.01
18.09
-2.61
-20.39
-23.25
-7.92
18.08
40.54
46.73
32.72
5.71
-19.97
-31.01
-22.62
-1.38
18.76
24.71
11.85
-13.24
-36.64
-45.24
-34.33
-10.27
13.28
23.44
15.57
-4.18
-22.50
-26.89
-12.96
12.83
36.74
45.68
34.70
9.98
-14.75
-26.02
-18.32
2.61
23.28
30.40
18.63
-6.28
-30.77
-41.41
-32.62
-9.83
13.70
24.74
17.78
-1.85
-21.11
-27.03
-14.40
10.98
35.32
44.85
33.69
7.39
-20.09
-34.33
-28.59
-7.59
15.40
26.49
19.20
-2.02
-24.34
-34.44
-26.10
-3.85
19.69
31.36
25.05
5.24
-15.56
-24.23
-14.70
8.38
31.91
42.00
31.87
5.94
-22.55
-38.94
-35.37
-15.24
8.95
22.99
19.18
0.63
-20.57
-30.71
-22.48
0.68
26.33
40.35
35.09
13.81
-11.05
-25.12
-20.42
-0.03
23.53
35.76
28.51
4.90
-22.45
-38.82
-35.74
-15.84
8.72
23.65
20.78
2.70
-18.86
-30.19
-23.66
-2.40
21.32
33.31
25.61
1.21
-27.38
-45.33
-43.89
-25.19
-1.07
14.22
12.32
-4.34
-24.07
-33.06
-23.50
1.53
29.65
46.38
43.39
23.22
-2.04
-17.86
-15.46
3.11
26.12
39.13
33.25
10.31
-18.06
-37.19
-37.67
-20.69
2.77
18.47
17.22
0.07
-22.25
-35.79
-31.49
-10.35
16.75
35.55
36.40
19.74
-4.09
-20.92
-20.92
-4.28
18.79
34.06
31.69
12.09
-14.14
-32.29
-31.98
-13.15
13.61
33.41
35.49
19.35
-5.14
-23.53
-25.24
-9.77
13.07
29.04
27.78
8.89
-17.75
-37.79
-40.68
-25.58
-1.95
16.21
18.46
3.99
-17.96
-33.52
-32.26
-13.25
13.97
34.87
38.15
22.05
-4.34
-26.41
-32.22
-19.33
3.75
22.83
26.34
12.29
-10.69
-28.35
-29.30
-11.62
15.68
37.97
43.36
29.40
4.45
-17.27
-23.93
-12.82
8.11
24.96
26.12
9.12
-17.76
-40.24
-46.23
-32.80
-8.13
13.51
19.98
8.27
-13.86
-32.39
-35.38
-19.77
6.82
30.48
39.03
28.97
7.46
-11.85
-16.71
-3.29
21.35
43.13
49.07
34.63
6.61
-20.70
-33.53
-26.36
-5.09
16.64
25.62
16.76
-3.99
-23.24
-28.27
-14.52
11.42
35.53
44.44
33.12
7.71
-17.91
-30.08
-23.27
-3.09
16.95
23.59
11.53
-13.27
-37.05
-46.37
-35.80
-11.32
13.27
24.51
17.10
-3.06
-22.36
-27.62
-13.90
12.46
37.37
47.13
36.39
11.19
-14.44
-26.64
-19.71
0.64
20.80
27.41
15.37
-9.23
-32.60
-41.50
-30.90
-6.89
16.87
27.20
18.92
-2.29
-23.31
-31.24
-20.80
2.69
26.34
37.18
29.44
7.73
-15.68
-28.05
-23.34
-5.63
13.57
22.25
14.96
-4.07
-23.52
-31.80
-23.85
-3.99
16.58
26.42
20.33
2.24
-17.18
-26.74
-21.00
-3.41
15.77
25.44
19.91
2.17
-17.93
-29.32
-25.97
-10.40
7.99
18.49
15.21
0.54
-16.44
-25.33
-20.57
-4.61
13.48
23.39
19.49
4.10
-13.85
-24.00
-20.42
-5.10
13.13
23.71
20.37
4.76
-14.38
-26.24
-24.13
-9.30
9.70
22.14
21.32
8.43
-8.11
-17.79
-14.08
1.57
20.50
32.00
29.37
13.92
-5.78
-18.81
-18.14
-4.73
12.98
24.05
21.32
5.68
-14.33
-27.49
-26.38
-11.86
7.44
19.99
18.25
2.95
-17.13
-30.32
-28.78
-12.95
8.51
23.97
25.49
13.26
-4.52
-16.66
-15.47
-1.38
17.31
29.46
27.54
12.20
-8.03
-21.71
-21.03
-6.41
13.70
27.72
27.61
13.51
-6.39
-20.52
-20.64
-6.59
13.45
27.71
27.66
12.81
-8.81
-25.42
-28.24
-16.50
2.13
16.26
17.49
5.36
-12.48
-24.92
-23.88
-9.21
11.16
25.83
26.49
12.72
-7.78
-23.54
-25.95
-14.13
4.54
18.68
19.61
6.32
-13.74
-29.06
-30.72
-17.46
3.33
20.01
23.46
12.13
-6.94
-22.37
-24.93
-12.86
7.13
23.91
28.23
18.07
-0.27
-15.90
-19.65
-9.41
8.56
23.33
25.68
13.55
-6.69
-23.83
-28.33
-17.86
1.41
18.33
23.36
13.97
-3.91
-19.41
-23.15
-12.54
6.48
23.03
27.65
17.70
-1.05
-17.76
-22.87
-13.67
4.00
19.23
22.39
10.81
-9.59
-27.59
-33.20
-23.26
-3.26
15.89
24.21
18.25
2.91
-11.56
-15.69
-6.33
11.43
27.19
31.46
21.05
1.19
-17.51
-25.06
-17.87
-0.79
15.79
21.95
14.07
-3.21
-19.72
-25.68
-17.40
0.57
18.01
24.97
17.50
-0.13
-17.75
-25.22
-18.24
-0.85
16.83
24.57
17.86
0.62
-17.10
-25.00
-18.46
-1.39
16.11
23.71
16.84
-0.58
-18.41
-26.24
-19.41
-1.80
16.41
24.60
17.92
0.11
-18.59
-27.41
-21.20
-3.54
15.31
24.48
18.69
1.40
-17.32
-26.61
-21.10
-4.08
14.60
24.27
19.66
3.85
-13.55
-22.13
-16.69
-0.23
17.72
26.67
21.28
4.47
-14.17
-23.99
-19.26
-2.70
16.04
26.00
21.21
4.15
-15.63
-27.07
-23.90
-8.35
10.30
21.21
18.25
3.57
-13.69
-22.84
-17.90
-1.14
18.13
28.89
24.90
8.24
-11.71
-23.74
-21.21
-5.93
12.89
24.09
21.00
5.42
-13.56
-24.86
-21.82
-6.17
13.04
24.70
22.09
6.72
-12.56
-24.67
-22.62
-7.65
11.56
23.82
21.88
6.60
-13.46
-27.02
-26.50
-12.36
7.06
20.55
20.51
7.40
-10.58
-22.38
-20.48
-5.49
14.28
27.59
26.80
12.36
-7.51
-21.56
-21.99
-8.96
9.48
22.14
21.15
6.58
-13.59
-28.12
-28.97
-15.92
3.29
17.59
19.05
7.36
-9.91
-21.95
-20.91
-6.53
13.60
28.48
29.94
17.36
-2.03
-17.29
-20.02
-9.20
8.23
21.41
21.97
8.86
-10.92
-26.38
-28.89
-17.25
1.69
16.98
20.04
9.48
-8.01
-21.74
-23.22
-11.01
8.28
24.01
27.56
17.30
-0.50
-15.32
-18.48
-8.20
9.24
23.26
25.03
12.67
-7.53
-24.68
-29.53
-19.79
-1.37
15.06
20.39
12.29
-3.51
-16.72
-18.57
-7.01
11.83
27.27
30.30
18.74
-1.24
-18.68
-24.07
-14.79
3.29
19.30
23.61
13.36
-5.86
-23.29
-29.13
-20.18
-1.65
15.98
23.02
16.08
0.02
-15.04
-19.67
-10.64
7.06
23.10
27.92
18.27
-0.69
-18.39
-24.93
-16.78
1.03
17.91
23.86
15.27
-2.99
-20.44
-27.06
-19.02
-0.96
16.77
24.15
17.24
0.37
-16.34
-22.96
-15.51
1.66
18.38
24.65
16.42
-1.89
-19.97
-27.57
-20.46
-2.87
14.95
22.78
16.37
-0.13
-16.71
-23.28
-15.63
2.04
19.56
26.68
19.07
0.74
-18.08
-26.94
-21.22
-4.67
12.68
20.47
14.10
-2.56
-19.42
-26.15
-18.07
0.84
20.26
29.45
23.37
5.55
-13.90
-24.15
-19.75
-3.76
14.11
23.17
17.90
1.14
-17.61
-27.76
-23.75
-8.29
9.31
18.58
14.09
-1.44
-18.64
-27.11
-21.40
-4.21
15.05
25.81
22.36
7.14
-10.65
-20.45
-16.26
-0.34
18.18
28.59
24.70
8.51
-10.96
-22.80
-20.61
-6.10
11.92
22.64
19.62
4.52
-13.86
-24.66
-21.31
-5.35
14.23
26.29
23.91
8.33
-11.59
-24.63
-23.65
-9.72
8.46
19.84
17.52
2.97
-14.76
-24.47
-19.31
-1.07
20.58
33.69
30.82
13.42
-8.89
-23.76
-23.15
-8.02
12.23
25.04
22.12
4.20
-19.11
-34.94
-34.60
-18.50
3.84
19.47
19.61
4.74
-15.58
-28.34
-24.60
-4.82
21.27
40.23
42.48
27.76
5.15
-12.15
-14.48
-1.33
18.32
31.30
28.09
8.46
-18.07
-37.73
-40.50
-25.83
-3.10
14.01
15.56
1.02
-20.33
-34.91
-32.81
-13.47
13.83
35.29
40.39
27.72
5.66
-12.62
-16.70
-4.97
14.41
28.48
27.09
9.01
-17.16
-37.81
-42.20
-28.60
-5.34
14.05
18.71
6.63
-14.17
-30.47
-31.56
-15.40
9.93
30.95
36.56
24.27
1.79
-17.58
-22.58
-10.56
10.92
28.65
31.44
16.84
-7.47
-27.94
-33.00
-19.56
5.08
27.44
35.56
25.68
4.29
-15.67
-22.35
-11.83
9.51
28.63
33.53
20.19
-4.80
-27.99
-36.87
-26.98
-4.69
16.73
24.93
15.69
-4.68
-23.16
-27.78
-14.58
9.89
32.32
40.32
29.40
5.56
-18.12
-29.00
-22.09
-2.83
16.04
22.10
10.52
-12.96
-35.28
-43.69
-33.13
-9.34
14.40
25.12
17.54
-2.80
-22.87
-29.76
-18.19
6.30
30.54
41.26
32.80
10.23
-13.42
-24.88
-18.22
1.70
22.03
29.70
19.12
-4.49
-28.07
-38.38
-29.68
-7.13
16.25
27.27
20.02
-0.68
-22.17
-31.43
-22.44
0.10
23.56
34.68
27.22
5.53
-17.88
-29.65
-23.27
-3.01
18.69
28.38
19.68
-3.11
-27.15
-38.66
-30.66
-7.01
19.68
35.46
32.91
15.23
-5.73
-16.57
-10.09
10.28
32.44
42.77
34.00
9.62
-17.97
-34.58
-32.20
-13.54
9.75
23.95
21.28
4.14
-16.32
-27.05
-20.57
0.48
24.66
38.34
33.48
12.22
-14.05
-31.22
-30.42
-13.04
9.93
24.44
21.54
2.71
-20.87
-34.90
-30.26
-8.49
18.81
36.77
35.76
16.89
-8.61
-26.02
-25.66
-8.55
14.14
27.81
22.99
0.94
-26.79
-45.25
-44.66
-26.04
-0.71
16.44
15.66
-2.11
-25.68
-40.22
-35.75
-12.89
17.22
39.41
42.98
27.67
3.80
-13.95
-14.94
1.16
24.15
39.43
36.54
15.48
-13.14
-34.16
-36.54
-19.53
6.73
27.31
31.01
16.60
-6.62
-24.51
-26.32
-11.12
11.70
27.88
26.71
7.28
-20.66
-42.32
-46.33
-31.05
-5.68
15.33
20.70
8.77
-11.61
-26.55
-25.30
-6.62
20.20
40.77
43.79
27.60
1.09
-21.20
-27.59
-15.74
5.92
23.31
24.88
8.51
-17.26
-38.20
-42.69
-28.47
-3.99
16.55
21.55
8.69
-13.68
-31.42
-32.87
-15.46
12.43
36.37
44.05
32.23
8.59
-12.73
-19.34
-7.66
14.99
34.80
39.58
25.92
1.13
-20.90
-27.71
-15.35
9.28
32.42
41.25
31.03
7.67
-15.72
-26.45
-19.61
-0.78
17.06
21.39
7.49
-18.45
-42.72
-52.12
-41.39
-16.54
8.61
20.52
13.63
-6.45
-26.43
-33.14
-21.23
3.61
28.02
38.78
30.46
8.55
-13.69
-23.12
-14.38
6.88
27.30
33.73
21.02
-4.94
-30.40
-41.75
-33.27
-10.24
14.05
26.27
20.58
1.88
-17.10
-23.48
-11.65
13.09
37.47
47.78
37.70
12.01
-15.94
-31.78
-28.11
-8.55
14.47
27.15
22.40
3.79
-16.61
-25.52
-16.31
6.73
30.79
41.86
32.91
7.92
-20.07
-36.54
-33.78
-15.02
7.36
19.40
13.68
-6.33
-28.32
-38.58
-29.94
-6.05
20.47
35.55
31.71
12.27
-10.49
-22.65
-16.58
4.48
28.29
40.79
34.17
11.42
-15.29
-31.72
-29.62
-11.34
11.58
25.32
21.82
3.35
-18.86
-31.34
-26.19
-5.90
17.90
31.14
25.40
2.76
-25.03
-43.35
-42.97
-25.11
-0.87
15.49
14.91
-1.15
-21.58
-32.36
-24.76
-0.72
28.01
46.66
45.87
26.93
1.12
-16.88
-17.30
-0.88
21.63
35.88
32.22
11.29
-16.26
-36.03
-38.09
-22.62
0.22
16.34
16.00
-0.61
-23.49
-38.65
-36.31
-16.67
9.91
28.78
29.32
10.94
-16.36
-37.69
-41.74
-27.00
-2.69
16.87
20.75
7.76
-12.80
-26.86
-23.88
-3.24
25.00
46.08
48.97
32.85
7.57
-12.00
-14.62
0.84
24.65
42.01
41.63
22.31
-6.28
-29.18
-34.65
-20.73
3.63
23.89
28.34
14.70
-8.72
-28.00
-31.86
-18.32
3.98
20.87
21.07
2.81
-24.71
-46.57
-50.75
-34.92
-7.97
15.20
22.43
11.25
-9.75
-26.17
-26.17
-7.48
21.04
44.69
51.23
37.98
13.25
-8.43
-14.80
-2.96
18.88
36.36
37.32
19.13
-9.78
-34.67
-42.94
-31.34
-7.74
13.46
19.84
7.99
-14.54
-33.69
-37.15
-21.62
5.02
28.12
34.63
20.51
-6.72
-32.24
-42.35
-32.06
-7.94
15.85
26.00
17.77
-2.31
-20.49
-23.97
-8.55
18.51
42.75
50.83
38.36
12.47
-12.15
-21.86
-11.98
10.45
30.81
35.51
19.96
-8.67
-35.49
-46.46
-36.28
-11.35
13.89
25.55
17.99
-3.05
-23.93
-31.24
-19.59
5.08
28.81
37.80
26.27
0.02
-26.79
-39.83
-32.66
-10.39
13.35
24.71
17.69
-2.35
-21.96
-27.66
-14.05
12.63
38.05
48.03
36.83
10.52
-16.24
-28.83
-20.95
1.84
25.31
35.07
24.79
-0.13
-25.83
-38.07
-30.37
-7.63
16.67
28.54
21.49
0.16
-22.29
-32.01
-22.42
1.70
26.89
38.67
29.79
4.52
-23.65
-39.77
-35.84
-15.29
9.02
22.58
17.66
-2.24
-24.53
-35.07
-26.55
-3.09
21.99
33.94
25.10
-0.53
-29.30
-45.79
-41.59
-19.95
6.13
21.63
18.24
-0.93
-23.23
-34.07
-25.35
-0.27
28.37
45.81
43.71
24.92
1.87
-10.82
-4.77
17.13
42.19
55.36
47.76
22.04
-9.01
-29.67
-30.09
-11.77
13.43
30.28
29.06
10.90
-12.93
-27.94
-24.90
-5.48
18.55
32.17
25.92
1.41
-29.13
-49.89
-50.41
-31.46
-4.71
14.35
15.31
-1.13
-23.68
-37.31
-32.11
-9.19
19.77
39.46
39.68
21.27
-4.42
-22.30
-22.28
-5.19
17.67
31.22
25.53
1.71
-28.39
-49.10
-49.89
-31.29
-4.70
14.61
16.39
1.28
-19.65
-31.65
-25.01
-0.89
29.16
49.86
50.83
32.46
5.65
-14.51
-17.37
-2.71
19.05
33.18
29.25
7.35
-21.73
-42.80
-45.06
-28.34
-3.32
14.83
15.45
-1.54
-25.36
-40.82
-37.09
-14.09
17.32
41.53
47.00
32.69
8.49
-10.70
-13.61
0.84
22.80
37.50
33.96
11.62
-19.11
-42.75
-47.64
-32.61
-7.52
12.55
16.24
2.31
-19.66
-35.01
-32.70
-11.63
18.33
42.05
47.75
33.57
8.73
-11.94
-16.49
-2.70
20.54
38.55
39.50
21.39
-6.68
-29.67
-35.28
-20.88
4.82
27.04
33.37
20.88
-2.44
-22.39
-27.04
-13.79
9.03
26.96
27.98
9.56
-19.50
-44.01
-51.19
-37.70
-11.83
11.54
19.69
9.30
-11.57
-28.53
-29.35
-11.28
17.03
40.61
46.79
32.56
6.34
-16.85
-24.16
-12.34
10.27
28.80
30.62
12.81
-15.98
-40.57
-48.09
-35.25
-10.23
12.16
19.29
7.81
-14.43
-33.06
-35.66
-18.85
9.47
34.67
43.73
32.56
8.36
-14.65
-23.34
-13.31
8.58
28.39
33.31
19.29
-6.61
-30.09
-38.06
-26.08
-0.93
23.28
33.44
24.85
3.94
-15.60
-20.90
-7.41
18.16
41.49
48.96
35.42
7.43
-20.40
-33.65
-26.26
-4.07
18.72
27.98
17.77
-6.15
-29.82
-39.31
-28.73
-3.82
21.50
33.22
25.43
3.55
-18.71
-27.54
-17.07
7.06
30.78
39.82
27.81
0.31
-28.34
-43.14
-36.92
-14.34
10.81
23.95
18.25
-1.53
-21.89
-28.83
-16.21
10.24
36.15
46.84
35.90
8.98
-19.30
-33.84
-27.78
-6.23
16.72
26.55
16.80
-7.27
-31.73
-42.43
-33.11
-9.12
15.61
26.94
18.48
-4.63
-28.75
-39.70
-30.80
-6.75
19.01
32.26
26.05
4.73
-18.60
-29.80
-21.85
0.88
25.29
37.11
29.26
5.93
-19.69
-33.08
-26.63
-3.88
22.34
37.59
34.03
14.82
-7.69
-19.36
-12.51
9.45
33.79
45.91
37.76
12.66
-16.44
-34.46
-32.71
-13.76
10.02
23.97
19.64
-0.44
-24.25
-37.56
-32.20
-11.16
13.16
26.06
19.14
-4.84
-33.23
-50.84
-48.62
-28.64
-2.95
13.76
12.74
-3.76
-23.83
-33.27
-23.81
1.74
30.97
49.12
47.44
28.18
3.30
-12.59
-10.60
7.30
29.35
41.05
33.66
9.37
-19.67
-38.43
-37.67
-19.28
4.86
19.85
16.55
-3.20
-27.46
-41.38
-35.69
-12.08
17.48
37.81
38.96
21.91
-2.15
-18.39
-16.93
1.34
24.99
38.95
33.14
8.60
-22.86
-45.34
-47.88
-30.57
-4.42
15.30
17.95
3.46
-17.76
-31.22
-26.89
-5.15
23.37
43.96
46.31
30.38
6.39
-11.29
-12.55
2.58
23.73
36.44
30.78
7.34
-22.81
-44.43
-46.87
-30.15
-5.02
13.51
14.82
-1.20
-24.12
-39.13
-35.73
-13.75
16.19
38.87
43.05
27.87
3.29
-15.79
-18.12
-2.71
20.43
36.39
34.09
12.95
-16.63
-39.13
-42.94
-26.92
-0.98
19.80
24.02
10.36
-11.74
-27.81
-26.82
-7.72
19.82
40.94
44.13
27.87
1.61
-19.72
-24.29
-10.16
13.24
30.87
30.80
11.29
-18.04
-41.74
-47.42
-32.72
-6.67
15.80
22.61
11.32
-9.60
-25.92
-26.12
-8.17
19.20
41.47
46.77
32.73
7.95
-13.05
-18.25
-5.22
17.21
34.15
33.43
12.91
-18.05
-43.82
-51.53
-38.37
-13.18
8.88
15.25
3.13
-18.99
-36.43
-37.01
-18.15
11.56
37.14
45.86
34.47
10.87
-10.45
-16.93
-5.25
16.56
33.96
34.56
15.54
-14.43
-40.02
-48.21
-35.66
-10.62
11.93
19.21
7.89
-14.04
-32.10
-33.85
-16.13
12.98
38.73
48.19
37.60
14.42
-7.04
-14.00
-2.71
19.25
37.42
39.05
20.78
-9.18
-35.63
-45.15
-33.78
-9.24
13.54
21.35
10.09
-12.88
-33.12
-37.63
-22.25
5.82
32.16
43.38
34.69
12.47
-9.50
-18.11
-8.57
12.72
31.95
36.19
21.06
-6.47
-31.96
-41.95
-31.74
-8.16
14.41
22.51
11.37
-12.25
-34.04
-40.61
-27.16
-0.43
24.98
35.05
24.28
-1.10
-26.74
-38.39
-29.99
-7.23
15.74
24.73
13.80
-11.38
-36.64
-47.59
-37.98
-13.25
12.77
26.03
20.29
0.61
-19.70
-27.11
-15.63
9.67
35.43
47.83
40.35
17.61
-7.22
-20.08
-13.90
7.18
30.00
40.15
30.24
4.30
-24.30
-40.53
-36.18
-14.63
11.22
26.57
23.17
3.94
-18.82
-30.97
-24.64
-2.93
22.05
36.32
32.29
13.13
-8.96
-20.11
-12.88
9.14
33.07
44.33
35.19
9.36
-19.85
-37.27
-34.52
-14.90
8.64
21.33
15.25
-6.11
-29.84
-41.34
-32.77
-7.70
20.90
38.26
36.17
17.53
-5.30
-18.02
-12.54
8.28
32.05
44.30
36.81
12.49
-16.16
-34.26
-33.05
-14.97
7.82
20.85
15.81
-4.57
-28.11
-40.39
-33.37
-10.10
16.92
33.04
29.91
10.24
-13.65
-27.30
-22.28
-1.19
23.54
36.96
30.14
5.46
-24.56
-44.34
-43.99
-24.91
0.88
17.91
16.19
-3.23
-28.78
-45.25
-42.53
-21.47
6.72
27.13
29.71
14.91
-6.57
-20.41
-16.89
3.38
29.65
47.35
46.43
27.34
0.88
-18.08
-19.18
-2.63
20.51
35.03
30.41
7.15
-23.28
-45.11
-47.33
-29.98
-4.12
14.87
16.30
0.31
-22.31
-36.57
-32.06
-9.05
21.56
44.52
48.84
33.97
9.99
-8.44
-10.60
4.11
25.58
39.19
34.40
11.20
-19.69
-42.86
-47.11
-31.93
-7.81
10.19
11.26
-4.80
-27.46
-41.83
-37.57
-15.07
14.61
36.06
38.40
21.50
-3.86
-22.42
-23.09
-5.24
20.70
39.39
39.33
19.63
-9.56
-32.69
-37.73
-23.02
1.62
20.90
22.92
6.05
-20.06
-40.17
-42.40
-25.10
2.29
24.79
30.61
17.91
-4.25
-21.35
-21.87
-4.01
23.15
44.78
48.87
33.05
6.15
-16.87
-23.54
-11.03
11.92
30.25
31.37
12.68
-16.78
-41.47
-48.39
-34.48
-8.44
14.54
21.73
10.07
-12.10
-30.10
-31.58
-13.68
15.22
40.30
48.79
37.23
13.37
-8.51
-15.84
-5.15
15.78
32.63
33.13
14.43
-15.02
-40.15
-48.11
-35.55
-10.66
11.73
18.88
7.42
-14.78
-33.21
-35.47
-18.37
10.01
34.88
43.23
31.26
6.51
-16.57
-24.95
-14.54
7.36
26.40
29.77
13.71
-14.09
-38.84
-47.23
-35.09
-9.93
13.67
22.49
12.33
-9.70
-29.29
-33.54
-18.33
9.26
34.82
44.98
34.97
11.38
-11.69
-20.75
-10.62
12.46
34.35
41.30
27.98
0.65
-26.28
-38.50
-30.05
-6.92
16.59
26.31
16.34
-7.50
-31.16
-40.73
-30.42
-5.94
19.04
30.89
23.96
3.75
-16.35
-23.05
-10.80
14.80
40.16
51.57
43.16
20.29
-3.59
-14.79
-7.45
12.91
32.63
38.19
24.27
-2.97
-29.29
-40.78
-31.92
-8.84
14.32
23.74
13.89
-9.30
-31.96
-40.49
-29.35
-4.26
20.82
31.90
22.80
-1.21
-26.58
-39.17
-32.36
-10.92
11.80
21.83
12.84
-10.31
-34.24
-44.97
-36.18
-12.78
11.97
24.42
18.27
-1.81
-23.05
-32.21
-23.06
0.08
25.04
38.76
34.77
16.63
-4.17
-15.04
-9.36
9.72
31.06
42.09
36.05
15.90
-7.39
-21.28
-18.82
-2.81
15.98
25.36
18.92
-0.16
-20.94
-31.27
-25.03
-5.77
15.34
26.06
20.21
1.19
-20.01
-31.36
-26.60
-8.81
11.44
22.37
17.81
0.68
-18.85
-29.35
-24.67
-7.63
11.75
22.22
17.78
1.13
-18.02
-28.58
-24.57
-8.50
10.25
20.95
17.59
2.29
-16.03
-26.94
-24.33
-9.86
8.23
19.84
18.83
6.43
-9.67
-19.83
-17.94
-4.94
11.70
22.38
20.98
8.36
-8.15
-19.00
-17.99
-5.91
10.01
20.38
19.07
6.76
-9.41
-20.03
-18.90
-6.65
9.63
20.40
19.30
6.80
-9.88
-21.06
-20.03
-7.07
10.42
22.20
21.04
7.13
-11.88
-25.22
-25.09
-11.49
7.71
21.35
21.47
7.97
-11.19
-24.60
-24.05
-9.31
11.70
27.57
29.95
18.35
0.45
-12.45
-12.06
2.14
22.36
37.07
37.56
23.12
1.56
-15.30
-18.45
-6.99
11.10
23.66
21.64
4.43
-19.47
-37.34
-39.69
-25.77
-4.18
12.37
14.37
1.19
-18.58
-32.15
-30.10
-11.90
13.59
33.03
36.29
22.16
-0.80
-19.33
-22.90
-9.77
11.74
28.18
28.73
11.68
-14.50
-35.80
-40.71
-26.97
-2.94
17.33
22.31
9.50
-13.08
-31.63
-34.78
-20.04
4.74
26.11
32.75
22.06
1.57
-15.43
-17.75
-2.74
22.06
42.97
48.13
34.23
8.77
-14.40
-22.76
-12.30
9.82
29.48
33.81
18.76
-8.47
-33.39
-42.67
-31.93
-8.38
13.42
20.26
7.85
-16.62
-38.70
-45.37
-32.51
-7.25
16.27
25.22
15.65
-5.44
-24.09
-27.79
-12.72
13.96
37.95
46.16
34.11
8.69
-15.94
-26.35
-17.46
4.31
24.91
30.94
17.52
-8.94
-34.27
-44.84
-35.40
-12.10
11.21
21.19
12.55
-8.86
-29.60
-36.66
-24.90
-0.02
24.74
36.33
29.43
9.51
-10.36
-17.25
-5.77
18.55
42.30
52.02
41.97
17.62
-7.60
-19.99
-13.52
6.53
26.67
33.33
20.85
-5.30
-31.47
-43.91
-36.62
-14.81
8.33
19.39
12.38
-7.94
-28.84
-37.37
-27.67
-4.40
19.89
32.04
25.85
5.63
-16.19
-26.37
-18.29
4.09
28.15
40.08
32.68
9.71
-16.28
-31.14
-27.18
-7.76
14.56
25.61
17.89
-5.13
-30.74
-44.51
-38.68
-16.57
9.33
24.84
22.14
4.22
-16.98
-27.76
-20.65
1.40
26.62
41.31
37.82
18.84
-3.93
-16.95
-12.43
7.03
29.56
41.12
33.56
9.58
-18.69
-36.59
-35.30
-17.02
6.11
19.36
13.97
-7.83
-33.84
-49.22
-45.08
-23.61
3.17
20.68
20.12
3.60
-17.17
-27.96
-20.42
3.07
30.66
47.79
45.70
26.36
1.56
-14.21
-11.85
7.10
31.04
45.22
40.12
17.13
-12.20
-32.78
-34.55
-18.42
4.22
18.28
14.03
-7.38
-34.28
-51.52
-49.45
-29.65
-4.12
12.07
9.51
-9.97
-34.35
-48.52
-43.08
-19.71
9.98
31.10
33.96
19.37
-1.90
-15.77
-12.74
6.73
32.25
49.79
49.58
31.87
6.69
-11.89
-13.95
0.49
21.26
34.10
29.17
6.89
-22.04
-42.78
-44.92
-28.54
-4.37
12.81
12.66
-4.80
-29.22
-45.90
-44.38
-24.25
4.68
28.04
35.13
24.67
5.42
-9.29
-9.26
6.74
30.04
47.27
48.05
31.22
5.58
-15.14
-20.15
-7.91
12.64
27.47
25.73
6.20
-21.85
-43.86
-48.48
-34.08
-9.94
9.51
12.96
-1.24
-24.14
-41.43
-41.86
-23.58
4.77
29.07
37.84
28.54
8.90
-7.76
-10.38
3.64
26.69
45.42
48.55
33.50
8.06
-14.03
-20.94
-9.67
11.82
29.26
30.44
12.38
-16.70
-41.95
-50.39
-38.30
-13.50
9.39
17.38
6.46
-16.15
-36.26
-41.08
-26.40
0.93
26.94
38.67
31.34
11.13
-8.66
-15.35
-4.18
18.76
40.09
47.01
34.85
9.88
-14.27
-24.58
-16.28
4.16
22.80
26.67
11.39
-16.11
-41.48
-51.40
-41.25
-17.86
4.72
13.44
3.78
-17.75
-37.35
-42.25
-27.84
-0.38
26.52
39.79
34.17
15.13
-4.52
-12.07
-2.23
19.63
40.52
47.47
35.25
9.48
-16.35
-28.63
-21.52
-0.58
20.41
27.67
15.38
-10.90
-37.28
-49.71
-41.96
-19.21
5.24
17.74
12.13
-6.91
-26.67
-34.10
-23.17
1.62
27.77
42.13
38.29
20.25
0.05
-9.30
-1.32
20.10
42.55
52.40
42.64
17.15
-11.39
-28.61
-26.57
-8.49
13.00
23.35
14.52
-10.34
-38.47
-54.94
-51.23
-30.27
-4.64
10.99
8.37
-9.53
-30.27
-39.54
-29.73
-4.44
23.47
39.48
35.85
16.05
-7.12
-19.22
-12.29
10.61
37.02
52.43
48.38
27.33
1.17
-15.70
-14.40
3.30
25.81
38.54
32.31
8.64
-20.90
-41.27
-42.57
-25.78
-2.31
12.78
9.59
-10.92
-37.38
-54.70
-52.98
-33.31
-7.12
10.78
10.80
-5.85
-27.86
-40.71
-35.12
-12.45
16.13
36.21
38.39
23.58
2.42
-11.15
-7.91
11.52
36.78
53.82
52.90
34.19
7.74
-12.27
-15.46
-1.26
20.67
35.98
33.97
13.81
-14.81
-37.13
-41.81
-27.49
-3.88
14.21
15.42
-1.49
-26.93
-46.12
-47.98
-31.59
-6.82
11.69
13.19
-2.98
-26.81
-43.57
-42.40
-22.30
7.22
31.71
39.92
29.97
10.22
-5.75
-7.06
8.38
32.49
51.63
54.46
38.56
11.96
-11.42
-19.50
-9.08
12.18
30.12
32.43
15.84
-11.89
-36.24
-44.40
-32.75
-9.26
11.30
16.02
1.29
-24.90
-47.67
-53.98
-40.27
-14.52
8.57
16.18
4.84
-17.59
-36.52
-39.30
-22.36
6.77
33.69
45.53
38.00
17.81
-1.51
-7.43
4.46
27.78
49.03
55.48
42.61
16.75
-8.45
-19.80
-12.14
8.48
28.33
34.08
20.58
-6.11
-32.08
-43.64
-35.27
-12.92
9.56
18.64
8.90
-13.85
-35.93
-44.10
-33.28
-9.58
13.30
22.21
12.18
-10.58
-32.24
-39.47
-26.84
0.05
27.75
42.63
38.50
19.93
-0.55
-9.86
-1.71
19.65
41.69
50.91
40.59
14.83
-13.59
-30.36
-27.65
-8.86
13.31
24.34
16.34
-7.36
-33.93
-48.60
-43.34
-21.65
3.44
17.24
11.94
-8.81
-31.94
-42.91
-34.24
-9.96
16.83
31.65
27.07
6.88
-15.96
-27.19
-19.20
4.65
31.83
48.01
45.02
25.48
1.14
-13.95
-11.44
6.46
28.17
39.56
32.23
8.48
-19.86
-38.17
-37.43
-19.57
3.59
17.47
13.14
-7.53
-32.83
-48.08
-44.12
-22.48
5.55
25.57
28.25
14.45
-5.38
-17.58
-13.15
7.04
32.55
49.41
48.12
29.17
2.98
-16.19
-18.23
-2.94
19.43
34.35
31.32
10.19
-18.69
-40.27
-43.50
-27.83
-3.70
13.73
13.46
-5.02
-31.33
-50.36
-51.17
-33.39
-7.48
11.70
13.42
-2.60
-26.09
-42.22
-40.30
-19.74
9.69
33.43
40.47
29.39
9.05
-6.92
-7.87
7.73
31.29
49.23
50.84
34.64
9.24
-11.50
-16.47
-3.73
18.03
34.64
34.70
16.26
-11.96
-35.43
-42.15
-29.61
-6.29
13.38
17.47
3.23
-21.18
-41.49
-45.67
-30.72
-4.41
19.30
28.22
18.97
-1.28
-18.99
-22.28
-7.75
17.39
39.33
45.72
32.75
7.60
-15.72
-24.33
-13.80
9.03
30.11
36.32
23.29
-2.21
-25.95
-34.64
-23.70
-0.10
21.71
28.40
15.37
-10.52
-34.88
-44.26
-33.90
-10.35
12.41
21.19
11.12
-11.72
-33.82
-42.26
-32.04
-8.92
13.99
23.84
15.38
-5.97
-27.16
-35.11
-24.02
1.21
27.64
41.74
37.09
17.93
-3.27
-13.25
-5.45
16.03
38.56
48.53
39.20
14.58
-12.59
-28.25
-24.95
-6.26
15.27
25.63
17.40
-5.94
-31.81
-45.97
-40.68
-19.15
6.39
21.86
19.49
2.15
-18.24
-27.91
-19.18
5.03
32.71
49.53
47.03
27.38
2.31
-13.86
-12.08
6.16
29.44
43.20
37.99
15.11
-14.04
-34.50
-36.30
-20.34
2.06
15.86
11.37
-10.23
-37.28
-54.57
-52.36
-32.15
-5.88
11.32
9.91
-8.56
-32.31
-46.37
-41.32
-18.47
10.96
32.49
36.55
23.65
3.83
-9.50
-7.29
10.11
33.05
48.30
46.71
28.49
3.31
-15.08
-16.66
-0.83
23.00
40.72
41.64
24.58
-1.30
-21.89
-26.08
-12.27
10.48
27.91
28.75
11.27
-15.55
-37.27
-42.34
-28.81
-5.63
12.76
14.87
-1.12
-26.32
-46.24
-49.44
-34.15
-9.38
10.44
13.95
-0.59
-24.22
-42.49
-43.94
-26.47
1.46
25.77
34.77
25.76
6.43
-9.78
-11.55
3.81
28.60
49.14
53.62
38.97
12.80
-10.93
-19.75
-9.73
12.14
32.03
37.42
24.32
-0.39
-22.92
-30.65
-19.45
3.67
24.57
30.34
16.66
-9.61
-34.19
-43.80
-33.70
-10.47
11.89
20.15
9.45
-13.95
-36.24
-44.29
-33.17
-8.94
14.79
24.88
16.13
-5.70
-27.17
-34.97
-23.36
2.50
29.47
44.00
39.74
21.04
0.35
-9.20
-1.23
20.04
42.01
51.15
40.85
15.32
-12.56
-28.56
-25.20
-6.12
15.90
26.53
18.15
-5.63
-32.00
-46.42
-41.10
-19.69
4.90
18.14
12.33
-9.05
-33.29
-46.05
-39.56
-17.00
9.49
26.01
24.82
8.66
-10.93
-20.55
-12.70
9.98
35.98
51.41
47.94
27.53
1.50
-15.91
-15.43
1.87
25.02
39.50
35.51
13.81
-14.65
-34.99
-36.84
-20.43
3.36
19.61
18.00
-1.20
-27.23
-45.20
-44.94
-26.92
-2.15
14.47
12.89
-6.29
-31.99
-49.17
-47.46
-27.11
1.34
23.09
27.59
14.42
-6.62
-21.42
-19.68
-0.86
25.45
45.17
47.77
32.31
8.09
-10.82
-13.57
1.32
24.90
43.06
44.70
28.12
2.05
-19.33
-24.54
-11.40
11.55
29.92
31.86
14.88
-12.62
-36.06
-43.04
-30.65
-7.17
12.85
17.07
2.62
-22.25
-43.03
-47.60
-33.38
-8.80
11.76
16.54
3.16
-19.88
-38.27
-40.20
-22.96
5.56
31.34
42.25
34.68
15.43
-2.40
-7.05
5.32
28.21
48.43
53.68
39.68
12.85
-13.19
-25.17
-17.76
3.17
23.89
30.79
18.37
-7.53
-32.95
-44.00
-35.03
-12.17
10.42
18.97
8.12
-15.86
-38.80
-47.10
-35.74
-11.14
12.74
22.72
13.94
-7.39
-27.65
-33.92
-21.23
4.72
30.81
44.01
38.70
19.73
-0.49
-9.23
-0.61
20.84
42.54
51.21
40.48
14.71
-13.25
-29.32
-26.09
-7.32
14.19
24.08
14.81
-9.94
-37.22
-52.35
-47.46
-26.14
-1.32
12.56
7.89
-11.76
-33.76
-44.08
-35.55
-11.91
14.36
29.54
26.44
8.50
-12.26
-22.48
-15.14
6.63
31.17
45.25
41.52
22.76
0.21
-12.85
-8.67
10.55
33.79
47.46
43.18
22.59
-3.44
-21.04
-21.07
-4.36
18.56
33.66
31.39
12.17
-13.64
-31.82
-32.39
-15.46
8.48
24.85
23.37
4.05
-22.70
-42.13
-43.82
-27.71
-4.24
11.95
10.64
-7.92
-33.06
-49.95
-48.40
-28.92
-2.40
16.22
16.73
-0.57
-24.96
-41.71
-40.43
-20.83
7.21
29.54
35.71
24.76
5.64
-8.39
-7.41
9.49
33.42
51.01
52.06
35.57
10.48
-9.31
-12.87
1.47
24.96
43.31
45.04
28.12
1.21
-21.26
-27.35
-14.49
8.80
27.91
30.52
13.70
-14.18
-38.29
-45.75
-33.07
-8.28
13.84
20.34
7.58
-16.74
-38.22
-44.29
-31.55
-7.80
12.71
17.77
4.35
-19.62
-39.80
-44.06
-29.42
-3.82
18.33
24.67
11.74
-12.87
-34.97
-41.83
-29.16
-3.52
21.64
33.57
27.46
8.95
-9.23
-14.83
-2.95
20.87
43.92
53.60
44.70
22.47
-0.33
-10.82
-3.26
17.39
38.18
45.76
34.09
8.03
-19.19
-33.64
-28.64
-8.56
13.53
23.76
15.43
-7.09
-30.85
-42.01
-34.01
-11.54
12.07
22.64
13.42
-11.00
-37.18
-50.74
-44.44
-22.39
2.49
16.12
11.33
-8.11
-29.69
-39.63
-30.78
-6.64
20.53
37.02
35.31
18.33
-2.37
-13.44
-7.37
13.16
36.87
50.37
45.96
26.07
2.01
-12.50
-9.16
10.15
34.19
48.87
45.31
24.89
-1.41
-19.44
-19.84
-3.47
18.76
32.46
27.92
5.81
-22.99
-43.62
-45.72
-29.46
-5.62
10.91
9.74
-8.96
-34.53
-52.06
-51.26
-32.55
-6.88
10.65
9.75
-9.14
-34.96
-52.51
-51.22
-31.10
-2.68
19.29
24.16
11.37
-9.38
-23.96
-21.96
-2.54
25.07
46.90
52.23
39.57
17.47
-0.55
-3.69
10.03
32.40
49.88
51.41
34.93
8.68
-13.51
-20.10
-8.55
12.92
30.12
31.13
13.30
-15.09
-39.45
-47.34
-35.58
-12.31
7.99
12.95
-0.53
-24.50
-44.64
-48.76
-34.01
-8.53
13.21
18.98
5.75
-18.49
-39.32
-44.26
-29.70
-2.91
22.20
33.03
25.37
5.66
-12.79
-17.60
-4.27
21.05
45.08
55.05
46.00
23.69
1.27
-8.30
0.37
21.77
42.52
49.22
36.22
8.95
-18.87
-33.09
-27.17
-5.93
17.06
27.60
18.89
-4.44
-29.13
-40.99
-33.27
-10.75
13.00
23.58
14.14
-10.61
-37.05
-50.58
-43.96
-21.44
3.89
17.91
13.51
-5.38
-26.17
-35.22
-25.85
-2.02
23.74
37.91
33.59
14.48
-7.37
-18.66
-12.30
8.50
32.08
45.03
39.82
19.12
-5.65
-20.91
-18.40
-0.01
23.18
37.31
33.68
13.72
-11.62
-28.23
-26.92
-8.79
14.99
29.88
26.36
5.46
-21.60
-40.01
-39.91
-22.24
1.67
16.87
13.54
-7.28
-34.19
-52.02
-50.72
-31.22
-4.81
13.50
13.73
-3.47
-27.18
-42.86
-40.63
-20.87
6.11
26.22
29.69
16.53
-3.48
-16.69
-13.61
5.76
31.62
50.10
51.20
34.52
9.64
-9.38
-11.88
3.31
27.12
45.37
47.01
30.39
4.27
-17.26
-22.82
-10.25
12.00
29.85
31.83
15.71
-10.08
-31.31
-36.14
-22.05
2.45
22.87
27.01
12.10
-13.60
-35.55
-41.44
-28.23
-4.06
16.70
21.80
8.19
-16.27
-37.50
-43.51
-31.41
-8.95
9.99
13.78
-0.21
-23.97
-43.52
-47.06
-31.79
-5.63
17.38
25.13
14.29
-7.75
-27.25
-31.97
-18.04
7.86
32.41
43.27
36.05
16.72
-1.99
-8.05
3.13
25.84
47.33
55.16
44.28
20.00
-4.82
-17.19
-11.21
8.42
28.92
37.12
26.95
3.05
-21.82
-34.17
-27.65
-6.91
15.02
24.33
14.45
-10.05
-35.93
-48.99
-42.29
-20.28
3.83
15.94
9.19
-12.16
-35.21
-46.17
-38.32
-15.76
9.07
22.85
19.02
1.43
-17.92
-26.14
-16.80
6.38
31.58
45.72
41.87
23.19
1.15
-11.02
-5.83
14.19
37.82
51.52
47.20
26.83
1.36
-15.69
-15.80
-0.31
20.08
31.80
26.18
4.52
-22.42
-40.65
-40.94
-24.30
-1.58
12.96
9.98
-9.49
-34.58
-50.92
-49.10
-30.32
-5.69
10.39
8.62
-9.81
-33.80
-48.90
-45.58
-24.48
4.11
26.22
32.11
21.48
3.39
-9.30
-7.42
9.40
32.40
48.71
48.82
32.00
7.05
-12.70
-16.68
-3.17
19.47
37.58
39.99
24.52
-0.58
-21.41
-26.39
-13.07
10.10
28.81
31.21
14.83
-11.86
-34.34
-40.59
-28.03
-5.04
14.06
17.58
3.16
-20.93
-40.62
-44.34
-29.73
-4.95
16.14
21.91
9.60
-13.09
-32.48
-36.70
-22.20
4.28
29.57
41.53
35.69
17.64
-0.49
-7.21
1.94
21.64
39.95
45.38
33.61
10.12
-12.90
-23.53
-16.87
1.99
20.97
28.19
18.86
-1.91
-22.21
-30.24
-21.43
-1.25
17.94
24.11
12.64
-10.88
-33.74
-43.44
-34.84
-13.24
8.83
18.88
11.61
-8.10
-28.01
-35.87
-26.42
-4.46
17.97
28.77
22.63
4.05
-15.36
-23.80
-16.06
3.63
24.08
33.65
26.98
8.00
-12.37
-22.60
-16.98
1.02
20.86
30.93
25.35
7.33
-12.67
-23.07
-17.64
0.70
21.33
32.24
26.80
7.62
-14.91
-28.57
-26.36
-10.53
8.74
19.42
14.71
-3.07
-23.74
-35.19
-30.54
-12.28
9.32
22.11
19.08
2.20
-18.71
-31.90
-30.36
-15.60
3.52
16.07
15.29
2.25
-14.94
-26.07
-24.61
-11.19
6.82
19.51
20.11
8.68
-8.00
-20.34
-21.36
-10.56
5.72
18.10
19.59
9.76
-5.11
-15.71
-15.11
-2.99
13.91
25.86
25.78
13.37
-4.60
-18.10
-19.66
-8.65
8.28
21.14
22.26
10.75
-6.92
-20.60
-22.33
-11.06
6.80
21.03
23.47
12.80
-4.57
-18.24
-19.87
-7.91
11.32
27.35
31.45
21.76
4.31
-10.50
-13.90
-3.72
14.19
29.23
32.19
20.58
0.21
-18.06
-24.43
-15.86
2.02
18.14
22.47
11.91
-7.85
-25.62
-31.21
-21.46
-2.34
14.62
19.12
8.00
-12.74
-31.42
-37.43
-27.40
-7.18
11.65
18.51
9.86
-8.72
-25.76
-30.70
-20.02
0.77
20.29
27.97
20.12
2.12
-14.81
-20.09
-9.86
10.77
30.70
39.15
31.83
13.42
-5.25
-13.39
-6.33
11.69
29.86
37.06
28.27
7.48
-14.51
-26.22
-22.07
-5.68
12.19
20.02
12.29
-7.32
-28.00
-38.14
-32.08
-13.56
6.57
16.74
11.33
-6.15
-25.08
-34.09
-27.54
-8.78
11.94
23.44
19.96
4.43
-13.25
-22.05
-16.17
1.73
21.97
33.45
29.95
13.76
-5.67
-17.21
-14.31
1.18
20.06
31.10
27.56
11.10
-9.17
-22.02
-20.48
-5.95
12.45
23.24
19.25
1.75
-20.20
-35.02
-35.25
-21.96
-4.19
6.52
2.91
-13.74
-34.23
-46.88
-44.38
-28.29
-8.22
3.80
0.21
-17.74
-40.68
-56.67
-58.05
-45.71
-28.49
-17.97
-21.93
-39.95
-63.79
-82.26
-87.58
-79.58
-65.71
-56.78
-60.89
-79.03
-104.77
-128.00
-140.44
-139.82
-130.45
-119.77
-113.81
-113.85
-116.37
-115.83
-108.42
-94.40
-77.65
-63.06
-52.84
-45.56
-37.06
-22.62
0.10
29.53
60.53
86.29
101.37
105.29
102.96
102.71
111.83
131.96
157.15
176.31
179.37
163.97
138.83
119.19
118.72
142.03
182.45
226.34
261.36
283.32
292.10
294.14
295.79
298.62
298.64
289.42
267.02
232.86
192.63
153.81
122.55
100.44
85.08
72.05
57.71
40.93
23.36
7.63
-3.46
-8.31
-7.92
-5.45
-4.79
-8.95
-18.75
-31.37
-44.88
-56.68
-64.44
-67.41
-66.61
-64.16
-62.31
-62.80
-66.90
-76.23
-91.10
-110.10
-130.02
-146.17
-153.88
-150.44
-136.71
-114.46
-91.15
-74.32
-68.11
-72.01
-82.10
-93.85
-104.21
-112.25
-118.40
-123.71
-127.91
-129.96
-129.13
-125.64
-120.86
-116.74
-114.86
-115.72
-119.10
-123.53
-127.23
-128.94
-128.13
-125.19
-120.88
-115.75
-109.84
-102.93
-94.28
-83.11
-69.98
-54.50
-36.90
-17.91
1.57
20.61
38.38
54.37
68.51
81.08
92.64
103.43
113.35
121.89
128.40
132.60
135.12
137.42
140.91
145.93
150.87
152.60
147.94
135.35
115.82
92.32
68.28
45.99
26.00
7.81
-8.62
-21.90
-29.73
-30.53
-24.99
-16.42
-9.43
-7.49
-11.34
-18.38
-24.26
-25.37
-21.04
-13.97
-8.63
-8.45
-13.72
-21.40
-26.75
-26.18
-19.45
-9.88
-2.47
-0.88
-5.36
-12.61
-17.70
-16.97
-10.29
-1.15
5.33
5.48
-0.82
-9.90
-16.37
-16.20
-9.05
1.59
10.23
12.45
7.32
-2.04
-10.30
-12.86
-8.48
0.09
7.67
9.65
4.74
-4.27
-12.12
-14.06
-8.62
1.44
10.65
14.04
9.90
0.80
-7.91
-11.16
-7.04
2.08
10.92
14.45
10.69
1.85
-6.97
-10.72
-7.34
1.09
9.59
13.14
9.60
0.88
-8.10
-12.32
-9.52
-1.46
7.13
11.25
8.47
0.33
-8.55
-13.22
-11.15
-3.71
4.62
8.88
6.48
-1.20
-9.67
-13.83
-11.00
-2.42
7.25
12.67
10.92
3.15
-5.99
-11.03
-8.83
-0.49
9.29
14.87
12.98
4.60
-5.58
-11.79
-10.62
-2.95
6.60
12.36
10.95
3.20
-6.29
-11.88
-10.23
-2.25
7.39
12.99
11.07
2.42
-8.25
-15.07
-14.29
-6.35
4.31
11.85
12.27
5.70
-3.81
-10.65
-10.89
-4.52
4.55
10.79
10.34
3.26
-6.46
-13.22
-13.00
-5.83
4.23
11.38
11.45
4.31
-5.99
-13.50
-13.85
-6.81
3.59
11.40
12.15
5.42
-4.87
-12.78
-13.80
-7.46
2.43
10.05
10.96
4.70
-4.94
-12.16
-12.55
-5.55
5.12
13.67
15.48
9.79
0.02
-8.28
-10.53
-5.74
2.92
10.06
11.24
5.53
-3.96
-11.80
-13.42
-7.78
1.96
10.27
12.46
7.41
-1.82
-9.74
-11.62
-6.37
2.91
10.73
12.39
6.75
-3.12
-11.73
-14.33
-9.63
-0.46
7.85
10.61
6.38
-2.22
-10.12
-12.74
-8.52
0.15
8.34
11.48
7.92
-0.16
-8.03
-11.18
-7.87
-0.11
7.51
10.52
7.16
-0.59
-8.20
-11.16
-7.56
0.64
8.84
12.29
8.94
0.61
-7.96
-11.84
-8.73
-0.35
8.53
12.89
10.27
2.28
-6.37
-10.64
-8.07
-0.16
8.54
13.05
10.90
3.43
-4.99
-9.54
-7.72
-0.68
7.47
12.00
10.31
3.35
-4.89
-9.73
-8.47
-1.90
6.10
10.82
9.46
2.78
-5.34
-10.10
-8.58
-1.41
7.45
12.99
12.07
5.18
-3.84
-9.93
-9.72
-3.51
4.95
10.63
10.14
3.65
-5.15
-11.27
-11.24
-5.16
3.41
9.55
9.76
4.05
-4.09
-9.71
-9.31
-2.85
6.07
12.25
11.85
4.72
-5.39
-12.88
-13.48
-6.74
3.56
11.57
12.70
6.38
-3.65
-11.53
-12.65
-6.37
3.51
11.10
11.90
5.40
-4.58
-12.15
-12.82
-6.09
4.16
11.99
12.84
6.12
-4.39
-12.71
-14.11
-7.84
2.50
11.01
12.89
7.13
-2.91
-11.47
-13.71
-8.45
1.18
9.57
11.85
6.67
-2.92
-11.35
-13.59
-8.09
2.28
11.78
15.09
10.33
0.09
-9.99
-14.44
-11.05
-2.13
6.89
10.70
7.14
-1.57
-10.18
-13.48
-9.43
-0.34
8.51
11.93
7.84
-1.56
-11.00
-15.22
-11.99
-3.32
5.76
10.07
7.28
-0.81
-9.31
-13.16
-9.99
-1.42
7.83
12.72
10.74
3.30
-5.08
-9.44
-7.14
0.58
9.23
13.79
11.56
3.82
-4.92
-9.47
-7.07
0.95
9.85
14.23
11.30
2.52
-7.14
-12.08
-9.38
-0.62
9.08
14.06
11.40
2.54
-7.52
-13.23
-11.64
-4.10
4.68
9.40
7.24
-0.55
-9.39
-14.13
-11.98
-3.98
5.52
11.35
10.41
3.38
-5.74
-11.95
-11.96
-6.05
2.27
8.25
8.71
3.78
-3.27
-7.96
-7.23
-1.26
6.54
11.56
10.59
3.81
-5.30
-11.85
-12.30
-6.50
2.23
8.91
9.83
4.56
-3.75
-10.19
-10.93
-5.45
3.24
10.31
11.89
7.25
-0.83
-7.74
-9.67
-5.81
1.30
7.27
8.50
4.17
-3.17
-9.24
-10.47
-6.00
1.72
8.37
10.22
6.31
-1.01
-7.32
-8.71
-4.12
4.00
10.96
12.55
7.56
-1.40
-9.33
-11.57
-6.57
3.07
12.12
15.62
11.74
2.75
-6.25
-10.33
-7.54
0.01
7.49
10.21
6.37
-1.79
-9.34
-11.51
-6.57
3.10
12.34
16.08
12.24
2.94
-6.70
-11.48
-9.05
-1.25
7.06
10.75
7.46
-1.06
-9.96
-14.13
-11.09
-2.51
6.65
11.05
8.00
-0.93
-10.73
-15.81
-13.20
-4.29
5.94
11.85
10.43
2.97
-5.70
-10.05
-7.24
1.20
10.27
14.52
11.23
2.07
-7.89
-13.08
-10.69
-2.28
7.20
12.24
9.93
1.56
-8.06
-13.49
-11.70
-3.79
5.70
11.34
9.91
2.31
-7.04
-12.67
-11.24
-3.46
6.25
12.31
11.20
3.55
-6.25
-12.55
-11.66
-4.03
5.94
12.54
12.02
4.71
-5.13
-11.81
-11.49
-4.38
5.38
12.11
11.90
4.82
-5.08
-12.12
-12.24
-5.45
4.29
11.28
11.44
4.66
-5.10
-12.18
-12.48
-5.82
3.99
11.42
12.39
6.62
-2.26
-8.92
-9.40
-3.39
5.59
12.17
12.25
5.36
-4.99
-13.29
-15.05
-9.39
0.44
8.89
11.28
6.50
-2.35
-9.80
-11.11
-5.15
4.89
13.33
15.30
9.61
-0.56
-9.46
-12.07
-7.04
2.54
11.02
13.40
8.25
-1.43
-9.98
-12.37
-7.12
2.85
11.84
14.71
9.73
-0.34
-9.91
-13.77
-10.04
-1.25
7.19
10.16
5.78
-3.40
-12.03
-15.01
-10.47
-0.90
8.26
11.78
7.70
-1.57
-10.58
-13.99
-9.66
0.07
9.73
13.90
10.30
1.16
-8.18
-12.20
-8.51
0.74
10.12
14.02
9.95
-0.02
-10.32
-15.11
-11.64
-1.88
8.66
14.08
11.56
2.91
-6.47
-10.86
-7.59
1.43
10.83
14.96
11.20
1.43
-9.01
-14.45
-12.07
-3.39
6.57
12.15
10.26
2.07
-7.72
-13.54
-12.11
-4.35
5.13
10.70
9.00
0.93
-8.81
-14.39
-12.29
-3.35
7.49
14.13
12.83
4.36
-6.39
-13.21
-12.20
-3.95
6.80
13.93
13.53
6.03
-4.05
-10.76
-10.23
-2.83
7.08
13.73
13.22
5.84
-4.17
-11.09
-11.03
-4.20
5.17
11.34
10.33
2.32
-8.35
-15.78
-15.78
-8.26
2.67
10.98
12.25
6.11
-3.58
-10.95
-11.54
-4.86
5.28
12.95
13.60
6.72
-3.84
-12.05
-13.13
-6.41
4.24
12.62
13.82
7.12
-3.68
-12.32
-13.80
-7.26
3.48
12.21
13.93
7.71
-2.77
-11.40
-13.25
-7.36
2.75
11.18
13.12
7.60
-2.01
-10.00
-11.72
-6.26
3.00
10.36
11.19
4.56
-6.01
-14.62
-16.32
-9.89
1.33
11.28
14.62
9.78
-0.20
-9.43
-12.54
-7.74
2.08
11.09
13.91
8.74
-1.59
-11.18
-14.41
-9.26
1.53
11.99
16.41
12.54
2.81
-7.05
-11.41
-8.00
0.82
9.55
12.71
8.07
-1.99
-11.91
-16.13
-12.32
-2.64
7.41
12.18
9.03
-0.14
-10.00
-14.89
-11.94
-2.79
7.34
12.69
10.22
1.44
-8.55
-13.88
-11.36
-2.34
8.00
13.72
11.60
3.02
-6.87
-12.06
-9.30
-0.04
10.36
15.86
13.16
3.66
-7.25
-13.44
-11.50
-2.70
7.79
13.93
12.21
3.64
-6.86
-13.37
-12.32
-4.46
5.65
12.21
11.50
4.07
-5.75
-12.31
-11.86
-4.75
4.79
11.13
10.54
3.43
-5.91
-11.77
-10.37
-2.14
8.30
14.98
13.91
5.51
-5.58
-13.10
-12.80
-4.93
5.87
13.23
12.77
4.54
-6.91
-15.11
-15.44
-7.78
3.53
12.11
13.25
6.58
-3.80
-11.73
-12.60
-6.01
4.04
11.59
12.12
5.24
-5.05
-12.79
-13.46
-6.55
4.06
12.33
13.55
7.00
-3.57
-12.11
-13.72
-7.42
3.18
11.99
13.94
7.95
-2.51
-11.24
-13.00
-6.52
4.64
14.18
16.74
10.91
0.15
-9.30
-12.03
-6.67
3.36
12.01
14.09
8.30
-1.92
-10.55
-12.59
-6.90
3.06
11.35
12.96
6.72
-3.94
-13.09
-15.62
-10.08
0.43
10.02
13.37
8.69
-1.31
-10.99
-14.96
-11.15
-1.96
7.10
10.68
6.66
-2.66
-11.86
-15.55
-11.52
-2.09
7.33
11.41
7.99
-0.71
-9.35
-12.72
-8.76
0.22
8.98
12.47
8.70
-0.05
-8.62
-12.00
-8.17
0.73
9.71
13.70
10.53
2.07
-6.82
-11.10
-8.37
-0.27
8.51
12.85
10.25
2.24
-6.54
-10.94
-8.36
-0.31
8.45
12.73
9.92
1.53
-7.68
-12.48
-10.16
-2.16
6.80
11.53
9.34
1.46
-7.55
-12.55
-10.69
-3.01
6.16
11.69
10.58
3.58
-5.18
-10.61
-9.58
-2.68
6.16
11.83
11.08
4.37
-4.39
-10.16
-9.66
-3.26
5.18
10.65
9.90
3.36
-5.14
-10.62
-9.82
-3.15
5.49
10.99
10.00
2.84
-6.64
-13.23
-13.34
-7.06
1.86
8.28
8.53
2.57
-6.10
-12.42
-12.72
-6.87
1.78
8.34
9.20
4.10
-3.72
-9.45
-9.52
-3.68
4.83
11.08
11.32
5.12
-4.23
-11.64
-13.00
-7.56
1.63
9.51
11.81
7.57
-0.44
-7.44
-9.37
-5.25
2.24
8.49
9.69
5.08
-2.63
-8.87
-9.86
-4.81
3.58
10.67
12.56
8.30
0.45
-6.36
-8.05
-3.54
4.69
11.96
14.09
9.77
1.39
-6.38
-9.25
-5.75
1.85
9.01
11.49
7.84
0.26
-6.75
-9.08
-5.40
2.08
8.80
10.61
6.18
-2.16
-9.71
-12.14
-7.98
0.49
8.45
11.36
7.60
-0.62
-8.50
-11.36
-7.39
1.25
9.63
12.88
8.98
-0.02
-9.08
-13.04
-9.52
-0.41
9.20
13.96
11.25
2.76
-6.44
-10.83
-7.75
1.07
10.45
14.77
11.24
1.65
-8.64
-13.81
-11.00
-2.01
7.68
12.13
8.45
-1.41
-11.76
-16.52
-12.63
-2.02
9.48
15.46
12.66
2.82
-8.37
-14.49
-12.18
-2.98
7.50
12.96
10.03
0.29
-10.70
-16.49
-13.56
-3.41
8.28
14.92
12.80
3.18
-8.34
-15.05
-13.04
-3.45
8.18
15.10
13.19
3.41
-8.75
-16.44
-15.37
-6.17
5.91
13.99
13.59
5.13
-6.27
-13.81
-12.88
-3.84
8.10
15.87
14.68
4.91
-8.13
-17.11
-16.88
-7.62
5.33
14.56
14.90
6.33
-6.00
-14.86
-15.14
-6.86
4.90
13.10
12.85
4.22
-7.80
-16.24
-16.26
-7.94
3.85
12.24
12.37
4.18
-7.52
-15.94
-16.15
-7.91
4.22
13.45
14.64
7.29
-4.26
-13.31
-14.60
-7.35
4.28
13.60
15.31
8.55
-2.64
-11.74
-13.44
-6.84
4.07
12.82
14.26
7.58
-3.36
-12.21
-13.99
-7.90
2.26
10.40
11.75
5.47
-4.79
-13.15
-14.83
-8.90
1.35
10.25
12.99
8.30
-0.81
-8.88
-11.12
-6.07
3.47
12.04
14.63
9.61
-0.23
-9.33
-12.45
-7.81
1.89
10.99
14.20
9.71
0.15
-8.89
-12.13
-7.61
2.13
11.61
15.58
11.92
2.82
-6.52
-10.84
-7.89
0.39
9.01
12.81
9.48
0.84
-8.06
-12.00
-8.60
0.23
9.37
13.42
9.84
0.51
-9.33
-14.12
-11.14
-2.12
7.72
12.66
9.78
0.74
-9.21
-14.19
-11.09
-1.44
9.37
15.22
12.77
3.53
-7.02
-12.61
-9.76
0.04
11.10
16.98
14.20
4.36
-6.77
-12.57
-9.49
0.80
12.30
18.17
14.71
3.54
-9.23
-16.49
-14.20
-3.75
8.85
16.41
14.69
4.79
-7.51
-15.14
-13.91
-4.82
6.45
12.99
10.60
0.43
-11.77
-18.90
-16.61
-5.85
7.61
16.40
15.74
6.13
-6.90
-16.01
-16.14
-7.42
4.94
13.53
13.16
3.89
-8.95
-17.81
-17.27
-7.31
6.53
16.27
16.21
6.29
-7.78
-17.73
-17.54
-7.08
7.65
18.03
17.91
7.17
-8.15
-19.28
-19.89
-9.77
5.06
15.92
16.50
6.41
-8.45
-19.40
-20.03
-9.87
5.38
17.24
19.23
10.60
-3.28
-14.12
-15.55
-6.71
7.19
18.00
19.24
9.97
-4.63
-16.31
-18.48
-9.97
4.21
15.70
17.68
8.77
-6.04
-18.27
-20.80
-11.96
3.39
16.61
20.42
13.01
-0.92
-12.96
-15.88
-7.91
6.06
17.49
19.14
9.39
-6.67
-20.14
-23.36
-14.50
1.31
15.00
18.76
10.48
-4.99
-18.73
-22.99
-15.63
-1.25
11.61
15.48
8.23
-5.88
-18.80
-23.43
-17.55
-4.82
7.51
12.75
8.54
-2.15
-12.88
-17.56
-13.78
-3.93
6.30
11.29
8.70
0.64
-7.68
-10.98
-6.86
2.78
12.85
18.07
15.89
7.93
-0.97
-5.50
-2.92
5.35
14.53
19.27
16.75
8.27
-1.44
-6.92
-5.24
2.31
10.95
15.25
12.30
3.49
-6.26
-11.34
-8.84
-0.28
9.23
13.93
10.75
1.10
-9.83
-16.19
-14.69
-6.50
3.42
9.24
7.58
-0.53
-10.34
-16.10
-14.43
-6.26
3.65
9.53
7.91
-0.26
-10.21
-16.05
-14.16
-5.40
5.37
12.09
11.12
3.20
-6.82
-12.87
-11.17
-2.48
8.36
15.33
14.62
6.89
-3.16
-9.51
-8.41
-0.46
9.77
16.36
15.50
7.68
-2.61
-9.51
-9.13
-1.81
8.12
14.77
14.07
6.15
-4.74
-12.64
-13.24
-6.39
3.80
11.27
11.55
4.31
-6.40
-14.51
-15.35
-8.38
2.43
10.93
12.38
6.17
-3.84
-11.56
-12.18
-5.08
5.80
14.34
15.69
9.09
-1.64
-10.32
-12.03
-5.96
4.16
12.23
13.33
6.62
-4.13
-12.71
-14.10
-7.40
3.58
12.46
13.92
6.86
-4.96
-15.02
-17.71
-11.53
0.02
10.41
13.93
8.89
-1.40
-10.63
-13.17
-7.35
3.45
12.82
15.09
8.66
-3.01
-13.36
-16.47
-10.59
0.85
11.22
14.54
8.88
-2.48
-12.96
-16.47
-10.98
0.33
11.04
15.08
10.30
-0.37
-10.63
-14.50
-9.77
0.77
10.98
14.90
10.24
-0.28
-10.47
-14.34
-9.52
1.30
11.85
15.92
11.02
-0.13
-11.17
-15.74
-11.17
-0.08
11.12
16.00
11.84
1.12
-9.91
-14.91
-11.11
-0.90
9.64
14.33
10.49
0.47
-9.82
-14.31
-10.43
-0.51
9.63
14.13
10.46
0.85
-8.99
-13.35
-9.75
-0.37
9.23
13.39
9.52
-0.32
-10.66
-15.75
-12.78
-3.45
7.03
12.81
10.80
2.36
-7.51
-13.04
-10.97
-2.44
7.70
13.60
11.90
3.54
-6.73
-13.12
-12.07
-4.31
5.51
11.62
10.37
2.45
-7.48
-13.51
-11.87
-3.24
7.59
14.46
13.45
5.22
-5.33
-11.83
-10.19
-1.07
10.43
17.75
16.61
7.52
-4.55
-12.97
-13.34
-5.96
4.44
11.56
11.19
3.62
-6.52
-13.10
-12.12
-4.01
6.55
13.40
12.41
3.97
-7.30
-15.15
-15.27
-7.71
3.15
11.06
11.47
4.15
-6.72
-14.94
-15.80
-8.80
2.06
10.60
12.13
6.09
-3.63
-11.01
-11.40
-4.35
6.11
13.85
14.29
6.99
-4.01
-12.53
-13.83
-7.33
3.08
11.35
12.74
6.57
-3.43
-11.22
-12.04
-5.20
5.53
14.06
15.49
8.91
-2.02
-11.15
-13.40
-7.65
2.71
11.64
13.99
8.41
-1.84
-10.85
-13.46
-8.19
1.85
10.83
13.52
8.40
-1.52
-10.41
-13.05
-7.86
2.22
11.30
14.11
9.06
-0.87
-9.86
-12.63
-7.59
2.22
10.97
13.35
7.82
-2.57
-11.88
-14.68
-9.31
1.19
10.77
13.95
8.88
-1.53
-11.22
-14.51
-9.37
1.40
11.76
15.92
11.53
1.09
-9.54
-14.56
-11.49
-2.46
7.04
11.40
8.10
-0.88
-10.22
-14.46
-11.04
-1.84
7.84
12.35
8.96
-0.50
-10.74
-15.93
-13.09
-3.91
6.21
11.37
8.61
-0.32
-9.99
-14.43
-10.75
-0.87
9.57
14.60
11.34
1.74
-8.55
-13.46
-10.02
-0.10
10.76
16.47
13.87
4.57
-5.96
-11.54
-8.85
0.75
11.88
18.19
16.00
6.43
-5.22
-12.51
-11.51
-3.11
7.47
13.80
11.99
3.02
-7.87
-14.27
-12.30
-3.06
8.03
14.49
12.55
3.35
-7.73
-14.19
-12.24
-2.97
8.23
14.88
13.10
3.83
-7.66
-14.80
-13.56
-4.76
6.42
13.45
12.23
3.47
-7.75
-14.93
-13.97
-5.50
5.46
12.52
11.53
3.06
-8.02
-15.38
-14.86
-6.77
4.27
11.96
12.07
4.73
-5.61
-12.78
-12.49
-4.84
5.62
12.61
11.74
3.21
-8.31
-16.23
-15.84
-7.14
5.12
14.14
15.04
7.56
-3.76
-12.26
-13.01
-5.67
5.30
13.42
13.81
6.08
-5.47
-14.25
-15.29
-7.95
3.74
13.36
15.74
9.83
-0.77
-9.95
-12.62
-7.64
1.62
9.32
10.62
4.60
-5.17
-12.82
-13.62
-6.81
3.85
12.30
13.76
7.48
-2.80
-11.10
-12.55
-6.22
4.32
13.12
15.25
9.58
-0.60
-9.47
-12.08
-7.14
2.18
10.15
11.85
6.04
-4.08
-12.67
-14.68
-8.85
1.53
10.53
13.03
7.63
-2.49
-11.45
-14.15
-9.17
0.44
9.00
11.43
6.28
-3.58
-12.61
-15.92
-11.85
-2.96
5.61
9.17
6.06
-1.44
-8.62
-11.08
-7.28
0.50
7.56
9.60
5.18
-3.32
-11.07
-13.49
-8.94
0.32
9.44
13.72
11.29
4.08
-3.39
-6.63
-3.85
3.14
10.09
12.80
9.53
2.01
-5.52
-8.81
-5.98
1.43
9.32
13.30
11.22
4.34
-3.34
-7.40
-5.44
1.45
9.36
13.76
12.20
5.74
-1.68
-5.53
-3.38
3.53
10.99
14.31
11.09
2.77
-6.17
-10.67
-8.13
0.01
9.10
13.88
11.54
3.39
-5.89
-10.92
-8.81
-0.85
8.26
12.99
10.31
1.45
-8.70
-14.40
-12.41
-3.90
6.06
11.52
9.04
-0.13
-10.77
-16.69
-14.29
-4.77
6.52
13.20
11.57
2.80
-7.79
-13.81
-11.57
-2.29
8.62
14.74
12.33
2.55
-9.23
-16.43
-15.14
-6.32
4.80
11.73
10.40
1.53
-9.80
-17.18
-16.57
-8.65
1.70
8.17
6.81
-1.61
-12.07
-18.22
-16.14
-6.59
5.29
12.98
12.41
4.34
-6.09
-12.40
-10.45
-0.99
10.77
18.14
16.86
7.52
-4.73
-13.13
-13.15
-5.08
6.16
14.00
13.94
6.13
-4.80
-12.48
-12.55
-5.20
5.11
12.25
11.99
4.48
-5.89
-13.09
-12.98
-5.66
4.56
11.60
11.11
3.06
-8.19
-16.34
-16.72
-8.92
2.80
11.97
13.57
7.01
-3.68
-12.10
-13.25
-6.49
4.12
12.20
12.96
5.93
-4.74
-12.73
-13.25
-5.94
4.95
13.12
13.85
6.69
-4.22
-12.63
-13.82
-7.27
3.10
11.25
12.49
6.15
-4.05
-12.22
-13.76
-7.95
1.63
9.19
10.06
3.46
-7.04
-15.56
-17.29
-11.18
-0.68
8.27
10.71
5.47
-4.17
-12.42
-14.36
-8.78
1.16
9.80
12.38
7.70
-1.26
-9.08
-11.13
-6.18
2.99
11.23
14.03
10.04
1.77
-5.81
-8.22
-3.97
4.61
12.66
15.60
11.71
3.21
-5.01
-8.27
-4.72
3.52
11.53
14.53
10.59
1.81
-6.91
-10.71
-7.54
0.68
9.20
13.24
10.79
3.59
-3.90
-7.19
-4.39
2.71
9.69
12.18
8.42
0.34
-7.52
-10.63
-7.12
1.01
9.03
12.22
8.57
0.08
-8.35
-11.67
-7.70
1.60
11.21
15.89
13.15
4.70
-4.57
-9.42
-7.29
0.34
8.78
12.89
10.08
1.79
-7.34
-12.19
-10.06
-2.32
6.39
10.82
8.22
-0.02
-9.20
-14.02
-11.63
-3.44
5.76
10.64
8.44
0.61
-8.06
-12.29
-9.36
-0.86
8.28
12.68
9.69
0.91
-8.56
-13.11
-9.88
-0.47
9.88
15.26
12.46
2.84
-8.34
-14.94
-13.44
-4.93
5.52
11.70
9.92
1.12
-9.65
-16.21
-14.80
-6.32
4.08
10.10
7.94
-1.34
-12.43
-18.85
-16.62
-6.69
5.55
13.40
12.76
4.39
-6.53
-13.48
-12.35
-3.88
6.79
13.23
11.43
2.18
-9.33
-16.48
-15.12
-5.93
5.98
14.04
13.99
6.31
-4.17
-11.12
-10.47
-2.62
7.77
14.51
13.46
4.94
-6.50
-14.66
-15.26
-8.28
1.99
9.44
9.71
2.70
-7.37
-14.46
-14.17
-6.41
4.46
12.23
12.50
5.25
-5.16
-12.48
-12.27
-4.47
6.62
14.84
15.78
9.15
-1.06
-8.93
-10.07
-4.07
5.44
12.81
13.69
7.47
-2.35
-10.22
-11.70
-5.98
3.58
11.34
12.64
6.52
-3.65
-12.09
-13.95
-8.02
2.39
11.46
14.18
9.27
-0.17
-8.49
-10.75
-5.67
3.72
11.83
13.83
8.49
-1.12
-9.41
-11.48
-6.05
3.77
12.36
14.68
9.33
-0.67
-9.52
-12.12
-6.94
3.00
11.78
14.12
8.40
-2.23
-11.76
-14.71
-9.35
1.21
10.77
13.63
8.04
-2.81
-12.56
-15.38
-9.43
1.96
12.21
15.43
9.75
-1.52
-11.88
-15.37
-10.18
0.41
10.07
13.07
7.65
-3.04
-12.79
-16.02
-10.95
-0.48
9.40
13.14
8.71
-1.17
-10.65
-14.10
-9.34
1.01
10.96
14.56
9.46
-1.69
-12.67
-17.26
-12.82
-1.92
9.20
14.24
10.53
0.50
-9.84
-14.35
-10.50
-0.75
9.01
13.02
8.94
-0.73
-10.23
-13.91
-9.57
0.20
9.68
13.29
8.80
-1.27
-11.13
-15.11
-10.87
-0.75
9.57
14.29
10.80
1.27
-8.72
-13.29
-9.64
0.30
10.97
16.36
13.48
4.07
-6.48
-12.17
-9.84
-1.05
8.86
14.02
11.33
2.32
-7.77
-13.05
-10.42
-1.41
8.80
14.35
12.09
3.45
-6.44
-11.70
-9.17
-0.20
10.09
15.71
13.31
4.06
-6.90
-13.53
-12.27
-4.07
6.02
11.89
9.88
1.03
-9.54
-15.55
-13.26
-3.79
7.45
13.83
11.51
1.59
-10.33
-17.43
-15.65
-6.07
5.71
12.99
11.72
2.88
-8.17
-14.88
-13.31
-4.39
6.75
13.71
12.57
4.01
-6.92
-13.88
-12.73
-3.88
7.82
15.82
15.53
7.12
-4.64
-13.01
-13.15
-4.97
6.71
14.87
14.53
5.61
-6.95
-16.00
-16.29
-7.67
4.83
13.92
14.33
5.84
-6.54
-15.48
-15.63
-6.76
6.07
15.46
15.96
7.18
-5.97
-16.16
-17.95
-10.80
0.75
9.79
11.07
4.09
-6.74
-14.80
-15.11
-7.16
4.71
13.94
15.47
8.71
-2.20
-10.72
-11.68
-4.21
7.58
17.04
18.78
11.76
-0.14
-10.23
-12.96
-7.08
3.63
12.65
14.59
8.25
-2.63
-11.63
-13.45
-7.10
3.65
12.37
13.81
6.92
-4.51
-14.00
-16.18
-9.84
1.36
10.90
13.15
6.64
-5.05
-15.34
-18.33
-12.21
-0.37
10.53
14.41
9.32
-1.51
-11.59
-14.89
-9.48
1.40
11.25
14.24
8.52
-2.58
-12.61
-15.74
-10.16
0.83
10.86
14.17
8.93
-1.78
-11.76
-15.36
-10.71
-0.63
8.97
12.58
8.10
-1.92
-11.83
-16.17
-12.65
-3.47
5.98
10.25
6.99
-1.73
-10.65
-14.41
-10.63
-1.41
7.95
12.15
8.97
0.63
-7.55
-10.33
-5.67
4.11
13.63
17.73
14.29
5.50
-3.53
-7.68
-4.77
3.27
11.66
15.41
12.26
3.91
-4.96
-9.37
-6.80
1.32
10.38
15.21
13.00
4.98
-4.36
-9.75
-8.19
-0.71
8.20
13.22
11.40
3.79
-5.07
-9.87
-7.71
0.19
9.15
13.86
11.42
3.19
-6.14
-11.18
-9.07
-1.17
7.80
12.42
9.84
1.41
-7.95
-12.74
-10.00
-1.14
8.77
13.94
11.15
1.83
-8.81
-14.63
-12.06
-2.36
9.08
15.77
13.88
4.43
-7.21
-14.38
-13.06
-4.18
6.86
13.45
11.52
2.07
-9.55
-16.67
-15.28
-6.40
4.65
11.21
9.31
-0.07
-11.47
-18.20
-16.15
-6.25
6.02
13.76
12.58
3.31
-8.59
-16.03
-14.41
-4.45
8.26
16.39
15.33
5.77
-6.53
-14.14
-12.31
-1.89
11.08
19.00
17.00
5.90
-8.25
-17.64
-17.24
-7.68
5.27
13.99
13.45
3.98
-8.86
-17.75
-17.65
-8.70
3.88
12.88
13.15
4.74
-7.36
-15.97
-15.87
-6.94
5.73
14.71
14.70
5.45
-7.89
-17.75
-18.40
-9.42
4.05
14.41
15.88
7.85
-4.76
-14.41
-15.43
-7.24
5.32
14.91
15.96
7.92
-4.32
-13.48
-13.98
-5.30
7.67
17.51
18.50
10.13
-2.71
-12.52
-13.43
-4.84
8.23
18.02
18.61
9.34
-4.66
-15.48
-16.93
-8.23
5.53
16.35
17.91
9.16
-5.04
-16.79
-19.68
-12.44
0.38
11.04
13.10
5.18
-8.19
-19.26
-21.49
-13.36
0.62
12.58
15.81
8.81
-4.04
-14.99
-17.42
-9.86
3.30
14.44
17.21
10.14
-2.51
-13.32
-16.01
-9.06
3.51
14.54
17.78
11.49
-0.54
-11.23
-14.27
-7.67
4.99
16.48
20.13
13.63
0.46
-12.07
-17.00
-11.67
0.56
12.33
16.53
10.59
-2.07
-13.94
-17.79
-11.08
2.61
15.53
20.43
14.56
1.41
-11.49
-16.98
-12.39
-0.99
10.12
14.12
8.59
-3.22
-14.30
-18.08
-12.23
-0.02
11.51
15.66
9.84
-2.79
-15.25
-20.65
-16.05
-4.23
8.05
13.91
10.36
-0.17
-11.29
-16.35
-12.36
-1.56
10.01
16.07
13.60
4.53
-5.55
-10.71
-8.04
0.77
10.54
15.58
13.03
4.46
-5.04
-9.83
-7.00
1.92
11.71
16.51
13.22
3.44
-7.44
-13.33
-11.00
-2.03
8.12
13.36
10.62
1.52
-8.61
-13.89
-11.43
-2.94
6.36
10.94
8.08
-0.50
-9.78
-14.35
-11.54
-2.93
6.63
11.66
9.22
0.55
-9.60
-15.62
-14.20
-6.15
3.92
10.33
9.52
2.15
-7.34
-13.29
-12.00
-4.04
6.20
13.03
12.85
6.16
-2.72
-8.18
-6.71
1.00
10.48
16.04
14.07
5.26
-5.80
-13.25
-13.27
-6.24
3.48
10.11
9.80
2.76
-6.83
-13.36
-12.97
-5.84
3.83
10.33
9.76
2.41
-7.38
-13.67
-12.37
-3.89
7.01
13.95
12.70
3.70
-7.93
-15.36
-14.05
-4.44
8.23
16.91
16.83
8.14
-4.11
-12.99
-13.66
-5.99
5.39
13.83
14.47
7.07
-4.02
-12.36
-13.15
-6.00
4.85
12.98
13.60
6.33
-4.57
-12.67
-13.03
-5.25
6.31
15.18
16.38
9.45
-1.33
-9.35
-9.66
-1.83
9.66
17.93
17.76
8.68
-4.54
-14.57
-15.74
-7.37
5.66
15.64
16.56
7.72
-5.90
-16.40
-17.60
-8.73
5.09
15.90
17.60
9.42
-3.62
-13.71
-14.90
-6.60
6.17
15.76
16.29
7.15
-6.64
-17.34
-18.90
-10.46
3.17
14.13
16.06
7.72
-6.21
-17.87
-20.60
-12.78
1.16
13.34
16.94
10.16
-2.84
-14.37
-17.68
-10.90
1.96
13.38
16.82
10.45
-1.87
-12.87
-16.23
-10.24
1.21
10.95
12.75
5.02
-8.20
-19.56
-22.61
-15.47
-2.07
10.22
14.73
9.33
-2.41
-13.45
-17.19
-11.42
0.50
11.74
15.98
11.04
0.14
-10.01
-13.17
-7.19
4.73
15.89
19.93
14.54
2.90
-8.19
-12.13
-6.42
5.85
17.68
22.12
16.38
3.45
-9.52
-15.38
-11.05
0.55
12.26
16.95
11.63
-0.65
-12.65
-17.18
-11.38
1.49
13.89
18.39
11.97
-2.12
-16.17
-22.45
-17.58
-4.54
9.11
15.56
11.23
-1.17
-14.27
-20.35
-15.77
-3.17
10.15
16.54
12.46
0.51
-12.08
-17.74
-13.03
-0.65
12.20
18.02
13.36
0.84
-12.32
-18.55
-14.33
-2.13
10.95
17.37
13.46
1.68
-10.98
-16.99
-12.68
-0.49
12.46
18.47
13.82
0.98
-12.77
-19.52
-15.31
-2.49
11.62
19.04
15.64
3.49
-10.43
-18.26
-15.85
-5.06
7.48
14.24
11.22
0.24
-12.20
-18.74
-15.39
-3.86
9.43
17.13
15.08
4.78
-7.59
-14.76
-12.64
-2.71
8.92
15.08
11.88
0.93
-11.52
-18.25
-15.29
-4.19
8.83
16.58
14.93
5.04
-7.32
-15.23
-14.47
-5.82
5.61
13.35
13.33
6.03
-3.88
-10.46
-9.88
-2.69
6.56
12.14
10.46
2.26
-7.86
-14.05
-12.67
-4.42
6.06
12.85
12.16
4.44
-5.82
-12.80
-12.60
-5.45
4.42
11.34
11.37
4.59
-4.98
-11.76
-11.79
-4.99
4.80
12.12
13.08
7.50
-0.97
-7.11
-7.16
-0.98
7.88
14.30
14.57
8.50
-0.44
-7.17
-7.92
-2.30
6.39
13.09
13.96
8.56
0.13
-6.21
-6.54
-0.46
8.53
14.95
14.63
7.18
-3.57
-11.72
-12.65
-5.80
4.85
13.03
13.75
6.21
-5.68
-15.42
-17.73
-11.44
-0.28
9.28
11.84
6.10
-4.30
-12.97
-14.53
-7.80
3.41
12.50
14.01
6.86
-4.97
-14.68
-16.63
-9.71
1.99
11.60
13.48
6.54
-5.17
-14.68
-16.34
-9.01
3.24
13.39
15.60
8.55
-3.65
-13.96
-16.36
-9.36
3.05
13.63
16.14
9.03
-3.65
-14.43
-16.76
-8.94
4.74
16.46
19.36
11.52
-2.82
-15.70
-20.04
-13.71
-0.75
11.09
14.87
8.45
-4.27
-15.72
-19.13
-12.34
0.90
13.16
17.57
11.77
-0.71
-12.51
-16.69
-10.68
2.17
14.45
19.05
13.21
0.16
-12.71
-18.10
-13.12
-0.92
11.20
16.00
10.61
-1.86
-14.14
-19.11
-13.90
-1.55
10.67
15.64
10.44
-1.86
-13.97
-18.69
-12.98
0.05
12.96
18.31
13.03
0.19
-12.60
-17.63
-11.65
2.24
16.35
22.82
18.13
5.10
-8.75
-15.57
-11.75
0.17
12.95
18.92
14.42
1.95
-11.27
-17.57
-13.21
-0.65
12.78
19.13
14.53
1.50
-12.53
-19.51
-15.38
-2.63
11.15
17.76
13.16
-0.18
-14.70
-22.03
-18.00
-4.93
9.80
17.95
15.19
3.53
-9.94
-17.36
-14.56
-3.46
9.12
15.60
12.13
0.92
-11.13
-16.51
-11.52
1.41
15.02
21.42
16.72
3.26
-11.68
-19.95
-17.24
-5.45
8.44
16.47
14.15
2.99
-10.56
-18.82
-17.32
-7.26
5.36
13.25
11.92
2.34
-9.78
-17.37
-16.01
-6.49
5.66
13.37
12.24
3.00
-8.94
-16.62
-15.57
-6.46
5.39
13.15
12.48
4.00
-7.15
-14.31
-13.28
-4.67
6.55
13.91
13.20
4.74
-6.71
-14.84
-15.28
-8.05
2.52
10.37
11.14
4.75
-4.73
-11.43
-11.10
-3.57
7.13
15.14
16.25
10.26
1.07
-5.57
-5.50
1.44
11.27
18.27
18.22
10.88
0.22
-7.87
-8.93
-2.47
7.64
15.42
16.21
9.32
-1.48
-10.12
-11.75
-5.50
4.87
13.22
14.62
8.25
-2.08
-10.20
-11.20
-4.47
5.93
13.68
13.91
6.16
-5.39
-14.20
-15.35
-8.33
2.57
10.75
11.15
3.20
-8.77
-18.06
-19.47
-12.26
-0.80
8.10
9.03
1.31
-10.63
-19.70
-20.32
-11.67
1.63
12.30
14.57
7.42
-4.78
-14.91
-17.11
-10.11
2.11
12.80
16.19
10.79
0.06
-9.61
-12.68
-7.53
2.72
12.03
15.02
10.07
0.25
-8.52
-10.90
-5.27
5.20
14.40
16.84
10.89
-0.30
-10.52
-14.09
-9.09
1.51
11.66
15.75
11.74
2.30
-6.80
-10.18
-5.91
3.40
12.17
15.20
10.66
1.22
-7.58
-10.59
-6.03
3.37
11.97
14.48
9.13
-1.27
-10.89
-14.21
-9.25
1.20
11.21
15.11
10.70
0.60
-9.41
-13.62
-9.84
-0.57
8.44
11.57
6.63
-3.83
-13.91
-17.82
-13.16
-2.44
8.33
13.08
9.11
-1.25
-12.03
-17.01
-13.29
-3.00
7.93
13.31
10.23
0.77
-9.26
-13.75
-9.93
-0.03
10.13
14.57
10.65
0.73
-9.31
-13.49
-9.33
0.72
10.69
14.58
9.87
-0.94
-11.75
-16.41
-12.16
-1.34
9.98
15.41
12.05
2.02
-8.65
-13.57
-9.68
0.88
12.01
17.25
13.57
3.14
-7.90
-13.12
-9.52
0.58
11.07
15.56
11.18
0.14
-11.44
-17.27
-14.39
-4.85
5.48
10.45
7.11
-2.48
-12.52
-16.84
-12.47
-1.50
10.07
15.69
12.11
1.14
-11.22
-18.25
-16.30
-6.82
4.61
11.54
10.27
1.86
-8.70
-15.48
-15.01
-8.06
1.03
6.97
6.64
0.75
-6.60
-10.47
-7.90
0.33
10.01
15.90
14.69
6.99
-3.00
-9.71
-9.38
-2.24
7.50
14.18
13.89
6.76
-3.11
-10.08
-10.31
-3.94
5.04
11.23
10.97
4.38
-4.65
-10.97
-11.04
-4.92
3.78
10.13
10.64
5.31
-2.39
-7.57
-6.75
0.08
9.34
15.82
15.79
9.08
-0.69
-8.21
-9.44
-4.07
4.40
10.78
11.21
5.46
-3.04
-9.21
-9.45
-3.76
4.30
9.65
8.78
1.77
-7.51
-13.80
-13.37
-6.28
3.53
10.56
10.80
4.19
-5.43
-12.44
-12.73
-6.10
3.64
10.85
11.46
5.32
-3.73
-10.11
-9.82
-2.88
6.69
13.28
12.89
5.61
-4.50
-11.64
-11.76
-4.84
5.05
11.98
11.64
3.73
-7.73
-16.70
-18.48
-12.28
-1.76
7.20
9.79
5.03
-3.72
-10.90
-11.93
-6.06
3.26
10.51
11.40
5.43
-3.77
-10.48
-10.37
-3.03
7.72
15.89
16.78
9.64
-1.73
-11.14
-13.45
-7.46
3.25
12.46
14.75
8.70
-2.34
-12.19
-15.44
-10.53
-0.73
7.94
10.31
5.06
-4.47
-12.42
-13.73
-7.33
3.31
12.29
14.63
9.17
-0.79
-9.33
-11.43
-5.78
4.37
13.09
15.18
9.10
-1.90
-11.77
-14.94
-9.56
1.36
11.66
15.49
10.72
0.03
-10.62
-15.46
-12.18
-3.25
5.73
9.41
5.74
-2.84
-10.99
-13.66
-9.11
0.01
8.43
11.23
6.89
-1.86
-9.52
-11.12
-5.16
5.41
14.74
17.47
11.78
0.68
-9.80
-13.92
-9.54
0.61
10.51
14.35
9.95
-0.06
-9.79
-13.54
-9.19
0.62
10.02
13.46
8.91
-0.93
-10.26
-13.56
-8.88
1.03
10.33
13.43
8.27
-2.52
-13.08
-17.74
-14.16
-4.60
5.32
10.02
6.94
-1.85
-11.06
-15.20
-11.63
-2.22
7.81
12.87
10.30
1.87
-7.17
-11.10
-7.15
2.79
13.20
18.14
14.63
4.58
-6.33
-11.87
-8.98
0.46
10.76
15.61
11.91
1.54
-9.62
-15.21
-12.07
-2.06
8.88
14.33
11.05
1.04
-9.77
-14.93
-11.25
-0.74
10.57
16.12
12.70
2.16
-9.56
-15.96
-13.67
-4.34
6.42
12.45
10.41
1.76
-8.21
-13.52
-11.02
-2.14
7.95
13.28
10.64
1.32
-9.41
-15.52
-13.56
-4.65
6.01
12.23
10.30
1.26
-9.74
-16.28
-14.42
-5.00
6.79
14.37
13.65
5.30
-5.51
-12.25
-10.80
-1.97
9.02
15.67
13.98
4.81
-6.59
-13.65
-12.37
-3.59
7.57
14.69
13.78
5.47
-5.31
-12.36
-11.71
-3.90
6.40
13.09
12.21
4.31
-5.91
-12.31
-10.90
-2.20
8.82
15.73
14.28
5.00
-7.01
-14.98
-14.35
-5.51
6.43
14.56
14.27
5.82
-5.75
-13.57
-13.05
-4.50
6.99
14.70
14.06
5.38
-6.36
-14.46
-14.48
-6.70
4.13
11.55
11.25
3.46
-7.14
-14.30
-13.76
-5.71
5.28
12.92
12.73
4.71
-6.78
-15.33
-16.11
-8.64
2.95
12.17
13.98
7.49
-3.48
-12.65
-14.90
-9.25
0.67
8.90
10.62
4.97
-4.55
-12.13
-13.20
-7.02
2.96
11.10
12.92
7.62
-1.33
-8.36
-8.87
-2.03
8.61
17.09
18.39
11.53
0.20
-9.15
-10.99
-4.05
7.78
17.59
19.50
12.06
-0.73
-11.78
-15.03
-9.09
1.96
11.07
12.37
4.70
-7.62
-17.36
-18.70
-10.63
2.39
12.90
14.80
6.93
-6.18
-16.94
-18.98
-10.88
2.88
14.47
17.25
9.64
-3.90
-15.34
-17.72
-9.24
5.58
18.47
22.23
14.73
0.24
-13.06
-17.84
-11.75
1.31
13.52
17.71
11.40
-1.78
-14.33
-19.17
-13.77
-1.46
10.47
15.05
9.69
-2.36
-13.89
-17.99
-12.04
0.64
12.71
17.15
11.36
-1.32
-13.51
-18.05
-12.33
0.33
12.57
17.36
12.05
-0.09
-11.76
-16.06
-10.43
1.82
13.42
17.46
11.36
-1.52
-13.86
-18.59
-13.01
-0.34
12.10
17.13
11.90
-0.52
-13.01
-18.48
-14.01
-2.53
8.95
13.59
8.59
-3.20
-15.03
-20.21
-16.02
-5.15
6.04
11.23
7.73
-2.10
-12.37
-17.18
-13.96
-4.74
5.11
10.09
7.63
-0.43
-9.11
-13.12
-9.93
-1.18
8.31
13.22
10.95
2.99
-5.89
-10.40
-7.75
0.71
10.30
15.80
14.32
7.02
-1.75
-6.91
-5.68
0.87
8.62
12.85
11.03
4.24
-3.41
-7.32
-5.02
2.33
10.57
14.96
12.82
5.21
-3.71
-8.99
-7.69
-0.60
8.24
13.76
12.84
6.02
-2.78
-8.64
-8.40
-2.57
5.00
9.54
8.14
1.49
-6.57
-11.26
-9.76
-2.90
5.39
10.30
8.94
1.98
-6.67
-12.16
-11.43
-4.88
3.82
9.89
10.03
4.34
-3.84
-9.85
-10.36
-5.29
2.18
7.47
7.32
1.69
-6.17
-11.61
-11.26
-5.03
3.77
10.39
11.34
6.36
-1.45
-7.45
-8.21
-3.41
4.03
9.75
10.49
6.01
-0.80
-5.62
-5.24
0.57
8.86
15.13
15.84
10.46
1.82
-5.38
-7.27
-2.90
5.04
11.74
13.07
7.99
-0.72
-8.01
-9.44
-3.97
5.28
12.78
13.85
7.42
-3.09
-11.75
-13.56
-7.45
2.98
11.57
13.06
6.30
-5.09
-14.80
-17.45
-11.71
-1.13
7.85
9.72
3.12
-8.22
-17.61
-19.31
-11.80
0.98
11.89
14.66
7.64
-5.21
-16.42
-19.33
-12.08
1.29
13.07
16.48
9.48
-3.84
-15.69
-19.08
-11.94
1.67
13.94
17.77
11.02
-2.25
-14.05
-17.24
-9.64
4.53
16.96
20.07
11.51
-4.33
-18.74
-23.72
-16.46
-1.27
12.98
17.96
10.82
-4.25
-18.26
-22.70
-14.58
1.76
17.17
23.03
16.16
0.77
-13.99
-19.38
-12.08
3.86
19.44
25.79
19.36
3.93
-11.61
-18.41
-12.75
1.83
16.43
22.11
15.05
-1.10
-17.29
-24.30
-17.98
-1.96
14.50
21.77
15.60
-0.57
-17.43
-25.27
-19.64
-3.93
12.69
20.83
16.08
1.72
-13.44
-20.30
-14.86
-0.52
14.11
20.19
13.98
-1.01
-15.99
-22.17
-15.83
-0.44
15.10
21.76
15.50
-0.20
-16.44
-23.86
-18.02
-2.11
14.90
23.43
18.82
3.96
-12.37
-20.65
-16.14
-1.71
13.95
21.54
16.48
1.66
-14.35
-22.29
-17.71
-3.50
11.93
19.46
14.64
0.10
-15.86
-24.31
-20.68
-7.30
7.92
16.25
13.05
0.55
-13.66
-20.93
-16.56
-2.58
13.43
22.66
20.18
7.67
-7.57
-16.78
-14.80
-3.08
11.24
19.59
16.84
4.33
-10.96
-20.32
-18.49
-6.60
8.53
18.33
17.37
6.43
-7.89
-17.18
-15.97
-4.86
9.75
19.46
18.67
7.92
-6.45
-15.97
-14.94
-3.77
11.12
21.01
20.00
8.41
-7.35
-18.46
-18.69
-8.20
6.64
17.01
16.78
6.05
-8.89
-19.18
-18.66
-7.49
8.00
18.98
19.21
8.71
-6.27
-16.98
-17.23
-7.04
7.46
17.57
17.13
6.05
-9.47
-20.69
-21.28
-10.84
4.63
16.46
18.14
9.19
-4.76
-15.24
-15.94
-6.40
7.69
17.79
17.77
7.38
-7.44
-17.97
-17.86
-7.01
8.39
19.44
19.70
8.92
-6.81
-18.55
-19.71
-9.82
5.35
17.08
18.76
9.62
-4.90
-16.36
-18.22
-9.52
4.61
15.83
17.48
8.43
-6.19
-17.92
-19.79
-10.39
5.04
17.67
20.19
11.20
-4.01
-16.41
-18.54
-9.00
6.67
19.25
21.38
11.74
-4.08
-16.91
-19.45
-10.54
4.26
16.18
18.18
9.16
-5.60
-17.48
-19.74
-11.25
2.99
14.64
17.04
8.88
-4.98
-16.48
-18.98
-11.01
2.78
14.42
17.18
9.50
-4.09
-15.61
-18.15
-9.89
4.73
17.48
21.25
13.96
-0.15
-12.95
-17.06
-10.27
3.25
15.44
19.09
12.04
-1.53
-13.54
-16.82
-9.37
4.43
16.41
19.37
11.28
-3.49
-16.69
-21.02
-14.27
-0.59
11.99
16.12
9.45
-4.08
-16.64
-21.04
-14.78
-1.55
10.96
15.58
9.77
-2.95
-15.10
-19.61
-13.81
-1.11
11.17
16.03
10.94
-0.87
-12.27
-16.38
-10.64
1.78
13.94
19.20
14.88
3.85
-7.31
-12.15
-8.00
2.53
13.18
17.63
13.12
2.05
-9.45
-15.04
-11.76
-1.73
9.02
14.05
10.28
-0.16
-11.18
-16.26
-12.23
-1.35
10.05
15.22
11.05
-0.14
-11.74
-16.74
-11.86
0.44
13.29
19.46
15.43
3.58
-9.23
-15.61
-11.95
-0.49
12.02
18.18
14.30
2.52
-10.45
-17.30
-14.30
-3.41
8.81
15.18
12.00
1.32
-10.48
-16.34
-12.70
-1.63
10.40
16.29
12.58
1.39
-10.76
-16.65
-12.72
-1.06
11.70
18.28
14.88
3.46
-9.49
-16.62
-14.05
-3.59
8.42
14.74
11.48
0.33
-12.30
-19.14
-16.20
-5.09
7.85
15.23
12.83
2.17
-10.51
-17.77
-15.27
-4.34
8.80
16.67
14.95
4.96
-7.07
-13.75
-10.84
0.06
12.49
19.00
15.49
3.70
-9.79
-17.32
-14.71
-3.59
9.58
17.22
15.04
4.41
-8.47
-16.20
-14.36
-4.03
8.92
17.14
15.95
6.05
-6.93
-15.64
-15.12
-5.69
7.14
15.81
15.14
5.34
-8.06
-17.33
-17.02
-7.25
6.28
15.64
15.34
5.55
-7.94
-17.14
-16.64
-6.80
6.48
15.39
14.78
5.18
-7.60
-15.94
-14.97
-5.44
6.94
14.75
13.30
3.29
-9.55
-17.94
-17.07
-7.40
5.62
14.63
14.59
5.66
-6.91
-15.74
-15.50
-6.08
7.25
16.82
17.09
7.82
-5.67
-15.52
-15.85
-6.33
7.61
17.94
18.77
9.81
-3.45
-12.93
-12.82
-3.11
10.41
19.62
18.79
8.09
-6.56
-16.84
-17.00
-7.18
6.72
16.38
16.00
5.61
-8.84
-19.04
-19.04
-8.67
6.33
17.61
18.99
10.05
-3.76
-14.25
-15.29
-6.35
7.11
16.82
16.74
6.45
-8.37
-19.26
-19.84
-9.70
5.31
16.51
17.33
7.17
-8.22
-19.97
-21.34
-11.45
4.21
17.00
20.08
12.22
-1.49
-12.81
-15.09
-7.03
6.57
17.60
19.36
10.55
-4.01
-16.10
-18.80
-10.50
4.00
16.25
19.10
10.80
-3.94
-16.66
-19.98
-12.00
2.55
15.18
18.61
10.94
-3.14
-15.19
-18.01
-9.95
4.18
15.98
18.39
9.83
-4.84
-17.20
-20.26
-12.56
1.15
12.56
14.79
6.41
-7.70
-19.29
-21.46
-12.58
2.57
15.75
19.81
12.89
-0.70
-12.97
-16.79
-10.04
3.24
15.22
19.03
12.54
-0.33
-11.99
-15.64
-9.31
2.99
13.76
16.35
8.91
-4.52
-16.30
-19.75
-13.00
-0.05
11.52
14.96
8.19
-4.88
-16.72
-20.43
-13.64
-0.08
12.74
17.61
11.99
-0.72
-12.97
-17.41
-11.19
2.37
15.61
21.15
16.01
3.42
-9.17
-14.36
-9.32
2.62
14.11
18.03
11.78
-1.22
-13.46
-17.87
-11.94
0.89
13.09
17.54
11.45
-1.83
-14.92
-20.51
-15.48
-2.76
10.40
16.59
12.52
0.92
-11.09
-16.12
-10.85
1.88
14.74
20.26
15.20
2.42
-10.72
-16.63
-12.01
0.28
13.04
18.90
14.61
2.81
-9.52
-15.26
-11.25
0.02
11.84
17.26
13.03
1.62
-10.35
-15.89
-11.71
-0.11
12.13
17.77
13.29
0.99
-12.31
-19.14
-15.62
-3.86
9.26
16.14
12.89
1.54
-11.09
-17.35
-13.37
-1.37
11.64
17.98
13.74
1.18
-12.54
-19.56
-15.89
-3.77
9.73
16.70
13.05
0.88
-12.78
-20.15
-17.18
-5.82
7.04
13.79
10.50
-0.67
-12.82
-18.31
-13.27
-0.03
14.21
21.44
17.56
4.74
-9.75
-17.64
-14.47
-2.13
12.16
20.18
17.28
5.12
-9.40
-18.07
-16.20
-5.23
8.25
16.39
14.61
4.21
-8.50
-15.95
-13.75
-3.26
9.33
16.45
13.71
2.45
-10.94
-18.76
-16.34
-4.89
9.13
17.73
15.99
4.97
-8.95
-17.75
-16.32
-5.54
8.22
16.92
15.55
4.94
-8.62
-17.13
-15.48
-4.52
9.47
18.52
17.48
7.02
-6.80
-15.99
-15.37
-5.39
8.16
17.54
17.48
8.17
-4.84
-13.97
-13.90
-4.63
8.48
17.75
17.62
7.87
-6.11
-16.47
-17.30
-8.10
5.76
16.11
16.79
7.28
-6.97
-17.61
-18.26
-8.40
6.33
17.41
18.50
9.04
-5.37
-16.19
-17.05
-7.42
7.11
18.10
19.11
9.45
-5.43
-17.12
-19.14
-10.59
3.37
14.45
16.08
7.20
-7.07
-18.53
-20.61
-12.15
1.89
13.39
15.86
8.24
-4.58
-14.70
-15.84
-7.14
6.41
16.88
18.18
9.48
-4.14
-14.77
-16.17
-7.62
5.80
16.14
17.11
7.88
-6.53
-17.99
-20.07
-11.75
2.08
13.35
15.58
7.57
-5.83
-16.68
-18.51
-10.05
3.92
15.46
17.94
10.01
-3.70
-15.21
-17.82
-9.94
3.90
15.66
18.64
11.20
-2.23
-13.80
-16.74
-9.44
3.63
14.76
17.41
10.05
-2.96
-13.96
-16.57
-9.35
3.43
14.26
16.78
9.37
-3.75
-15.13
-18.19
-11.03
2.44
14.67
18.80
12.62
-0.18
-12.09
-16.15
-9.90
2.99
14.90
18.81
12.35
-0.82
-13.10
-17.37
-11.29
1.47
13.46
17.85
12.33
0.43
-10.56
-14.07
-7.92
4.32
15.46
18.84
12.12
-1.22
-13.90
-18.95
-13.68
-1.18
11.22
16.26
10.92
-1.79
-14.59
-20.09
-15.03
-2.44
10.26
15.59
10.47
-1.99
-14.23
-18.72
-12.49
1.16
14.43
19.76
13.97
0.32
-13.49
-19.75
-15.08
-2.32
11.18
17.76
13.85
1.95
-10.83
-16.98
-12.91
-0.95
11.83
17.87
13.48
1.05
-12.33
-19.00
-15.09
-2.94
10.35
17.07
13.36
1.41
-11.83
-18.63
-15.11
-3.34
9.86
16.93
13.85
2.51
-10.41
-17.38
-14.31
-2.90
10.33
17.81
15.25
4.21
-8.83
-16.23
-13.53
-2.14
11.45
19.38
17.10
5.93
-7.64
-15.74
-13.67
-2.75
10.45
18.08
15.56
4.22
-9.46
-17.62
-15.74
-5.21
7.58
14.99
12.57
1.63
-11.45
-19.09
-16.67
-5.26
8.98
18.33
17.77
7.93
-5.37
-14.42
-13.97
-4.27
9.04
18.17
17.76
7.95
-5.61
-15.08
-14.91
-5.25
8.15
17.42
17.06
7.25
-6.32
-15.75
-15.69
-6.39
6.46
15.06
14.09
3.79
-9.99
-19.26
-18.43
-7.60
7.40
18.25
18.90
9.09
-5.51
-16.56
-17.79
-8.65
5.31
15.75
16.52
7.19
-6.71
-16.97
-17.49
-8.04
5.68
15.51
15.52
5.52
-8.87
-19.41
-20.09
-10.60
3.69
14.73
16.47
8.19
-5.05
-15.52
-17.16
-8.93
4.54
15.73
18.51
11.70
-0.32
-10.22
-11.87
-3.98
8.99
19.38
20.80
11.84
-2.98
-15.66
-19.25
-11.92
1.91
14.14
17.70
10.52
-3.14
-15.19
-18.51
-11.10
2.74
15.01
18.64
11.62
-1.86
-13.88
-17.57
-11.07
1.47
12.31
14.71
6.94
-6.61
-18.16
-20.94
-13.08
1.16
13.84
17.94
11.31
-2.02
-14.22
-18.04
-11.07
2.83
15.70
20.11
13.46
-0.56
-13.92
-18.90
-12.62
1.27
14.70
19.88
13.76
-0.12
-13.73
-19.22
-13.55
-0.17
13.07
18.46
12.89
-0.32
-13.44
-18.92
-13.73
-1.07
11.43
16.23
10.28
-3.05
-16.06
-21.01
-14.64
-0.22
14.33
20.87
15.86
2.26
-12.06
-18.84
-14.23
-1.03
12.95
19.61
15.12
2.18
-11.60
-18.19
-13.88
-1.42
11.71
17.66
12.80
-0.18
-13.81
-20.33
-16.05
-3.50
10.04
16.85
13.13
1.28
-11.64
-17.92
-13.65
-1.05
12.79
19.95
16.34
4.01
-10.01
-17.68
-14.56
-2.46
11.60
19.55
16.86
5.16
-8.72
-16.65
-14.01
-2.38
11.45
19.37
16.63
4.59
-9.99
-18.96
-17.40
-6.34
7.74
16.76
15.62
5.14
-8.43
-17.15
-15.86
-5.19
8.72
17.83
16.88
6.37
-7.68
-17.27
-16.97
-7.20
6.10
15.04
14.38
4.55
-8.54
-17.03
-15.79
-5.40
8.22
17.28
16.58
6.51
-7.08
-16.36
-15.94
-5.96
7.96
17.88
18.07
8.34
-5.82
-16.40
-17.33
-8.02
6.16
16.99
18.26
9.26
-4.76
-15.64
-17.10
-8.50
4.78
14.70
15.29
6.16
-7.19
-16.70
-16.54
-6.54
7.66
17.91
18.29
8.47
-5.96
-16.79
-17.80
-8.31
6.43
18.16
20.32
11.82
-2.45
-14.37
-17.29
-9.74
3.52
14.41
16.31
7.92
-5.97
-17.20
-19.10
-10.46
3.66
15.03
17.01
8.40
-5.76
-17.17
-19.14
-10.44
4.05
16.19
19.27
11.73
-1.84
-13.63
-16.95
-10.01
3.10
14.75
18.19
11.45
-1.53
-13.25
-16.84
-10.15
2.93
14.65
17.98
10.71
-3.24
-15.99
-20.25
-13.60
0.04
12.80
17.45
11.56
-1.05
-12.59
-15.94
-8.84
4.78
17.04
20.65
13.14
-1.57
-15.40
-20.83
-15.10
-1.80
11.11
16.00
10.01
-3.27
-15.98
-20.54
-14.01
-0.04
13.44
18.71
12.81
-0.80
-14.15
-19.39
-13.35
0.67
14.77
21.09
16.20
3.12
-10.47
-16.71
-12.10
0.51
13.61
19.35
14.16
0.82
-13.05
-19.54
-14.99
-2.11
11.41
17.47
12.24
-1.49
-15.98
-23.01
-18.50
-5.08
9.60
17.29
14.06
2.34
-10.47
-16.43
-11.76
1.07
14.79
21.67
17.81
5.48
-8.33
-15.86
-13.11
-1.95
10.99
18.01
14.83
3.00
-10.85
-18.97
-16.84
-5.80
7.55
15.28
12.71
1.36
-12.01
-19.31
-15.83
-3.28
11.24
19.26
16.06
3.34
-11.62
-20.25
-17.56
-5.17
9.70
18.54
16.33
4.47
-10.15
-19.11
-17.40
-6.21
7.91
16.85
15.64
5.22
-8.12
-16.51
-15.02
-4.36
9.48
18.76
18.41
8.98
-3.83
-12.40
-11.61
-1.84
11.10
19.38
17.70
6.41
-8.52
-18.94
-19.04
-8.90
5.56
16.09
16.86
7.74
-5.57
-15.01
-14.97
-5.50
7.73
16.85
16.40
6.47
-7.31
-17.13
-17.44
-8.15
5.42
15.50
16.28
7.28
-6.37
-17.00
-18.65
-10.46
2.64
12.96
14.45
6.37
-6.34
-15.89
-16.20
-6.64
7.48
17.98
18.67
8.86
-5.97
-17.34
-18.68
-9.16
5.78
17.62
19.55
10.46
-4.51
-16.90
-19.90
-12.28
1.08
11.99
13.77
5.17
-8.83
-20.06
-21.79
-12.60
2.60
15.55
19.23
11.97
-1.67
-13.52
-16.47
-8.60
5.64
18.00
21.38
13.76
-0.49
-13.19
-17.07
-10.09
3.49
15.64
19.26
12.28
-1.18
-13.22
-16.87
-10.06
3.22
15.28
19.10
12.37
-1.20
-14.05
-19.13
-13.82
-1.43
10.69
15.45
10.11
-2.08
-13.86
-18.18
-12.25
0.56
12.83
17.34
11.48
-1.34
-13.55
-17.83
-11.54
1.74
14.26
18.70
12.33
-1.28
-14.41
-19.66
-14.21
-1.45
11.15
16.28
11.06
-1.49
-14.12
-19.72
-15.28
-3.53
8.68
14.37
10.40
-0.64
-12.15
-17.14
-12.29
0.08
13.36
20.32
17.39
6.57
-5.64
-12.00
-8.72
2.25
14.34
20.32
16.44
4.71
-8.26
-15.07
-11.92
-0.83
11.66
18.21
15.00
3.86
-8.82
-15.84
-13.34
-2.96
9.14
15.87
13.18
2.58
-9.95
-17.26
-15.19
-4.96
7.43
14.72
12.61
2.35
-10.03
-17.10
-14.41
-3.23
10.13
18.02
15.88
4.91
-8.57
-16.72
-14.83
-3.99
9.54
17.97
16.40
5.69
-8.02
-16.90
-15.88
-5.56
8.14
17.29
16.56
6.26
-7.73
-17.46
-17.36
-7.48
6.36
16.07
16.04
6.35
-7.25
-16.72
-16.41
-6.51
7.13
16.50
16.17
6.39
-7.01
-16.05
-15.35
-5.25
8.43
17.77
17.31
7.24
-6.66
-16.44
-16.51
-6.86
6.90
16.71
16.74
6.79
-7.52
-18.05
-18.76
-9.18
5.14
15.89
16.81
7.44
-6.80
-17.58
-18.59
-9.31
4.78
15.35
16.29
7.11
-6.66
-16.77
-17.13
-7.37
6.97
17.74
18.77
9.50
-4.73
-15.77
-17.41
-8.83
4.98
15.91
17.57
8.86
-5.25
-16.63
-18.63
-9.91
4.57
16.49
18.83
10.17
-4.63
-17.13
-20.13
-12.01
2.46
14.82
17.99
10.26
-3.71
-15.58
-18.33
-10.27
3.96
16.22
19.38
11.64
-2.58
-15.16
-19.00
-12.08
1.43
13.50
17.03
9.87
-3.84
-16.16
-19.89
-12.72
1.30
14.17
18.54
12.04
-1.51
-14.16
-18.49
-11.87
2.02
15.39
20.88
15.63
2.95
-9.66
-15.00
-10.20
1.61
13.29
17.77
12.24
-0.28
-12.67
-17.93
-13.16
-1.20
10.88
15.97
11.08
-0.90
-12.97
-17.97
-12.83
-0.47
11.85
16.83
11.41
-1.42
-14.26
-19.55
-14.07
-0.85
12.56
18.55
13.74
1.04
-12.09
-18.03
-13.36
-0.80
12.38
18.56
14.19
1.77
-11.55
-18.22
-14.57
-2.90
9.85
16.18
12.38
0.78
-11.74
-17.69
-13.35
-1.13
11.85
17.92
13.33
0.51
-13.27
-20.03
-15.74
-2.67
11.99
20.18
17.61
6.11
-7.39
-15.06
-12.64
-1.86
10.59
17.07
13.51
1.81
-11.24
-17.95
-14.11
-1.57
12.76
20.92
18.48
7.03
-6.70
-14.81
-12.66
-1.78
11.17
18.36
15.25
3.38
-10.60
-18.67
-16.21
-4.76
9.02
17.07
14.74
3.35
-10.40
-18.58
-16.48
-5.36
8.22
16.30
14.09
2.87
-10.86
-19.07
-16.78
-5.09
9.47
18.69
17.49
6.71
-7.27
-16.32
-15.23
-4.83
8.55
16.90
15.07
3.92
-10.26
-19.33
-18.15
-7.52
6.38
15.49
14.62
4.42
-8.96
-17.54
-16.20
-5.59
8.01
16.49
14.60
3.24
-11.13
-20.10
-18.20
-6.23
9.23
19.50
18.98
8.18
-6.44
-16.31
-15.72
-5.06
9.43
19.46
19.30
9.17
-5.04
-15.13
-15.42
-5.87
7.87
17.70
17.73
7.66
-6.95
-17.96
-19.18
-9.93
4.40
15.53
16.99
7.93
-6.42
-17.71
-19.27
-10.10
4.57
16.30
18.47
9.94
-4.18
-15.56
-17.55
-8.98
5.23
17.01
19.73
12.11
-1.23
-12.48
-15.29
-8.36
3.87
13.74
15.01
6.44
-7.26
-18.26
-20.08
-11.30
3.26
15.41
18.18
10.01
-4.38
-16.65
-19.63
-11.55
2.85
15.09
18.07
10.01
-4.27
-16.35
-19.04
-10.74
3.72
15.97
18.85
10.73
-3.71
-16.16
-19.52
-12.03
1.93
14.28
17.99
11.10
-2.11
-13.81
-17.01
-9.66
4.12
16.46
20.22
13.27
-0.43
-13.01
-17.27
-10.85
2.39
14.57
18.59
12.06
-1.18
-13.39
-17.36
-10.76
2.53
14.78
18.77
12.01
-1.84
-14.99
-20.14
-14.53
-1.50
11.34
16.63
11.33
-1.38
-14.12
-19.47
-14.28
-1.53
11.46
17.15
12.46
0.36
-11.77
-16.45
-10.57
2.65
15.50
20.40
14.21
0.13
-14.12
-20.65
-16.02
-3.17
10.50
17.26
13.55
1.84
-10.71
-16.68
-12.56
-0.75
11.79
17.73
13.47
1.44
-11.43
-17.63
-13.35
-0.81
13.00
20.29
17.01
5.14
-8.48
-16.09
-13.45
-2.41
10.27
16.97
13.62
2.17
-10.69
-17.31
-13.76
-2.16
10.68
17.12
13.31
1.36
-11.75
-18.40
-14.71
-2.78
10.39
17.06
13.16
0.88
-12.75
-19.76
-15.83
-2.87
12.04
20.67
18.47
7.02
-6.88
-15.13
-13.08
-2.18
10.88
18.23
15.30
3.55
-10.39
-18.63
-16.51
-5.37
8.36
16.69
14.78
3.68
-10.24
-18.95
-17.44
-6.51
7.51
16.45
15.05
4.08
-10.15
-19.38
-18.18
-7.20
7.20
16.75
16.15
6.02
-7.38
-15.94
-14.46
-3.70
10.15
19.09
17.94
7.31
-6.70
-16.12
-15.70
-5.83
7.62
16.77
16.19
6.19
-7.50
-16.89
-16.40
-6.05
8.41
18.78
19.24
9.64
-4.38
-14.68
-15.35
-6.19
7.14
16.60
16.39
6.42
-7.67
-17.82
-18.27
-9.02
4.41
14.05
14.23
4.78
-8.82
-18.80
-19.47
-10.50
2.98
13.37
14.96
7.27
-4.90
-14.18
-14.94
-6.58
6.08
15.57
16.18
7.24
-6.32
-16.74
-17.94
-9.02
5.07
16.39
18.49
10.14
-3.92
-15.73
-18.61
-11.08
2.45
14.13
17.36
10.46
-2.26
-13.19
-15.76
-8.39
4.54
15.35
17.61
9.95
-3.01
-13.35
-14.62
-5.68
8.53
19.79
21.39
12.12
-3.02
-15.57
-18.52
-10.32
4.16
16.31
18.83
9.88
-5.75
-19.32
-23.17
-15.03
0.45
14.44
19.00
11.64
-3.24
-17.02
-21.81
-15.12
-1.20
11.62
15.88
9.31
-3.88
-15.53
-18.44
-10.62
3.59
15.99
19.25
11.26
-3.58
-16.89
-21.09
-13.75
0.90
14.43
19.06
12.25
-1.82
-14.64
-18.37
-10.41
4.97
19.09
23.99
16.90
1.89
-12.54
-18.41
-12.79
0.61
13.73
18.81
12.90
-0.49
-13.47
-18.35
-12.08
1.94
15.82
21.73
16.46
3.25
-10.13
-15.90
-10.88
1.68
14.04
18.59
12.38
-1.16
-14.29
-19.51
-14.02
-1.33
10.89
15.26
8.98
-4.62
-18.01
-23.87
-19.15
-6.76
6.18
12.47
8.87
-2.13
-13.87
-19.41
-15.46
-4.22
7.98
14.42
11.86
2.22
-8.62
-14.27
-11.58
-2.25
8.28
14.07
12.12
3.99
-5.25
-10.03
-7.53
0.75
9.90
14.48
11.61
2.79
-7.01
-12.14
-9.45
-0.21
10.54
16.88
15.39
7.14
-2.92
-8.82
-7.04
1.39
11.39
16.91
14.33
4.74
-6.72
-13.73
-12.43
-3.65
7.54
14.77
13.97
5.75
-5.02
-11.97
-11.01
-2.65
8.15
14.87
13.23
3.80
-8.28
-16.25
-15.57
-6.83
4.63
11.81
10.18
0.42
-11.88
-19.43
-17.55
-7.00
6.50
15.50
15.18
6.11
-6.05
-13.95
-12.84
-3.25
9.29
17.53
16.67
7.27
-5.13
-13.23
-12.20
-2.61
9.82
17.46
15.39
4.21
-10.03
-19.35
-18.39
-7.64
6.75
16.53
16.10
5.75
-8.47
-18.26
-17.92
-7.58
6.84
17.09
17.33
7.48
-6.73
-17.06
-17.45
-7.55
7.04
18.02
19.16
9.94
-4.16
-14.84
-15.88
-6.90
6.46
15.85
15.24
4.57
-10.10
-20.15
-19.56
-8.50
6.67
17.09
16.59
5.29
-10.38
-21.40
-21.39
-10.23
5.72
17.38
18.17
7.77
-7.72
-19.29
-20.26
-10.16
5.07
16.63
18.04
8.84
-5.21
-15.60
-16.04
-6.21
8.18
18.72
19.18
9.15
-5.71
-17.00
-18.39
-9.14
5.37
16.77
18.54
9.74
-4.47
-15.78
-17.57
-8.76
5.43
16.57
17.96
8.52
-6.46
-18.39
-20.32
-11.02
4.31
17.09
20.32
12.50
-1.51
-13.41
-16.35
-8.79
4.65
15.98
18.54
10.83
-2.58
-13.78
-16.19
-8.38
5.01
15.96
17.86
9.34
-4.82
-16.44
-18.71
-10.23
4.13
16.02
18.47
9.92
-4.80
-17.27
-20.30
-12.08
2.83
16.05
20.23
13.21
-0.73
-13.41
-17.48
-10.69
2.72
14.61
17.71
9.95
-4.19
-16.36
-19.23
-10.89
3.99
16.80
20.09
11.87
-3.22
-16.60
-20.79
-13.54
0.78
13.83
18.08
11.09
-3.08
-16.31
-21.00
-14.48
-0.57
12.65
17.55
11.39
-2.00
-14.57
-18.66
-11.67
2.38
15.24
19.30
12.13
-2.03
-14.69
-18.26
-10.53
4.00
16.60
19.58
10.87
-4.69
-18.03
-21.26
-12.21
4.07
18.24
22.02
13.08
-3.68
-18.88
-24.06
-16.54
-0.99
13.35
18.12
10.47
-5.26
-20.26
-26.29
-20.51
-6.96
5.96
10.37
3.53
-10.66
-23.99
-28.81
-22.44
-8.66
4.42
9.19
2.94
-10.53
-23.16
-27.20
-19.63
-4.00
11.74
19.65
16.26
4.24
-9.35
-17.21
-15.91
-7.43
2.42
7.85
6.46
0.52
-4.75
-4.57
2.43
13.42
23.10
26.93
23.74
16.41
10.14
9.43
15.56
25.73
34.53
36.71
29.86
15.75
-0.53
-12.79
-16.62
-11.33
0.11
12.66
21.89
25.96
26.09
25.20
25.75
27.91
29.39
26.93
18.72
6.01
-7.06
-15.49
-16.25
-10.19
-1.79
3.33
1.61
-6.38
-16.23
-22.20
-20.72
-12.54
-2.36
3.91
2.67
-5.14
-14.46
-19.20
-15.86
-5.76
5.50
11.36
8.24
-2.07
-13.38
-18.61
-14.10
-2.02
10.71
16.45
11.40
-2.05
-16.53
-23.96
-20.25
-7.71
6.25
13.57
10.05
-2.24
-16.22
-23.94
-21.16
-9.70
3.77
11.56
9.44
-0.99
-13.26
-19.82
-16.43
-4.65
9.02
16.91
14.60
3.58
-9.71
-17.56
-15.48
-4.85
7.99
15.47
13.27
2.73
-9.97
-17.52
-15.66
-5.61
6.74
14.26
12.74
3.19
-8.77
-16.16
-14.58
-4.77
7.83
16.23
15.83
7.14
-4.61
-12.42
-11.67
-2.78
9.07
17.02
16.52
8.07
-3.21
-10.57
-9.75
-1.39
9.33
15.70
13.59
3.80
-8.27
-15.82
-14.54
-5.21
6.63
13.89
12.00
1.67
-11.40
-19.76
-18.42
-7.83
6.25
16.06
16.30
7.14
-5.88
-15.05
-14.98
-5.81
7.00
15.85
15.51
6.19
-6.53
-15.00
-14.06
-4.10
9.05
17.57
16.25
5.70
-7.94
-16.52
-14.60
-2.90
11.98
21.25
19.11
6.12
-10.86
-22.55
-22.55
-11.05
5.23
16.94
17.53
6.98
-8.01
-18.01
-16.33
-3.03
14.93
27.71
28.19
16.22
-1.25
-14.21
-15.34
-4.45
11.26
21.48
18.93
3.86
-15.96
-29.66
-29.62
-16.09
2.92
16.34
16.49
3.61
-14.34
-26.35
-24.90
-10.38
9.15
22.61
22.47
8.98
-9.65
-22.25
-21.03
-6.13
14.18
28.30
28.01
13.30
-7.57
-22.78
-23.73
-10.18
9.53
23.44
22.89
7.57
-14.15
-30.14
-31.45
-17.51
3.63
20.05
22.88
11.30
-6.92
-20.17
-19.70
-4.77
16.89
33.46
35.94
23.24
2.91
-13.33
-16.44
-5.24
12.67
25.57
24.55
8.75
-13.89
-31.27
-34.14
-21.51
-1.22
14.76
17.25
5.17
-13.86
-28.10
-28.57
-14.15
7.62
24.94
28.54
16.88
-2.90
-19.28
-22.87
-11.88
6.70
21.30
22.51
8.64
-13.08
-30.64
-34.18
-21.86
-1.04
16.17
19.99
8.68
-10.42
-25.26
-26.25
-11.88
10.43
28.68
33.32
22.73
4.12
-10.88
-13.04
-0.89
18.29
32.86
33.59
19.23
-2.71
-20.22
-23.75
-11.78
8.05
23.46
24.69
10.11
-12.72
-31.41
-35.91
-24.12
-3.19
14.95
20.36
10.78
-7.22
-22.22
-24.68
-12.40
8.18
25.74
30.72
20.72
1.93
-14.61
-19.42
-10.11
7.09
21.18
22.89
10.21
-10.23
-27.04
-30.70
-19.21
0.70
17.56
21.82
11.44
-6.97
-22.01
-24.37
-12.15
7.96
24.50
28.08
16.79
-2.58
-18.59
-21.76
-10.14
9.33
24.88
26.83
13.26
-8.79
-27.25
-32.03
-20.86
-0.70
16.48
20.67
9.54
-10.19
-26.72
-30.05
-17.82
3.47
22.25
28.58
19.77
1.90
-13.96
-18.19
-8.15
10.26
26.11
29.85
18.93
-0.70
-18.05
-23.52
-14.38
3.41
18.83
22.35
11.45
-7.86
-24.62
-29.34
-19.57
-1.35
14.58
18.94
9.47
-7.91
-22.47
-25.08
-13.48
6.39
23.62
28.70
18.87
-0.13
-17.49
-23.37
-14.50
3.69
20.34
25.42
15.66
-3.55
-21.18
-27.06
-17.90
0.60
17.24
21.84
11.29
-8.55
-26.21
-31.34
-20.69
0.03
19.55
27.53
20.47
3.62
-12.17
-16.87
-7.04
12.08
29.62
35.29
25.48
5.34
-14.14
-22.43
-15.66
1.07
16.67
20.74
9.74
-10.77
-29.25
-35.02
-24.45
-3.31
16.71
24.74
16.96
-1.22
-18.42
-23.91
-13.81
6.63
26.09
33.72
25.37
5.94
-13.53
-22.21
-15.86
0.71
16.60
21.30
10.99
-9.07
-27.61
-34.01
-24.51
-4.54
14.56
22.11
14.36
-3.34
-19.71
-24.20
-13.05
8.34
28.50
36.44
27.93
7.91
-12.41
-21.98
-16.25
0.06
16.04
20.95
10.74
-9.47
-28.29
-34.74
-24.73
-3.52
17.25
26.35
19.36
1.31
-16.37
-22.61
-13.04
7.28
26.82
34.24
24.96
3.83
-17.60
-27.82
-21.98
-4.71
12.69
19.08
10.01
-9.52
-28.03
-34.40
-24.31
-2.94
18.10
27.54
20.96
3.35
-13.92
-19.78
-9.90
10.67
30.43
37.98
28.57
6.92
-15.45
-26.78
-21.73
-4.53
13.61
21.11
12.88
-6.69
-26.24
-34.16
-25.46
-4.78
16.31
26.10
19.57
1.34
-17.07
-24.12
-14.91
5.76
26.24
34.75
26.32
5.54
-16.05
-26.74
-21.31
-4.13
13.58
20.50
11.88
-7.61
-26.62
-33.79
-24.54
-3.75
17.03
26.28
19.31
0.90
-17.43
-24.27
-14.86
5.95
26.44
34.72
25.64
3.78
-19.14
-30.99
-26.03
-8.36
10.64
19.11
11.64
-7.53
-27.00
-34.93
-26.07
-4.96
16.79
27.21
20.93
2.22
-17.42
-26.07
-18.17
2.36
24.29
35.73
30.87
13.32
-6.13
-15.93
-10.44
6.59
24.25
30.99
21.54
0.13
-21.88
-32.58
-26.45
-7.65
12.49
22.20
16.10
-1.81
-20.51
-28.58
-20.74
-0.98
19.74
29.87
23.90
5.54
-14.47
-24.56
-19.00
-1.27
17.89
26.87
19.89
0.44
-20.73
-31.93
-27.15
-9.71
9.98
20.45
15.98
-0.26
-18.06
-26.30
-19.44
-0.72
19.62
30.39
25.86
9.14
-9.55
-18.99
-13.37
4.03
22.63
30.82
22.69
1.72
-21.09
-33.52
-29.14
-11.07
9.86
21.55
17.60
0.88
-18.14
-27.73
-21.61
-2.65
18.99
31.72
29.25
14.14
-3.80
-13.35
-8.45
8.28
26.84
35.84
29.11
9.42
-13.06
-26.60
-24.70
-9.92
7.66
16.58
10.74
-6.94
-26.12
-35.23
-28.26
-8.34
13.99
26.81
23.74
7.50
-11.69
-22.23
-17.69
-0.66
18.72
28.80
23.14
4.32
-17.51
-30.49
-27.84
-11.93
7.21
17.91
13.72
-2.79
-21.47
-30.70
-24.33
-5.30
15.92
27.56
23.41
6.43
-12.85
-22.70
-16.88
1.56
21.97
32.19
25.67
5.24
-18.40
-32.79
-30.75
-14.50
5.68
17.64
14.41
-1.81
-21.02
-31.34
-26.01
-7.36
14.60
28.10
26.42
11.75
-6.18
-15.96
-11.20
5.70
24.84
34.63
28.67
9.56
-12.41
-25.23
-21.99
-5.06
15.18
26.49
21.82
3.41
-18.49
-31.63
-28.76
-11.78
9.46
23.13
22.11
8.07
-9.67
-19.81
-15.61
1.10
21.00
32.71
29.41
12.92
-7.34
-19.80
-17.45
-1.97
17.05
27.70
22.83
4.19
-18.35
-32.58
-30.97
-15.14
5.05
17.53
14.92
-1.00
-20.48
-31.53
-27.07
-9.07
12.64
25.99
23.81
7.88
-12.04
-24.08
-21.03
-4.48
15.82
27.89
24.30
6.67
-15.33
-29.46
-27.96
-12.19
8.21
20.98
18.45
1.92
-19.05
-32.24
-29.96
-13.52
7.67
21.72
21.08
7.03
-11.14
-21.73
-17.42
0.48
22.74
37.42
36.80
21.74
1.20
-13.10
-13.36
-0.19
17.52
27.98
23.48
4.93
-18.43
-34.45
-34.94
-20.58
-0.48
13.35
12.94
-1.02
-19.62
-31.12
-27.91
-11.00
10.65
25.39
25.66
12.31
-5.80
-17.17
-14.26
2.16
23.21
37.05
35.70
19.67
-2.26
-18.07
-19.40
-6.46
12.00
23.92
21.08
3.94
-18.47
-33.85
-33.81
-18.85
1.87
16.17
15.82
1.53
-17.50
-29.02
-24.92
-6.00
18.32
35.37
36.49
21.92
0.67
-14.85
-15.92
-2.55
16.48
28.89
26.14
8.47
-15.14
-32.19
-33.85
-20.11
0.25
15.00
15.58
2.06
-16.90
-29.33
-26.97
-10.20
12.12
27.83
28.49
14.32
-5.87
-19.95
-19.47
-4.57
15.79
29.19
26.96
9.31
-14.60
-31.93
-33.41
-18.87
2.73
18.64
19.78
5.94
-14.14
-28.05
-27.07
-11.25
10.66
26.54
27.92
14.92
-3.84
-16.56
-15.11
0.14
20.52
34.14
32.86
17.11
-4.35
-19.48
-19.96
-6.11
13.15
25.55
22.71
5.04
-18.30
-34.71
-35.45
-20.61
0.85
16.51
17.66
4.26
-15.02
-27.98
-26.01
-9.04
14.40
32.05
34.96
22.48
2.55
-13.08
-15.62
-4.31
13.04
24.84
22.62
6.08
-16.52
-33.13
-34.86
-21.31
-0.80
14.60
16.07
3.25
-15.59
-28.43
-26.79
-10.70
11.29
26.98
27.83
13.83
-6.29
-20.34
-19.57
-3.89
17.94
33.43
33.52
17.96
-4.67
-21.84
-24.32
-11.56
7.98
21.97
21.54
6.41
-14.84
-29.93
-30.07
-15.17
6.12
21.59
22.55
8.79
-11.19
-25.27
-24.68
-8.99
13.56
30.76
33.42
20.48
-0.35
-17.21
-20.79
-9.79
8.31
21.78
21.63
6.93
-14.49
-30.59
-32.25
-18.65
2.13
18.01
19.85
6.94
-12.63
-26.73
-26.34
-10.78
11.68
28.64
30.79
17.15
-4.15
-20.81
-23.33
-10.55
9.49
24.41
24.74
9.51
-13.11
-30.54
-33.04
-19.53
1.79
18.30
20.40
6.95
-13.92
-29.67
-30.68
-15.79
6.96
25.22
29.30
17.89
-1.28
-16.03
-16.82
-2.24
20.06
37.73
40.80
27.52
5.27
-13.68
-19.26
-9.33
8.89
23.21
23.78
8.86
-14.02
-32.49
-36.48
-24.23
-3.37
13.86
17.68
6.49
-12.23
-26.42
-26.73
-11.85
10.65
28.76
33.00
21.82
2.50
-13.24
-15.94
-3.88
15.85
31.47
33.32
19.60
-2.60
-21.38
-26.84
-16.91
1.33
15.92
17.17
3.31
-18.26
-35.38
-38.26
-25.25
-3.84
13.90
18.30
7.74
-10.50
-24.55
-25.09
-10.65
11.37
28.93
32.38
20.00
-0.91
-18.35
-22.38
-10.89
8.94
24.93
27.01
13.18
-9.24
-27.77
-32.04
-19.86
1.36
19.14
23.22
11.40
-9.13
-26.02
-29.09
-16.07
6.15
25.63
32.29
23.56
5.79
-9.68
-13.12
-2.01
17.43
33.85
37.32
25.18
3.65
-15.79
-22.90
-14.68
2.66
17.51
19.73
6.60
-15.36
-34.25
-39.61
-28.61
-7.75
11.15
17.74
9.25
-8.02
-22.42
-24.13
-10.87
10.62
28.41
32.56
20.79
0.14
-17.34
-21.44
-9.78
10.55
27.20
29.70
15.75
-7.47
-27.32
-33.02
-22.00
-1.42
16.07
19.82
7.30
-14.35
-32.51
-36.51
-23.77
-1.21
18.92
26.05
17.40
-0.69
-16.48
-19.78
-7.71
13.57
32.40
38.33
28.07
7.44
-12.10
-19.89
-12.35
4.89
20.33
23.50
11.15
-10.61
-29.81
-35.69
-25.03
-4.15
14.83
21.13
11.60
-7.48
-24.05
-27.52
-14.84
7.56
27.40
33.72
23.13
1.82
-18.09
-25.49
-16.60
2.64
20.23
25.14
13.79
-7.89
-27.82
-34.91
-25.47
-5.39
13.54
20.65
12.50
-5.11
-20.67
-23.90
-11.75
9.78
29.09
35.66
26.26
6.79
-11.12
-16.90
-7.13
12.26
29.44
33.52
21.01
-2.04
-23.41
-31.84
-23.50
-4.39
13.27
18.36
7.27
-13.94
-33.12
-39.12
-28.22
-6.23
15.08
24.73
18.75
2.31
-13.52
-18.37
-8.53
10.84
28.70
34.66
25.02
5.02
-14.10
-21.69
-13.89
3.91
20.28
24.42
12.66
-9.32
-29.59
-36.96
-27.36
-6.23
14.76
24.40
18.37
1.48
-15.28
-21.24
-12.20
7.08
25.74
33.14
25.02
5.96
-13.29
-22.07
-16.04
0.21
15.98
20.85
10.89
-8.96
-27.65
-34.57
-25.58
-5.60
14.39
23.71
17.93
1.48
-15.18
-21.65
-13.55
4.84
23.14
30.92
23.75
5.79
-12.66
-21.18
-15.41
0.30
15.50
19.94
9.76
-10.01
-28.27
-34.24
-23.85
-2.20
19.26
29.30
23.24
5.63
-12.49
-20.05
-12.19
6.80
26.00
34.25
26.49
6.80
-14.05
-24.78
-20.20
-4.28
12.34
18.74
10.29
-8.49
-26.60
-33.05
-23.55
-3.11
16.90
25.36
17.95
-0.39
-18.32
-24.87
-15.84
3.82
22.74
29.91
21.04
1.13
-18.48
-26.63
-18.75
0.27
18.91
25.79
16.25
-4.82
-25.79
-34.93
-27.26
-7.50
12.79
21.94
14.86
-4.02
-23.31
-31.34
-22.87
-2.05
19.93
31.35
26.70
9.76
-8.64
-17.11
-10.33
7.75
26.12
33.36
24.25
3.04
-19.05
-30.28
-25.15
-7.62
11.37
20.37
14.06
-3.72
-22.21
-30.06
-21.87
-1.38
20.66
32.68
28.86
12.35
-6.49
-16.35
-11.44
4.95
22.36
29.44
20.70
-0.14
-22.14
-33.59
-28.74
-11.24
8.04
17.48
11.46
-6.36
-25.06
-32.92
-24.12
-2.21
21.81
35.77
33.16
16.71
-3.12
-14.38
-10.38
6.36
25.50
35.04
28.37
8.20
-14.89
-28.63
-26.19
-10.26
8.58
18.32
12.53
-5.70
-25.51
-34.81
-27.28
-6.26
17.20
30.65
27.46
10.46
-9.70
-20.88
-16.32
1.35
21.63
32.34
26.71
7.27
-15.53
-29.35
-27.18
-11.41
7.65
17.96
12.93
-4.69
-24.28
-33.71
-26.51
-5.71
17.71
31.27
28.05
10.69
-10.17
-22.23
-18.48
-1.33
18.80
29.64
24.24
5.03
-17.56
-31.16
-28.58
-12.13
7.89
19.35
15.40
-1.45
-20.85
-30.73
-24.41
-4.59
18.16
31.60
28.76
11.97
-8.46
-20.39
-16.78
0.19
20.26
31.15
25.67
6.00
-17.40
-31.84
-29.61
-12.56
9.03
22.50
20.24
4.04
-16.01
-27.59
-23.37
-5.33
16.45
29.84
27.61
11.68
-8.14
-19.95
-16.66
-0.23
19.42
30.15
24.71
4.93
-19.01
-34.44
-33.44
-17.34
3.96
17.91
16.63
1.50
-17.65
-28.47
-23.33
-4.01
19.32
34.04
32.29
15.56
-6.34
-20.92
-20.25
-5.50
13.82
25.53
21.93
4.35
-17.56
-31.50
-29.69
-13.46
7.48
20.81
18.80
2.78
-17.60
-30.13
-27.10
-9.69
12.65
27.88
28.29
14.72
-3.97
-16.33
-14.89
-0.54
18.13
29.96
27.61
11.99
-8.38
-22.33
-22.39
-9.10
9.37
22.04
21.51
8.24
-9.82
-21.94
-20.87
-7.26
10.68
21.96
19.30
3.35
-17.35
-31.41
-31.17
-17.02
2.71
16.67
17.17
4.53
-13.09
-24.62
-22.47
-7.02
13.55
28.01
28.55
15.25
-3.96
-17.89
-18.53
-5.71
12.74
25.62
24.90
10.42
-9.95
-24.91
-26.39
-14.24
3.76
16.59
16.58
3.87
-13.67
-25.23
-23.45
-8.73
10.94
24.71
25.16
12.39
-5.99
-19.42
-20.38
-8.66
8.58
21.11
21.48
9.34
-8.41
-21.66
-22.97
-11.83
5.09
17.85
19.08
8.20
-8.24
-20.40
-20.88
-8.98
8.74
22.42
24.59
14.40
-1.79
-14.26
-15.61
-5.13
10.77
22.47
22.73
11.16
-5.63
-17.91
-18.48
-7.06
9.50
21.27
21.00
8.44
-9.45
-22.45
-23.03
-10.84
7.07
20.15
20.58
7.74
-11.33
-26.07
-28.54
-17.96
-1.24
11.36
12.28
1.09
-15.48
-27.68
-28.55
-17.98
-2.75
7.69
6.71
-5.52
-22.54
-35.52
-38.47
-31.64
-20.99
-14.42
-17.12
-28.32
-41.78
-49.95
-48.60
-39.35
-28.63
-23.46
-27.15
-37.56
-47.90
-50.80
-43.09
-28.26
-14.88
-12.13
-24.61
-49.78
-79.21
-101.25
-105.35
-86.24
-45.57
9.49
69.56
127.07
178.47
223.80
264.19
301.26
334.83
361.73
376.21
372.34
348.21
312.55
274.83
243.97
225.39
218.97
219.27
218.34
206.44
178.86
136.29
83.04
25.66
-29.96
-80.80
-126.40
-167.14
-202.43
-229.87
-246.93
-253.10
-250.16
-241.72
-232.33
-225.65
-223.42
-225.20
-228.59
-231.04
-231.22
-229.34
-226.87
-225.78
-227.61
-232.85
-240.79
-249.67
-257.68
-263.47
-266.56
-267.07
-265.44
-261.89
-256.11
-247.21
-233.88
-216.13
-192.94
-163.63
-128.15
-87.07
-41.42
7.24
56.98
105.60
150.63
189.82
220.91
242.04
251.86
249.73
235.72
210.59
175.57
132.34
82.98
29.71
-25.15
-79.22
-130.14
-175.75
-214.22
-244.18
-264.90
-276.20
-278.52
-272.88
-260.73
-243.76
-223.56
-201.34
-177.70
-152.56
-125.00
-93.51
-56.17
-10.87
44.22
110.13
186.69
272.28
363.82
457.07
547.59
630.82
702.56
759.11
797.38
814.74
808.99
778.47
719.18
630.16
513.59
375.07
222.83
66.24
-85.73
-225.88
-349.22
-452.75
-533.96
-591.67
-624.73
-631.88
-612.01
-564.49
-489.43
-388.09
-263.74
-122.83
24.07
163.49
281.79
368.86
420.97
441.32
437.94
419.85
394.00
363.66
329.53
291.72
251.36
210.65
171.86
136.05
102.75
70.73
39.10
8.13
-20.73
-45.47
-64.57
-77.75
-86.03
-91.35
-95.69
-100.39
-105.66
-110.72
-114.39
-115.71
-114.43
-111.13
-106.90
-102.89
-99.85
-97.86
-96.42
-94.80
-92.39
-88.96
-84.71
-80.11
-75.70
-71.80
-68.46
-65.47
-62.51
-59.32
-55.82
-52.07
-48.24
-44.53
-41.07
-37.93
-35.05
-32.40
-29.94
-27.64
-25.51
-23.54
-21.61
-19.79
-18.13
-16.61
-15.24
-13.99
-12.87
-11.85
-10.92
-10.09
-9.35
-8.69
-8.10
-7.56
-7.06
-6.60
-6.19
-5.79
-5.43
-5.12
-4.83
-4.57
-4.33
-4.10
-3.89
-3.69
-3.50
-3.33
-3.18
-3.03
-2.91
-2.79
-2.67
-2.56
-2.46
-2.37
-2.27
-2.19
-2.12
-2.05
-1.98
-1.92
-1.86
-1.80
-1.74
-1.69
-1.64
-1.59
-1.55
-1.51
-1.47
-1.43
-1.39
-1.35
-1.32
-1.29
-1.25
-1.22
-1.19
-1.16
-1.13
-1.10
-1.08
-1.05
-1.02
-1.00
-0.97
-0.95
-0.92
-0.91
-0.89
-0.86
-0.84
-0.83
-0.81
-0.79
-0.77
-0.75
-0.74
-0.73
-0.71
-0.70
-0.68
-0.67
-0.65
-0.63
-0.61
-0.58
-0.55
-0.51
-0.46
-0.40
-0.33
-0.25
-0.16
-0.07
0.04
0.14
0.26
0.37
0.48
0.58
0.69
0.81
0.95
1.11
1.28
1.45
1.57
1.64
1.67
1.69
1.75
1.92
2.19
2.56
2.98
3.38
3.77
4.10
4.45
4.90
5.49
6.28
7.18
8.14
9.04
9.82
10.50
11.19
12.04
13.23
14.78
16.58
18.39
19.94
21.07
21.81
22.44
23.38
25.00
27.44
30.38
33.30
35.54
36.67
36.57
35.61
34.38
33.33
32.44
30.98
27.83
21.84
12.43
-0.18
-14.77
-29.67
-43.44
-54.78
-63.92
-71.43
-78.07
-84.48
-91.17
-98.55
-106.58
-114.42
-119.35
-117.87
-106.79
-85.21
-55.62
-23.51
4.69
24.20
33.74
35.52
33.28
30.37
28.22
26.51
24.27
21.22
18.11
16.16
16.18
17.82
19.90
21.06
20.29
17.65
14.02
10.66
8.63
8.30
9.21
10.45
11.03
10.39
8.55
6.10
3.82
2.33
1.80
1.96
2.27
2.21
1.48
0.12
-1.56
-3.23
-4.58
-5.61
-6.43
-7.28
-8.29
-9.52
-10.90
-12.30
-13.68
-15.09
-16.62
-18.40
-20.40
-22.46
-24.34
-25.87
-27.04
-28.05
-29.27
-31.07
-33.62
-36.72
-39.77
-42.14
-43.28
-42.97
-41.41
-39.08
-36.35
-33.15
-28.86
-22.22
-12.06
2.26
20.43
41.23
62.76
83.30
101.52
116.40
128.43
138.30
146.77
154.67
162.97
172.04
181.08
187.16
186.32
174.12
148.67
112.53
71.14
31.82
0.29
-21.30
-35.00
-44.93
-54.94
-66.74
-79.47
-91.11
-99.87
-105.60
-109.00
-111.25
-112.99
-114.13
-114.39
-114.00
-114.51
-116.93
-123.08
-131.43
-137.51
-135.42
-120.88
-93.78
-58.88
-24.33
2.00
15.64
17.18
10.91
2.36
-4.22
-6.82
-5.09
0.76
10.57
23.26
36.72
46.97
49.83
43.21
28.54
10.89
-3.28
-8.95
-5.07
5.77
18.99
30.67
39.01
44.23
47.38
48.65
47.13
41.24
29.92
12.82
-9.09
-33.59
-57.00
-74.84
-83.04
-79.45
-65.07
-43.94
-21.88
-4.00
7.15
12.26
14.08
15.37
17.41
19.64
20.82
20.34
18.96
18.25
19.68
23.61
28.94
33.82
36.53
36.33
33.69
29.97
26.55
24.31
23.22
22.18
19.63
14.33
5.69
-5.88
-19.25
-33.14
-46.78
-58.56
-67.69
-73.92
-77.88
-80.52
-82.07
-82.39
-81.45
-78.89
-74.33
-68.04
-61.01
-54.61
-51.21
-51.86
-56.92
-66.48
-79.55
-94.11
-108.47
-121.82
-133.98
-146.71
-159.85
-172.38
-183.03
-189.37
-187.80
-174.36
-148.76
-112.42
-70.20
-24.93
21.75
60.53
83.37
87.04
75.32
54.30
42.43
39.62
43.16
51.77
66.82
82.80
99.65
121.79
151.28
186.75
222.30
254.61
282.83
307.66
331.39
357.39
392.53
439.28
494.43
549.04
595.36
628.01
643.74
641.72
590.73
482.17
331.54
169.15
20.34
-101.90
-195.53
-264.25
-312.95
-346.10
-362.55
-362.99
-351.22
-333.54
-314.77
-297.08
-280.82
-264.72
-248.02
-226.69
-198.96
-165.99
-130.87
-96.03
-62.29
-33.15
-9.23
8.89
23.15
34.53
42.94
47.94
49.77
49.84
50.08
52.76
58.57
67.13
75.00
76.16
64.53
37.31
-2.85
-48.71
-90.66
-121.64
-139.08
-145.70
-147.48
-150.33
-158.19
-171.13
-186.81
-201.10
-209.72
-209.19
-197.97
-177.29
-150.79
-123.78
-101.04
-85.36
-76.66
-73.04
-72.31
-73.31
-76.07
-80.43
-85.83
-90.90
-94.15
-94.81
-93.60
-92.51
-93.91
-99.70
-109.40
-121.14
-132.06
-139.26
-140.61
-135.21
-123.17
-104.74
-84.98
-65.69
-46.96
-27.46
-5.30
20.96
51.49
84.73
117.75
147.25
171.58
190.53
205.57
219.09
233.29
249.41
267.57
287.25
307.75
328.77
348.94
365.36
373.79
370.03
351.86
320.27
279.14
233.08
185.76
138.37
90.97
44.95
5.12
-20.67
-24.58
-3.14
39.76
93.35
143.65
178.91
193.83
190.43
175.63
157.03
139.53
124.29
110.34
96.79
84.33
75.00
70.56
70.87
73.49
74.82
72.03
64.41
53.44
41.84
32.20
25.90
22.59
20.38
16.48
8.43
-4.68
-21.45
-38.37
-51.23
-57.05
-55.59
-49.50
-43.11
-40.34
-42.98
-50.13
-58.94
-65.92
-68.43
-65.23
-56.55
-43.90
-29.69
-16.80
-7.60
-2.94
-1.63
-0.85
2.53
10.35
22.51
37.33
52.72
67.29
80.55
92.39
102.33
109.30
112.22
110.81
105.85
98.67
90.06
79.84
67.45
