1542719953.00
64.000000
-0.00
-0.00
-0.00
-0.00
-0.00
-0.00
-0.00
-0.00
-0.00
-0.00
0.00
0.01
0.01
-0.00
-0.03
-0.05
-0.05
0.00
0.13
0.36
0.66
1.01
1.37
1.72
2.06
2.40
2.79
3.24
3.80
4.42
5.06
5.66
6.20
6.68
7.15
7.68
8.31
9.14
10.09
11.04
11.88
12.56
13.14
13.76
14.65
15.96
17.91
20.32
22.90
25.38
27.58
29.57
31.68
34.32
37.81
42.54
48.15
54.10
59.83
64.97
69.58
74.14
79.34
85.71
93.76
103.00
112.62
121.73
129.77
136.75
143.30
150.75
157.77
166.64
177.95
191.79
206.97
220.57
228.25
225.36
208.53
176.87
132.76
80.05
23.07
-34.94
-92.44
-149.16
-205.23
-260.37
-313.74
-363.87
-409.83
-450.91
-486.50
-515.74
-537.23
-549.22
-549.96
-538.37
-514.21
-478.67
-433.88
-382.45
-327.02
-269.84
-212.63
-156.66
-102.95
-52.37
-5.90
35.58
71.43
101.35
125.50
144.38
158.69
169.15
176.37
180.75
182.57
182.07
179.51
175.23
169.65
163.18
156.15
148.81
141.30
133.69
126.02
118.33
110.69
103.16
95.80
88.68
81.83
75.25
68.95
62.95
57.25
51.86
46.78
42.03
37.59
33.45
29.61
26.07
22.81
19.83
17.11
14.67
12.48
10.54
8.83
7.35
6.07
4.97
4.05
3.27
2.62
2.09
1.65
1.30
1.01
0.79
0.61
0.47
0.37
0.28
0.23
0.18
0.15
0.13
0.13
0.13
0.14
0.16
0.18
0.21
0.25
0.29
0.33
0.37
0.42
0.46
0.51
0.56
0.61
0.67
0.72
0.78
0.84
0.91
1.00
1.11
1.24
1.36
1.45
1.52
1.56
1.59
1.65
1.77
1.97
2.24
2.56
2.88
3.17
3.42
3.68
3.98
4.38
4.89
5.51
6.17
6.80
7.33
7.77
8.17
8.65
9.32
10.23
11.33
12.48
13.47
14.17
14.56
14.81
15.14
15.78
16.81
18.00
18.91
18.97
17.76
15.15
11.39
6.99
2.53
-1.67
-5.65
-9.83
-14.73
-20.69
-27.57
-34.71
-41.09
-45.91
-48.69
-49.65
-49.50
-49.19
-49.54
-51.24
-54.67
-59.76
-65.57
-70.02
-70.42
-64.33
-50.81
-31.25
-9.18
10.98
25.57
33.04
34.28
31.77
28.23
25.46
23.85
22.90
21.85
20.24
18.10
15.71
13.34
11.20
9.27
7.22
4.76
1.83
-1.29
-4.06
-6.04
-7.30
-8.21
-9.51
-11.68
-14.45
-16.78
-17.40
-15.48
-11.22
-5.81
-0.63
3.14
5.11
5.60
5.29
4.73
4.27
4.12
3.37
1.92
-0.15
-2.49
-4.69
-6.36
-7.24
-7.25
-6.66
-5.99
-5.66
-6.06
-7.32
-9.12
-11.04
-12.65
-13.79
-14.57
-15.42
-16.70
-18.81
-22.07
-26.61
-32.23
-38.26
-43.67
-47.27
-48.06
-45.37
-39.25
-30.20
-19.11
-7.04
4.92
15.84
24.90
31.69
36.20
38.70
39.53
39.01
37.28
34.45
30.83
26.94
23.63
21.53
20.86
21.25
22.03
22.45
22.11
20.99
19.30
17.16
14.52
11.20
7.17
2.73
-1.58
-5.11
-7.47
-8.67
-9.17
-9.64
-10.77
-12.93
-16.32
-20.84
-26.18
-31.77
-36.72
-39.82
-39.97
-36.44
-29.30
-19.56
-8.71
1.65
10.41
17.14
21.96
25.19
26.99
27.45
26.65
24.98
23.13
21.80
21.45
22.12
23.40
24.80
26.03
27.01
27.86
28.64
29.17
29.13
28.11
25.81
22.32
18.03
13.62
9.82
6.96
4.85
2.90
0.36
-3.10
-7.31
-11.75
-15.94
-19.77
-23.52
-27.63
-32.33
-37.54
-42.96
-48.25
-53.14
-57.23
-59.84
-60.13
-57.59
-52.57
-46.41
-40.93
-37.52
-36.50
-37.03
-37.82
-37.91
-37.15
-35.94
-34.62
-32.93
-29.96
-24.71
-16.65
-6.05
6.25
19.33
32.51
45.44
57.87
69.39
79.48
87.59
93.35
96.66
97.63
96.50
93.51
89.03
83.46
77.30
70.96
64.79
58.82
52.95
47.00
40.82
34.45
28.13
22.21
17.05
12.95
10.05
8.45
8.10
8.89
10.56
12.70
14.83
16.49
17.47
17.80
17.64
17.06
15.92
14.00
11.15
7.56
3.83
0.76
-0.95
-1.01
0.40
2.74
5.37
7.68
9.24
9.91
9.68
8.70
7.11
5.05
2.60
-0.18
-3.18
-6.10
-8.63
-10.48
-11.55
-12.02
-12.24
-12.67
-13.65
-15.21
-17.03
-18.56
-19.15
-18.31
-15.91
-12.28
-8.08
-4.08
-0.88
1.30
2.66
3.66
4.73
6.07
7.45
8.48
8.78
8.21
7.02
5.71
4.81
4.62
5.04
5.69
6.12
6.13
5.76
5.26
4.78
4.33
3.67
2.55
0.85
-1.38
-3.92
-6.54
-9.00
-11.14
-12.72
-13.48
-13.17
-11.76
-9.48
-6.88
-4.57
-2.90
-1.79
-0.73
0.93
3.53
6.92
10.42
13.22
14.74
15.02
14.69
14.46
14.86
15.97
17.86
20.86
25.89
33.98
45.49
59.41
73.37
84.53
90.91
92.35
90.50
87.79
85.93
85.00
83.48
79.40
71.65
60.63
47.80
34.45
20.46
4.11
-17.08
-44.64
-77.66
-112.31
-142.98
-164.28
-172.94
-168.93
-155.04
-135.45
-114.11
-93.78
-75.81
-60.60
-48.00
-37.64
-28.80
-20.36
-10.88
1.01
16.34
35.52
58.35
84.20
112.25
141.59
171.36
200.58
228.17
252.76
272.69
286.25
292.15
290.03
280.73
266.11
248.45
229.74
211.43
194.34
178.91
165.21
152.87
140.59
126.18
107.05
81.01
47.21
6.25
-40.02
-89.33
-139.63
-189.11
-236.08
-278.59
-314.60
-342.31
-360.79
-370.16
-371.52
-366.31
-355.85
-341.09
-322.60
-301.07
-277.42
-252.90
-228.72
-205.68
-183.90
-162.88
-142.11
-121.60
-102.20
-85.28
-72.08
-63.00
-57.09
-52.45
-46.92
-39.08
-28.78
-17.18
-6.08
2.83
8.62
11.30
11.62
10.75
9.74
9.37
9.79
10.75
11.81
12.55
12.80
12.47
11.44
9.29
5.41
-0.84
-9.78
-21.03
-33.48
-45.54
-55.56
-62.38
-65.57
-65.41
-62.59
-57.82
-51.58
-44.06
-35.31
-25.52
-15.12
-4.81
4.73
13.14
20.48
27.12
33.56
40.03
46.39
52.30
57.45
61.73
65.33
68.47
71.28
73.67
75.42
76.33
76.29
75.29
73.15
69.57
64.16
56.78
47.82
38.36
29.84
23.64
20.52
20.49
22.99
27.16
32.24
37.60
42.64
46.68
49.05
49.21
47.12
43.29
38.54
33.62
28.87
24.09
18.79
12.55
5.36
-2.39
-10.10
-17.32
-23.93
-30.22
-36.59
-43.36
-50.69
-58.56
-67.00
-76.07
-85.81
-95.91
-105.51
-113.26
-117.62
-117.53
-112.82
-104.30
-93.51
-82.14
-71.43
-61.98
-53.83
-46.74
-40.44
-34.68
-29.23
-23.80
-18.13
-12.13
-5.99
-0.10
5.12
9.42
12.80
15.44
17.49
19.03
19.93
19.98
18.93
16.64
13.13
8.68
3.84
-0.45
-3.05
-2.82
0.94
8.19
18.09
29.22
39.96
48.93
55.31
58.84
59.69
58.31
55.23
51.03
46.28
41.54
37.29
33.94
31.67
30.49
30.21
30.45
30.81
30.87
30.30
28.87
26.55
23.34
19.25
14.25
8.33
1.68
-5.22
-11.45
-15.89
-17.40
-15.21
-9.14
0.27
11.90
24.26
35.87
45.47
52.28
55.97
56.58
54.44
50.08
44.19
37.74
31.74
27.10
24.22
22.82
22.06
20.91
18.65
15.26
11.20
7.10
3.26
-0.62
-5.15
-10.84
-17.67
-24.90
-31.26
-35.36
-36.15
-33.17
-26.63
-17.24
-6.08
5.71
17.03
26.98
34.82
40.09
42.59
42.47
40.21
36.55
32.31
28.23
24.83
22.27
20.45
19.03
17.58
15.76
13.37
10.46
7.23
3.93
0.63
-2.82
-6.77
-11.56
-17.16
-23.05
-28.20
-31.36
-31.51
-28.18
-21.54
-12.34
-1.59
9.64
20.42
29.88
37.26
41.92
43.51
42.18
38.61
33.89
29.14
25.16
22.19
20.02
18.18
16.30
14.23
12.00
9.75
7.49
5.14
2.55
-0.43
-3.87
-7.87
-12.53
-17.92
-23.87
-29.77
-34.56
-36.97
-35.91
-30.95
-22.49
-11.60
0.31
11.93
22.24
30.56
36.42
39.50
39.73
37.41
33.28
28.39
23.80
20.20
17.85
16.55
15.87
15.34
14.67
13.69
12.32
10.54
8.38
5.90
3.18
0.29
-2.82
-6.32
-10.49
-15.48
-21.22
-27.25
-32.75
-36.72
-38.15
-36.38
-31.21
-23.13
-13.04
-2.14
8.44
17.80
25.38
30.96
34.54
36.19
35.97
34.02
30.56
26.02
21.06
16.43
12.82
10.64
9.97
10.42
11.38
12.10
12.02
10.84
8.63
5.65
2.26
-1.28
-4.82
-8.33
-11.81
-15.32
-18.91
-22.78
-27.10
-31.88
-36.75
-40.80
-42.78
-41.47
-36.25
-27.39
-16.06
-3.86
7.61
17.23
24.52
29.45
32.25
33.09
32.08
29.35
25.31
20.59
16.03
12.36
9.94
8.67
8.11
7.76
7.25
6.47
5.33
3.76
1.65
-1.01
-3.97
-6.81
-9.14
-10.92
-12.49
-14.49
-17.47
-21.63
-26.72
-32.09
-36.87
-40.12
-40.93
-38.66
-33.08
-24.63
-14.38
-3.73
5.93
13.71
19.29
22.91
24.94
25.73
25.48
24.31
22.43
20.20
18.04
16.29
15.06
14.18
13.39
12.42
11.18
9.70
8.07
6.23
3.96
1.06
-2.47
-6.28
-9.82
-12.67
-14.87
-16.93
-19.57
-23.18
-27.48
-31.49
-33.87
-33.52
-30.07
-23.94
-16.15
-7.88
-0.07
6.76
12.41
16.80
19.75
21.05
20.46
18.06
14.22
9.75
5.54
2.38
0.66
0.28
0.76
1.48
1.94
1.91
1.37
0.50
-0.56
-1.73
-3.03
-4.56
-6.45
-8.80
-11.68
-15.16
-19.18
-23.57
-27.92
-31.55
-33.66
-33.52
-30.75
-25.46
-18.25
-10.07
-1.95
5.30
11.20
15.63
18.65
20.34
20.70
19.70
17.41
14.20
10.64
7.48
5.30
4.36
4.49
5.19
5.89
6.10
5.55
4.20
2.22
-0.14
-2.59
-4.96
-7.27
-9.69
-12.57
-16.10
-20.18
-24.32
-27.69
-29.42
-28.85
-25.79
-20.50
-13.65
-6.05
1.44
8.05
13.25
16.73
18.44
18.44
17.00
14.49
11.42
8.37
5.86
4.20
3.35
2.98
2.63
1.97
0.93
-0.26
-1.32
-2.13
-2.84
-3.90
-5.71
-8.41
-11.85
-15.64
-19.43
-23.03
-26.41
-29.48
-31.89
-32.96
-31.93
-28.31
-22.24
-14.48
-6.23
1.32
7.44
11.86
14.73
16.21
16.39
15.34
13.24
10.61
8.15
6.52
6.03
6.48
7.30
7.87
7.77
6.92
5.55
3.96
2.39
0.85
-0.78
-2.73
-5.23
-8.43
-12.29
-16.51
-20.52
-23.59
-25.02
-24.36
-21.51
-16.72
-10.41
-3.16
4.40
11.60
17.69
21.98
23.98
23.62
21.32
17.82
14.05
10.82
8.62
7.58
7.47
7.81
8.06
7.79
6.81
5.24
3.37
1.55
0.00
-1.27
-2.45
-3.91
-6.00
-9.00
-12.92
-17.47
-22.01
-25.66
-27.54
-26.98
-23.83
-18.52
-11.89
-4.90
1.65
7.32
11.96
15.49
17.84
18.83
18.35
16.54
13.83
10.94
8.58
7.27
7.07
7.67
8.49
8.93
8.61
7.43
5.64
3.67
1.92
0.53
-0.70
-2.26
-4.69
-8.30
-12.92
-17.92
-22.36
-25.36
-26.26
-24.86
-21.32
-16.08
-9.73
-2.96
3.62
9.39
13.88
16.73
17.79
17.13
15.07
12.13
8.92
6.07
4.01
2.96
2.80
3.21
3.73
3.95
3.58
2.53
0.92
-1.04
-3.07
-5.00
-6.78
-8.53
-10.48
-12.85
-15.72
-18.90
-21.95
-24.24
-25.10
-24.09
-21.07
-16.24
-10.11
-3.25
3.72
10.22
15.73
19.74
21.91
22.07
20.40
17.38
13.74
10.32
7.74
6.36
6.05
6.37
6.71
6.58
5.71
4.21
2.35
0.43
-1.42
-3.20
-5.06
-7.20
-9.73
-12.69
-15.92
-19.11
-21.77
-23.30
-23.16
-21.09
-17.08
-11.46
-4.76
2.39
9.34
15.40
19.98
22.68
23.45
22.59
20.64
18.15
15.53
13.02
10.76
8.84
7.25
5.94
4.64
3.07
1.05
-1.31
-3.62
-5.48
-6.78
-7.84
-9.35
-11.94
-15.83
-20.67
-25.62
-29.72
-32.14
-32.39
-30.30
-25.94
-19.57
-11.73
-3.19
5.16
12.48
18.24
22.22
24.55
25.46
25.19
23.97
22.07
19.86
17.72
15.89
14.37
12.87
11.07
8.81
6.21
3.56
1.15
-1.01
-3.21
-5.88
-9.33
-13.65
-18.64
-23.91
-29.05
-33.57
-36.89
-38.29
-37.02
-32.67
-25.35
-15.90
-5.59
4.17
12.35
18.41
22.30
24.17
24.21
22.57
19.55
15.64
11.54
7.99
5.52
4.30
4.11
4.55
5.12
5.41
5.18
4.37
3.10
1.54
-0.08
-1.63
-3.11
-4.69
-6.66
-9.26
-12.51
-16.17
-19.70
-22.42
-23.65
-22.89
-19.94
-14.85
-7.98
0.11
8.71
17.04
24.37
30.16
34.01
35.85
35.82
34.33
31.89
29.04
26.22
23.74
21.64
19.87
18.28
16.71
15.07
13.33
11.44
9.32
6.91
4.14
1.11
-2.01
-5.09
-8.11
-11.14
-14.32
-17.67
-21.08
-24.26
-26.82
-28.39
-28.62
-27.24
-24.09
-19.21
-12.95
-5.90
1.17
7.55
12.68
16.32
18.47
19.27
18.92
17.68
15.83
13.74
11.79
10.36
9.64
9.62
9.97
10.27
10.10
9.25
7.78
6.03
4.35
2.86
1.41
-0.40
-2.96
-6.34
-10.34
-14.56
-18.60
-22.20
-25.19
-27.34
-28.31
-27.73
-25.33
-21.16
-15.57
-9.11
-2.39
4.07
9.84
14.52
17.79
19.40
19.39
18.04
15.89
13.50
11.32
9.58
8.34
7.60
7.31
7.36
7.59
7.69
7.39
6.47
4.99
3.20
1.47
-0.01
-1.31
-2.76
-4.78
-7.63
-11.29
-15.42
-19.48
-22.93
-25.25
-26.02
-24.99
-22.02
-17.25
-11.14
-4.40
2.06
7.41
11.10
12.95
13.19
12.23
10.55
8.52
6.29
3.85
1.13
-1.82
-4.86
-7.69
-10.09
-11.98
-13.57
-15.26
-17.49
-20.49
-24.25
-28.52
-32.92
-37.13
-41.04
-44.76
-48.66
-53.12
-58.42
-64.46
-70.77
-76.51
-80.81
-82.96
-82.58
-79.65
-74.35
-66.91
-57.59
-46.70
-34.72
-22.31
-10.11
1.46
12.33
22.77
33.11
43.51
53.72
63.17
71.07
76.71
79.71
80.04
78.08
74.43
69.74
64.58
59.28
54.04
48.90
43.89
38.94
33.93
28.64
22.81
16.36
9.58
3.17
-1.94
-4.86
-5.17
-3.04
0.82
5.48
10.09
14.13
17.40
19.92
21.78
23.01
23.56
23.37
22.39
20.71
18.52
16.12
13.87
12.05
10.77
9.94
9.33
8.63
7.59
6.09
4.18
1.99
-0.27
-2.45
-4.50
-6.41
-8.34
-10.42
-12.84
-15.71
-18.98
-22.39
-25.46
-27.53
-27.95
-26.24
-22.22
-16.18
-8.73
-0.73
6.95
13.56
18.63
21.89
23.34
23.22
21.93
19.94
17.71
15.55
13.66
12.11
11.00
10.40
10.35
10.71
11.11
11.07
10.11
8.09
5.15
1.72
-1.75
-4.94
-7.77
-10.24
-12.43
-14.37
-16.19
-18.06
-20.18
-22.61
-25.06
-26.98
-27.65
-26.45
-23.18
-18.03
-11.51
-4.26
3.09
9.94
15.79
20.18
22.83
23.72
23.12
21.56
19.59
17.64
15.91
14.45
13.26
12.33
11.70
11.37
11.28
11.24
11.02
10.42
9.34
7.84
6.08
4.23
2.37
0.50
-1.47
-3.59
-5.87
-8.26
-10.70
-13.20
-15.82
-18.64
-21.63
-24.53
-26.84
-28.00
-27.50
-25.17
-21.23
-16.19
-10.64
-5.04
0.30
5.25
9.73
13.55
16.47
18.25
18.75
18.09
16.55
14.56
12.53
10.74
9.31
8.25
7.51
7.09
6.99
7.20
7.58
7.89
7.85
7.26
6.12
4.60
2.96
1.30
-0.49
-2.64
-5.30
-8.34
-11.42
-14.10
-16.18
-17.72
-18.97
-20.11
-21.03
-21.29
-20.32
-17.73
-13.50
-8.03
-2.03
3.78
8.78
12.61
15.12
16.32
16.36
15.48
13.99
12.18
10.35
8.73
7.44
6.51
5.95
5.71
5.74
5.92
6.05
5.86
5.09
3.70
1.86
-0.05
-1.66
-2.83
-3.65
-4.43
-5.36
-6.55
-7.92
-9.43
-11.17
-13.30
-15.85
-18.54
-20.79
-21.87
-21.27
-18.89
-15.04
-10.27
-5.13
-0.04
4.70
8.81
11.97
13.91
14.52
13.96
12.64
11.07
9.60
8.44
7.56
6.90
6.44
6.18
6.05
5.84
5.34
4.37
3.04
1.62
0.47
-0.31
-0.96
-1.97
-3.81
-6.62
-10.16
-13.90
-17.28
-19.92
-21.70
-22.61
-22.66
-21.73
-19.69
-16.54
-12.46
-7.83
-3.05
1.50
5.50
8.79
11.16
12.51
12.77
12.02
10.46
8.42
6.28
4.34
2.81
1.72
0.93
0.23
-0.56
-1.54
-2.65
-3.75
-4.71
-5.57
-6.49
-7.67
-9.23
-11.08
-13.01
-14.85
-16.59
-18.41
-20.45
-22.61
-24.46
-25.26
-24.35
-21.38
-16.57
-10.62
-4.41
1.30
6.07
9.77
12.40
14.03
14.62
14.17
12.76
10.71
8.44
6.37
4.76
3.64
2.87
2.24
1.58
0.77
-0.20
-1.38
-2.70
-4.08
-5.46
-6.75
-8.07
-9.63
-11.74
-14.58
-18.05
-21.62
-24.56
-26.11
-25.75
-23.41
-19.39
-14.21
-8.42
-2.54
3.04
7.98
11.99
14.85
16.48
16.95
16.43
15.16
13.39
11.42
9.52
7.89
6.65
5.69
4.81
3.83
2.66
1.39
0.20
-0.79
-1.65
-2.61
-3.96
-5.90
-8.49
-11.70
-15.36
-19.15
-22.58
-24.97
-25.63
-24.09
-20.35
-14.94
-8.67
-2.42
3.23
8.05
12.05
15.27
17.57
18.77
18.67
17.37
15.27
12.99
11.12
9.99
9.64
9.76
9.94
9.81
9.16
8.00
6.40
4.46
2.26
-0.16
-2.73
-5.37
-8.11
-11.03
-14.27
-17.89
-21.63
-24.93
-26.99
-27.03
-24.58
-19.67
-12.85
-5.01
2.91
10.08
15.95
20.29
23.05
24.33
24.32
23.27
21.50
19.36
17.24
15.46
14.14
13.19
12.34
11.37
10.20
8.92
7.75
6.82
6.06
5.31
4.36
3.12
1.67
0.14
-1.41
-3.08
-5.10
-7.75
-11.17
-15.24
-19.55
-23.49
-26.37
-27.58
-26.65
-23.42
-18.04
-11.02
-3.11
4.77
11.80
17.37
21.25
23.57
24.63
24.78
24.18
22.95
21.19
19.20
17.40
16.24
15.91
16.24
16.79
17.07
16.76
15.89
14.64
13.21
11.62
9.71
7.33
4.44
1.19
-2.13
-5.29
-8.15
-10.70
-13.03
-15.27
-17.60
-20.17
-23.13
-26.47
-29.84
-32.52
-33.61
-32.28
-28.21
-21.66
-13.48
-4.69
3.72
11.08
17.02
21.29
23.73
24.25
22.98
20.42
17.38
14.78
13.26
13.01
13.70
14.73
15.49
15.67
15.30
14.64
14.06
13.78
13.82
14.01
14.00
13.40
11.86
9.25
5.67
1.47
-2.86
-6.82
-10.17
-12.89
-15.22
-17.49
-19.89
-22.33
-24.44
-25.62
-25.27
-22.99
-18.70
-12.77
-5.81
1.44
8.25
14.08
18.54
21.43
22.65
22.34
20.78
18.43
15.77
13.20
11.01
9.31
8.11
7.33
6.85
6.51
6.14
5.59
4.72
3.47
1.88
0.03
-1.92
-3.77
-5.38
-6.70
-7.81
-8.98
-10.51
-12.75
-15.79
-19.54
-23.59
-27.28
-29.83
-30.44
-28.56
-24.07
-17.43
-9.49
-1.35
6.02
12.03
16.43
19.27
20.63
20.61
19.31
16.97
14.07
11.22
9.04
7.85
7.61
7.90
8.24
8.27
7.93
7.40
6.91
6.53
6.06
5.13
3.41
0.82
-2.41
-5.83
-9.01
-11.68
-13.87
-15.77
-17.60
-19.40
-20.97
-21.95
-21.91
-20.51
-17.64
-13.45
-8.27
-2.64
2.86
7.64
11.24
13.41
14.17
13.77
12.62
11.08
9.39
7.67
5.99
4.46
3.29
2.65
2.57
2.89
3.26
3.34
2.91
1.91
0.46
-1.25
-3.02
-4.71
-6.24
-7.62
-8.98
-10.50
-12.38
-14.70
-17.26
-19.70
-21.39
-21.79
-20.50
-17.44
-12.91
-7.46
-1.77
3.57
8.17
11.86
14.64
16.51
17.37
17.12
15.70
13.33
10.44
7.62
5.34
3.87
3.14
2.93
2.94
2.91
2.63
2.01
0.98
-0.39
-2.02
-3.77
-5.59
-7.53
-9.69
-12.24
-15.20
-18.44
-21.56
-24.01
-25.11
-24.30
-21.35
-16.45
-10.22
-3.45
3.10
8.91
13.67
17.23
19.37
19.89
18.75
16.20
12.88
9.65
7.23
5.95
5.66
5.86
5.98
5.62
4.73
3.52
2.28
1.22
0.35
-0.53
-1.72
-3.48
-5.92
-8.99
-12.50
-16.19
-19.72
-22.70
-24.64
-25.03
-23.50
-19.91
-14.54
-8.04
-1.29
4.84
9.72
13.06
14.95
15.73
15.78
15.38
14.64
13.57
12.13
10.44
8.70
7.22
6.18
5.59
5.25
4.87
4.23
3.21
1.88
0.28
-1.53
-3.57
-5.93
-8.67
-11.78
-15.16
-18.61
-21.78
-24.21
-25.38
-24.87
-22.46
-18.30
-12.80
-6.51
-0.01
6.26
11.84
16.23
18.90
19.45
17.90
14.76
11.00
7.72
5.70
5.15
5.64
6.43
6.79
6.37
5.17
3.46
1.58
-0.31
-2.18
-4.16
-6.40
-9.06
-12.28
-16.05
-20.18
-24.21
-27.48
-29.25
-28.92
-26.24
-21.36
-14.77
-7.17
0.69
8.11
14.49
19.36
22.45
23.70
23.27
21.50
18.86
15.85
12.92
10.42
8.55
7.30
6.52
5.94
5.27
4.31
2.97
1.32
-0.54
-2.50
-4.58
-6.92
-9.77
-13.34
-17.66
-22.35
-26.67
-29.65
-30.36
-28.23
-23.26
-16.00
-7.39
1.46
9.59
16.30
21.28
24.46
25.97
26.02
24.87
22.78
20.11
17.32
14.93
13.35
12.75
13.01
13.67
14.19
14.02
12.90
10.83
8.08
5.04
2.12
-0.43
-2.55
-4.45
-6.51
-9.10
-12.47
-16.55
-20.99
-25.11
-28.15
-29.34
-28.13
-24.32
-18.10
-10.06
-1.10
7.78
15.66
21.89
26.17
28.54
29.28
28.78
27.45
25.62
23.57
21.53
19.73
18.34
17.48
17.08
16.89
16.56
15.83
14.66
13.23
11.81
10.53
9.31
7.88
5.99
3.57
0.76
-2.22
-5.23
-8.26
-11.45
-14.85
-18.43
-21.93
-25.03
-27.32
-28.38
-27.76
-25.11
-20.32
-13.72
-6.05
1.72
8.70
14.33
18.48
21.25
22.76
23.05
22.14
20.23
17.76
15.34
13.52
12.46
11.98
11.72
11.39
10.95
10.61
10.54
10.74
10.89
10.57
9.45
7.51
5.00
2.34
-0.15
-2.31
-4.24
-6.12
-8.22
-10.74
-13.77
-17.22
-20.73
-23.66
-25.29
-24.96
-22.35
-17.63
-11.41
-4.57
1.99
7.65
12.06
15.11
16.79
17.13
16.19
14.20
11.57
8.89
6.75
5.53
5.28
5.75
6.52
7.16
7.41
7.15
6.36
5.10
3.44
1.48
-0.69
-2.97
-5.28
-7.57
-9.74
-11.80
-13.76
-15.73
-17.83
-20.08
-22.30
-23.99
-24.50
-23.24
-19.94
-14.86
-8.69
-2.34
3.39
7.97
11.21
13.13
13.79
13.26
11.70
9.41
6.86
4.64
3.20
2.72
3.02
3.67
4.18
4.15
3.43
2.07
0.26
-1.75
-3.71
-5.43
-6.70
-7.42
-7.63
-7.59
-7.75
-8.60
-10.44
-13.17
-16.24
-18.74
-19.83
-19.02
-16.36
-12.42
-7.92
-3.47
0.60
4.21
7.29
9.66
10.99
11.09
10.04
8.28
6.44
5.06
4.33
4.09
3.96
3.60
2.91
2.05
1.36
1.06
1.15
1.41
1.49
1.09
0.16
-1.23
-2.92
-4.81
-6.93
-9.33
-11.90
-14.31
-16.05
-16.58
-15.65
-13.32
-10.02
-6.27
-2.51
0.96
4.00
6.46
8.17
8.96
8.75
7.65
5.99
4.19
2.66
1.64
1.18
1.18
1.41
1.65
1.73
1.58
1.20
0.63
-0.10
-0.95
-2.00
-3.34
-5.07
-7.23
-9.76
-12.48
-15.09
-17.17
-18.22
-17.77
-15.59
-11.73
-6.70
-1.28
3.63
7.32
9.45
10.09
9.64
8.62
7.50
6.54
5.82
5.22
4.60
3.85
2.97
2.01
1.13
0.44
-0.06
-0.43
-0.77
-1.22
-1.86
-2.81
-4.17
-6.07
-8.52
-11.36
-14.16
-16.29
-17.15
-16.32
-13.84
-10.08
-5.71
-1.33
2.61
5.95
8.65
10.68
11.94
12.27
11.61
10.09
8.04
5.90
4.02
2.55
1.43
0.55
-0.20
-0.88
-1.47
-1.97
-2.47
-3.08
-3.89
-4.88
-6.00
-7.17
-8.38
-9.65
-10.94
-12.02
-12.55
-12.07
-10.32
-7.30
-3.37
0.85
4.74
7.86
10.09
11.47
12.13
12.11
11.38
9.96
8.05
6.03
4.29
3.11
2.46
2.08
1.63
0.93
0.02
-0.91
-1.78
-2.68
-3.86
-5.51
-7.60
-9.87
-11.95
-13.57
-14.57
-14.84
-14.19
-12.34
-9.01
-4.23
1.48
7.24
12.03
15.13
16.36
16.05
14.84
13.27
11.58
9.80
7.84
5.82
4.09
3.07
2.98
3.60
4.36
4.50
3.49
1.21
-2.03
-5.70
-9.28
-12.52
-15.30
-17.57
-19.15
-19.74
-18.98
-16.70
-13.03
-8.35
-3.23
1.77
6.17
9.64
12.05
13.38
13.75
13.37
12.43
11.11
9.60
8.03
6.53
5.27
4.34
3.76
3.43
3.11
2.53
1.46
-0.12
-2.07
-4.12
-6.10
-8.01
-10.01
-12.33
-15.06
-17.97
-20.52
-21.93
-21.51
-18.91
-14.31
-8.38
-2.04
3.88
8.83
12.71
15.60
17.69
19.02
19.49
18.98
17.54
15.48
13.34
11.74
11.01
11.12
11.70
12.13
11.92
10.89
9.20
7.19
5.22
3.46
1.95
0.62
-0.60
-1.79
-3.04
-4.57
-6.61
-9.29
-12.52
-15.90
-18.81
-20.56
-20.69
-18.99
-15.56
-10.74
-5.06
0.81
6.23
10.68
13.88
15.84
16.77
16.93
16.56
15.86
14.97
14.09
13.36
12.84
12.48
12.13
11.65
11.06
10.45
9.94
9.50
8.89
7.82
6.09
3.79
1.25
-1.04
-2.75
-3.83
-4.53
-5.23
-6.27
-7.77
-9.72
-11.97
-14.31
-16.57
-18.40
-19.35
-18.87
-16.51
-12.23
-6.48
-0.15
5.76
10.47
13.66
15.45
16.15
16.07
15.32
13.94
12.09
10.11
8.48
7.62
7.67
8.41
9.44
10.32
10.72
10.52
9.75
8.56
7.13
5.60
4.03
2.40
0.66
-1.30
-3.49
-5.78
-8.05
-10.23
-12.32
-14.41
-16.52
-18.52
-20.14
-21.01
-20.85
-19.51
-17.02
-13.57
-9.43
-4.95
-0.55
3.34
6.42
8.57
9.85
10.44
10.46
9.92
8.78
7.11
5.18
3.45
2.35
2.10
2.58
3.40
4.11
4.37
4.09
3.39
2.46
1.46
0.45
-0.62
-1.85
-3.26
-4.86
-6.59
-8.44
-10.41
-12.53
-14.77
-16.90
-18.54
-19.16
-18.32
-15.84
-11.95
-7.28
-2.61
1.34
4.13
5.67
6.16
5.90
5.23
4.52
3.99
3.80
3.92
4.18
4.40
4.43
4.19
3.73
3.17
2.60
2.06
1.53
0.95
0.26
-0.54
-1.44
-2.42
-3.44
-4.47
-5.47
-6.46
-7.41
-8.34
-9.25
-10.10
-10.76
-11.00
-10.56
-9.18
-6.77
-3.53
0.07
3.45
6.15
7.98
9.03
9.59
9.89
9.98
9.78
9.17
8.15
6.83
5.47
4.25
3.30
2.59
2.01
1.40
0.68
-0.10
-0.83
-1.39
-1.73
-1.94
-2.28
-3.02
-4.38
-6.38
-8.87
-11.48
-13.84
-15.59
-16.49
-16.39
-15.27
-13.21
-10.44
-7.22
-3.84
-0.56
2.43
4.95
6.84
7.96
8.26
7.79
6.79
5.58
4.49
3.75
3.44
3.43
3.49
3.37
2.91
2.14
1.22
0.37
-0.29
-0.85
-1.54
-2.60
-4.15
-6.12
-8.29
-10.46
-12.49
-14.30
-15.70
-16.44
-16.11
-14.48
-11.59
-7.90
-4.05
-0.66
1.99
3.90
5.27
6.26
6.88
7.02
6.61
5.78
4.81
4.03
3.62
3.54
3.60
3.56
3.32
2.89
2.32
1.67
0.89
-0.05
-1.19
-2.46
-3.77
-5.08
-6.47
-8.12
-10.16
-12.51
-14.75
-16.29
-16.54
-15.21
-12.42
-8.60
-4.32
-0.08
3.83
7.21
9.92
11.76
12.49
12.02
10.45
8.20
5.81
3.78
2.45
1.84
1.73
1.77
1.58
0.96
-0.15
-1.61
-3.20
-4.72
-6.11
-7.43
-8.90
-10.78
-13.30
-16.54
-20.32
-24.14
-27.34
-29.20
-29.26
-27.46
-24.17
-20.07
-15.86
-12.08
-8.99
-6.65
-5.06
-4.29
-4.46
-5.76
-8.20
-11.57
-15.53
-19.60
-23.45
-26.90
-30.04
-33.08
-36.25
-39.65
-43.27
-47.01
-50.75
-54.44
-57.98
-61.15
-63.50
-64.46
-63.49
-60.30
-54.93
-47.62
-38.60
-27.91
-15.47
-1.23
14.49
30.87
46.73
60.82
72.27
80.70
86.22
89.11
89.65
88.04
84.48
79.42
73.50
67.51
62.14
57.71
54.19
51.23
48.39
45.32
41.88
38.05
33.98
29.81
25.60
21.38
17.05
12.51
7.69
2.61
-2.63
-7.86
-12.82
-17.16
-20.36
-21.79
-20.86
-17.24
-11.16
-3.39
4.87
12.36
18.16
21.90
23.68
23.86
22.89
21.11
18.76
16.15
13.63
11.68
10.63
10.56
11.21
12.08
12.59
12.43
11.60
10.37
9.06
7.85
6.61
5.06
3.03
0.55
-2.09
-4.62
-6.95
-9.38
-12.38
-16.25
-20.82
-25.36
-28.87
-30.34
-29.21
-25.45
-19.54
-12.22
-4.28
3.61
10.88
17.12
21.99
25.28
26.95
27.11
26.12
24.37
22.29
20.19
18.33
16.89
15.95
15.54
15.53
15.66
15.60
15.07
13.98
12.47
10.82
9.22
7.72
6.14
4.24
1.91
-0.79
-3.58
-6.20
-8.55
-10.73
-13.01
-15.59
-18.46
-21.30
-23.50
-24.33
-23.16
-19.67
-13.97
-6.64
1.40
9.11
15.59
20.20
22.66
23.06
21.74
19.26
16.27
13.35
10.94
9.21
8.12
7.42
6.84
6.14
5.31
4.39
3.53
2.79
2.12
1.38
0.44
-0.80
-2.27
-3.84
-5.32
-6.58
-7.64
-8.71
-10.07
-12.00
-14.64
-17.82
-21.05
-23.58
-24.59
-23.48
-20.04
-14.66
-8.12
-1.43
4.47
8.95
11.73
12.90
12.73
11.55
9.70
7.44
5.04
2.79
0.95
-0.30
-0.93
-1.04
-0.78
-0.29
0.31
0.94
1.54
1.98
2.07
1.63
0.61
-0.96
-2.89
-5.05
-7.35
-9.80
-12.35
-14.83
-16.92
-18.24
-18.42
-17.30
-14.96
-11.62
-7.63
-3.30
1.13
5.41
9.29
12.53
14.88
16.22
16.46
15.56
13.54
10.55
6.98
3.40
0.49
-1.27
-1.74
-1.14
0.08
1.43
2.50
2.98
2.61
1.22
-1.16
-4.20
-7.35
-10.12
-12.27
-14.01
-15.77
-17.82
-20.01
-21.70
-22.03
-20.46
-16.96
-12.13
-6.82
-1.77
2.68
6.53
9.89
12.72
14.70
15.39
14.47
12.02
8.61
5.06
2.21
0.51
-0.11
-0.16
-0.26
-0.84
-1.92
-3.08
-3.85
-3.87
-3.24
-2.39
-1.94
-2.36
-3.81
-6.15
-9.08
-12.27
-15.32
-17.83
-19.29
-19.28
-17.59
-14.38
-10.15
-5.48
-0.84
3.49
7.38
10.69
13.14
14.45
14.44
13.17
10.96
8.25
5.50
3.02
1.06
-0.23
-0.82
-0.79
-0.34
0.23
0.61
0.60
0.08
-0.97
-2.51
-4.54
-7.02
-9.86
-12.84
-15.61
-17.70
-18.64
-18.05
-15.77
-11.98
-7.19
-2.03
2.83
6.94
10.08
12.19
13.33
13.46
12.54
10.56
7.72
4.41
1.19
-1.44
-3.20
-4.08
-4.30
-4.13
-3.78
-3.33
-2.90
-2.58
-2.61
-3.26
-4.75
-7.13
-10.20
-13.57
-16.69
-18.93
-19.78
-18.86
-16.16
-12.00
-7.02
-1.93
2.65
6.32
8.91
10.42
10.93
10.58
9.56
8.19
6.79
5.62
4.78
4.20
3.69
3.06
2.26
1.34
0.44
-0.38
-1.18
-2.19
-3.68
-5.86
-8.76
-12.12
-15.51
-18.35
-20.12
-20.43
-19.12
-16.25
-12.07
-6.95
-1.27
4.48
9.74
13.97
16.68
17.67
16.98
15.03
12.38
9.60
6.99
4.66
2.52
0.54
-1.12
-2.21
-2.55
-2.28
-1.84
-1.81
-2.63
-4.42
-7.01
-10.02
-13.09
-15.86
-18.01
-19.15
-18.86
-16.86
-13.08
-7.85
-1.81
4.28
9.64
13.74
16.29
17.30
17.03
15.91
14.34
12.63
10.89
9.07
7.13
5.13
3.29
1.86
1.00
0.65
0.51
0.14
-0.89
-2.89
-5.97
-9.99
-14.67
-19.41
-23.46
-25.97
-26.17
-23.62
-18.40
-11.11
-2.71
5.70
13.13
18.86
22.46
23.85
23.23
21.09
18.11
15.04
12.46
10.75
9.87
9.51
9.18
8.41
6.92
4.82
2.42
0.22
-1.51
-2.91
-4.46
-6.80
-10.30
-14.77
-19.41
-23.06
-24.63
-23.38
-19.28
-12.83
-4.93
3.38
11.16
17.76
22.77
26.07
27.71
27.80
26.47
23.97
20.64
17.03
13.78
11.41
10.14
9.78
9.78
9.51
8.48
6.57
3.93
0.89
-2.27
-5.48
-8.85
-12.55
-16.57
-20.61
-23.99
-25.85
-25.42
-22.31
-16.63
-8.99
-0.34
8.30
16.05
22.26
26.59
28.97
29.50
28.47
26.20
23.06
19.38
15.49
11.80
8.74
6.68
5.79
5.91
6.51
6.92
6.60
5.39
3.47
1.23
-1.04
-3.33
-5.90
-9.06
-12.96
-17.37
-21.68
-25.04
-26.52
-25.44
-21.55
-15.13
-7.01
1.72
9.94
16.85
22.02
25.36
26.91
26.73
24.89
21.63
17.48
13.21
9.65
7.39
6.52
6.67
7.14
7.25
6.59
5.12
3.18
1.23
-0.36
-1.48
-2.33
-3.33
-5.00
-7.69
-11.47
-16.07
-20.89
-25.11
-27.85
-28.34
-26.07
-20.98
-13.51
-4.58
4.61
12.87
19.26
23.25
24.74
23.94
21.30
17.43
12.98
8.60
4.82
1.98
0.17
-0.73
-1.00
-0.95
-0.82
-0.79
-0.94
-1.36
-2.15
-3.42
-5.17
-7.36
-9.89
-12.66
-15.60
-18.65
-21.59
-24.07
-25.47
-25.19
-22.83
-18.32
-12.08
-4.80
2.73
9.77
15.71
20.15
22.79
23.46
22.26
19.56
16.00
12.38
9.36
7.36
6.42
6.18
6.16
5.91
5.17
3.95
2.43
0.84
-0.73
-2.30
-4.05
-6.22
-8.97
-12.32
-16.07
-19.86
-23.13
-25.25
-25.59
-23.70
-19.49
-13.24
-5.65
2.35
9.82
15.99
20.35
22.69
23.06
21.67
18.89
15.27
11.45
8.08
5.63
4.19
3.54
3.27
3.00
2.52
1.79
0.94
0.05
-0.86
-1.91
-3.28
-5.13
-7.54
-10.49
-13.81
-17.12
-19.93
-21.69
-21.93
-20.39
-17.10
-12.40
-6.84
-1.05
4.39
9.04
12.65
15.06
16.16
15.86
14.16
11.25
7.50
3.51
-0.16
-3.09
-5.18
-6.64
-7.79
-8.92
-10.20
-11.73
-13.52
-15.66
-18.22
-21.14
-24.26
-27.28
-29.90
-31.86
-32.93
-32.85
-31.31
-27.98
-22.74
-15.78
-7.74
0.44
7.76
13.45
17.20
19.01
19.22
18.20
16.28
13.70
10.67
7.49
4.59
2.50
1.65
2.23
4.03
6.46
8.90
10.87
12.22
13.07
13.60
13.87
13.79
13.18
11.96
10.25
8.37
6.64
5.36
4.73
4.85
5.70
7.14
8.83
10.41
11.44
11.66
11.03
9.61
7.55
5.05
2.38
-0.11
-2.02
-3.03
-2.97
-2.00
-0.43
1.40
3.25
4.96
6.37
7.21
7.09
5.74
3.08
-0.63
-4.94
-9.36
-13.45
-16.82
-19.05
-19.70
-18.35
-14.90
-9.62
-3.27
3.15
8.69
12.73
15.11
15.93
15.38
13.63
10.77
7.06
2.99
-0.74
-3.43
-4.76
-4.84
-4.17
-3.34
-2.75
-2.45
-2.30
-2.23
-2.41
-3.26
-5.21
-8.39
-12.43
-16.49
-19.50
-20.59
-19.34
-15.86
-10.66
-4.46
2.07
8.36
13.83
17.96
20.22
20.38
18.57
15.33
11.45
7.63
4.35
1.76
-0.20
-1.61
-2.55
-3.09
-3.41
-3.67
-4.04
-4.62
-5.47
-6.70
-8.48
-10.94
-13.95
-16.97
-19.12
-19.43
-17.25
-12.59
-6.08
1.26
8.36
14.50
19.31
22.72
24.64
24.95
23.46
20.16
15.44
10.03
4.86
0.65
-2.31
-4.25
-5.66
-6.93
-8.19
-9.22
-9.81
-9.90
-9.84
-10.15
-11.31
-13.40
-15.99
-18.22
-19.17
-18.09
-14.72
-9.23
-2.20
5.54
13.07
19.52
24.11
26.29
25.80
22.81
17.87
11.88
5.84
0.59
-3.38
-6.09
-7.87
-9.13
-10.06
-10.58
-10.38
-9.23
-7.23
-4.85
-2.84
-1.84
-2.09
-3.27
-4.64
-5.18
-4.01
-0.57
5.26
13.20
22.53
32.32
41.69
49.90
56.60
61.86
65.97
69.31
72.14
74.60
76.79
78.88
81.17
83.99
87.49
91.56
95.77
99.58
102.53
104.35
104.93
104.11
101.66
97.23
90.64
82.10
72.36
62.62
54.07
47.41
42.63
39.04
35.75
32.02
27.50
22.06
15.59
7.73
-1.97
-13.70
-27.07
-40.99
-53.98
-64.60
-71.86
-75.33
-75.19
-72.19
-67.60
-63.06
-60.14
-59.73
-61.44
-63.68
-64.14
-61.00
-53.70
-43.35
-32.11
-22.20
-15.01
-10.74
-8.54
-7.21
-5.78
-3.91
-1.95
-0.91
-2.11
-6.68
-15.24
-27.58
-42.75
-59.44
-76.42
-92.84
-108.25
-122.23
-134.17
-143.10
-147.87
-147.49
-141.52
-130.04
-113.59
-93.03
-69.26
-43.36
-16.56
9.65
33.65
54.00
69.76
80.69
87.42
91.09
92.92
93.63
93.14
90.54
84.58
74.40
60.06
42.78
24.57
7.45
-7.25
-19.24
-29.20
-38.22
-47.30
-57.00
-67.42
-78.26
-89.07
-99.22
-107.91
-114.25
-117.45
-117.08
-113.26
-106.52
-97.64
-87.44
-76.68
-66.00
-55.83
-46.31
-37.24
-28.14
-18.61
-8.63
1.18
9.78
16.15
19.72
20.82
20.48
20.03
20.54
22.42
25.41
28.80
31.84
33.96
34.97
35.02
34.50
33.86
33.57
34.06
35.74
38.91
43.58
49.34
55.35
60.48
63.82
65.06
64.76
64.08
64.15
65.28
66.61
66.32
62.31
53.18
38.78
20.29
-0.17
-20.29
-38.09
-52.19
-61.88
-67.03
-68.01
-65.79
-61.76
-57.50
-54.36
-53.18
-54.05
-56.38
-59.19
-61.29
-61.64
-59.48
-54.46
-46.72
-36.88
-25.87
-14.74
-4.45
4.42
11.61
17.15
21.16
23.77
25.19
25.63
25.52
25.32
25.41
25.92
26.58
26.81
25.97
23.60
19.61
14.18
7.75
0.84
-6.04
-12.34
-17.65
-21.66
-24.16
-25.09
-24.36
-21.88
-17.57
-11.55
-4.21
3.68
11.14
17.17
21.07
22.61
21.96
19.63
16.28
12.50
8.83
5.58
2.89
0.63
-1.41
-3.50
-5.81
-8.37
-11.05
-13.66
-16.03
-18.07
-19.85
-21.39
-22.70
-23.57
-23.54
-22.10
-18.95
-14.15
-8.27
-2.16
3.33
7.64
10.63
12.46
13.36
13.46
12.80
11.38
9.34
6.97
4.63
2.55
0.81
-0.69
-1.98
-3.00
-3.60
-3.66
-3.29
-2.72
-2.32
-2.38
-3.11
-4.58
-6.82
-9.72
-12.93
-15.74
-17.13
-16.10
-12.10
-5.44
2.71
10.63
16.73
20.08
20.64
19.15
16.67
14.09
11.84
10.00
8.46
7.20
6.33
5.94
5.96
6.06
5.73
4.58
2.53
-0.20
-3.22
-6.22
-9.09
-11.90
-14.69
-17.21
-18.98
-19.43
-18.18
-15.20
-10.86
-5.69
-0.23
5.10
9.97
14.02
16.83
18.04
17.50
15.42
12.34
8.94
5.88
3.68
2.58
2.66
3.71
5.29
6.74
7.38
6.74
4.70
1.49
-2.48
-6.83
-11.27
-15.48
-18.98
-21.04
-20.94
-18.28
-13.20
-6.51
0.61
6.96
11.74
14.74
16.28
16.90
17.10
17.11
16.80
15.85
14.03
11.38
8.34
5.62
3.85
3.28
3.68
4.42
4.82
4.48
3.38
1.73
-0.29
-2.61
-5.28
-8.18
-10.82
-12.36
-11.90
-8.81
-3.04
4.79
13.69
22.51
30.27
36.14
39.59
40.17
37.53
31.51
22.41
11.14
-0.79
-11.46
-19.18
-22.94
-22.82
-19.84
-15.53
-11.30
-8.03
-5.99
-5.02
-4.99
-5.88
-7.80
-10.73
-14.29
-17.70
-20.00
-20.36
-18.34
-14.07
-8.05
-0.96
6.53
13.88
20.52
25.95
29.65
31.34
30.99
28.94
25.82
22.27
18.84
15.81
13.19
10.90
8.87
7.14
5.86
5.22
5.29
5.99
6.98
7.71
7.60
6.24
3.53
-0.34
-4.85
-9.35
-13.01
-15.09
-14.98
-12.44
-7.73
-1.52
5.17
11.36
16.23
19.27
20.40
19.77
17.80
15.02
11.95
8.99
6.33
3.97
1.79
-0.23
-2.00
-3.28
-3.88
-3.83
-3.52
-3.59
-4.69
-7.24
-11.15
-15.92
-20.86
-25.34
-29.15
-32.39
-35.23
-37.57
-38.80
-37.89
-33.95
-26.76
-16.98
-6.20
3.75
11.43
16.12
17.77
16.89
14.29
11.06
8.58
8.24
10.90
16.34
23.11
29.05
32.37
32.50
30.30
27.56
25.90
26.01
27.36
28.78
29.23
28.37
26.59
24.64
23.11
22.13
21.49
20.83
19.95
18.94
18.17
18.07
18.96
20.81
23.22
25.53
27.09
27.47
26.59
24.79
22.54
20.24
18.02
15.67
12.85
9.22
4.70
-0.40
-5.53
-10.08
-13.73
-16.46
-18.59
-20.48
-22.21
-23.63
-24.38
-24.18
-23.01
-21.16
-18.99
-16.81
-14.72
-12.66
-10.41
-7.87
-5.00
-1.87
1.46
4.91
8.31
11.44
14.03
15.87
16.83
16.88
15.99
14.14
11.32
7.61
3.20
-1.60
-6.51
-11.38
-16.15
-20.87
-25.49
-29.85
-33.75
-37.03
-39.73
-42.13
-44.68
-47.72
-51.25
-54.76
-57.29
-57.75
-55.33
-49.89
-42.07
-33.03
-24.05
-16.08
-9.52
-4.42
-0.70
1.69
2.64
2.14
0.39
-2.12
-4.84
-7.27
-9.14
-10.32
-10.67
-10.07
-8.49
-6.16
-3.72
-1.97
-1.68
-3.13
-6.12
-10.02
-14.11
-17.80
-20.72
-22.67
-23.45
-22.81
-20.54
-16.72
-11.76
-6.37
-1.38
2.58
5.21
6.53
6.71
5.92
4.20
1.57
-1.91
-6.00
-10.41
-14.86
-19.24
-23.56
-27.84
-32.02
-35.88
-39.14
-41.58
-43.20
-44.22
-45.11
-46.54
-49.19
-53.57
-59.65
-66.84
-73.88
-79.33
-82.05
-81.58
-78.33
-73.30
-67.76
-62.79
-59.08
-56.90
-56.13
-56.41
-57.24
-58.20
-59.08
-59.95
-60.82
-61.27
-60.02
-54.94
-43.63
-24.48
2.49
35.18
69.95
102.71
130.03
149.95
162.05
167.12
166.64
162.49
156.88
152.12
150.24
152.38
158.13
165.51
171.72
174.32
172.35
166.74
159.79
153.94
150.58
149.60
149.63
148.90
146.16
141.24
135.00
128.71
123.22
118.46
113.48
106.90
97.76
86.07
72.93
60.10
49.17
41.09
35.85
32.72
30.49
27.71
22.66
13.37
-2.10
-24.89
-54.50
-88.30
-121.98
-150.73
-170.71
-180.26
-180.12
-172.84
-161.65
-149.41
-138.08
-128.58
-121.18
-115.71
-111.72
-108.59
-105.63
-102.31
-98.44
-94.24
-90.12
-86.45
-83.53
-81.57
-80.71
-81.07
-82.52
-84.60
-86.42
-86.85
-84.94
-80.25
-72.92
-63.65
-53.38
-43.00
-33.26
-24.69
-17.71
-12.71
-9.94
-9.49
-11.07
-13.95
-17.05
-19.32
-20.11
-19.41
-17.79
-16.07
-14.89
-14.34
-14.16
-13.92
-13.56
-13.50
-14.48
-17.21
-21.85
-27.88
-34.16
-39.23
-41.79
-41.01
-36.68
-29.20
-19.46
-8.68
1.79
10.68
17.07
20.53
21.18
19.60
16.56
12.84
9.04
5.60
2.79
0.69
-0.63
-1.24
-1.18
-0.71
-0.22
-0.27
-1.52
-4.50
-9.44
-16.02
-23.40
-30.36
-35.56
-37.85
-36.49
-31.35
-22.85
-11.91
0.30
12.48
23.55
32.62
39.09
42.67
43.35
41.48
37.82
33.34
29.00
25.53
23.27
22.13
21.82
21.93
22.12
22.02
21.21
19.20
15.57
10.09
2.95
-5.19
-13.27
-20.01
-24.18
-24.79
-21.38
-14.08
-3.72
8.39
20.69
31.63
40.04
45.29
47.40
46.83
44.35
40.70
36.47
32.05
27.68
23.63
20.13
17.46
15.66
14.58
13.79
12.76
11.04
8.25
4.12
-1.49
-8.62
-16.90
-25.39
-32.58
-36.85
-37.01
-32.82
-24.98
-14.80
-3.52
7.92
18.92
28.86
36.91
42.23
44.28
43.24
40.03
35.95
32.24
29.78
29.08
30.46
34.27
40.84
50.19
61.85
74.60
86.69
96.13
101.08
100.48
94.28
83.49
69.91
55.59
42.35
31.46
23.55
18.80
17.02
17.72
20.08
22.98
25.21
25.75
24.08
20.31
14.94
8.58
1.75
-5.25
-12.26
-19.07
-25.38
-30.83
-35.08
-37.94
-39.38
-39.54
-38.83
-37.86
-37.50
-38.65
-42.00
-47.61
-54.73
-61.89
-67.23
-69.05
-66.26
-58.49
-46.21
-30.44
-12.67
5.37
21.85
35.15
44.13
48.45
48.60
45.72
41.24
36.38
31.94
28.24
25.26
22.92
21.12
19.77
18.66
17.48
15.80
13.16
9.35
4.37
-1.55
-8.04
-14.71
-21.11
-26.68
-30.77
-32.59
-31.37
-26.59
-18.20
-6.74
6.64
20.35
32.70
42.19
47.89
49.58
47.71
43.23
37.22
30.70
24.44
18.98
14.68
11.69
9.94
9.08
8.62
7.96
6.62
4.25
0.75
-3.91
-9.73
-16.69
-24.66
-33.16
-41.29
-47.75
-51.11
-50.12
-44.19
-33.64
-19.72
-4.34
10.45
22.99
32.32
38.17
40.78
40.61
38.25
34.33
29.48
24.40
19.61
15.48
12.11
9.38
7.09
5.01
2.90
0.50
-2.48
-6.36
-11.34
-17.50
-24.75
-32.76
-40.93
-48.24
-53.44
-55.05
-51.91
-43.57
-30.62
-14.72
1.85
16.72
28.14
35.34
38.56
38.67
36.76
33.74
30.16
26.33
22.43
18.69
15.35
12.63
10.54
8.93
7.46
5.75
3.42
0.20
-4.10
-9.63
-16.47
-24.52
-33.31
-41.90
-49.00
-53.16
-53.18
-48.52
-39.38
-26.67
-11.70
4.07
19.19
32.28
42.07
47.68
48.82
46.10
40.80
34.48
28.38
23.10
18.64
14.79
11.41
8.63
6.68
5.67
5.40
5.43
5.21
4.26
2.24
-1.08
-5.89
-12.30
-20.03
-28.29
-35.64
-40.29
-40.57
-35.50
-25.29
-11.35
4.04
18.37
29.64
36.83
39.90
39.50
36.49
31.67
25.79
19.51
13.57
8.68
5.28
3.43
2.81
2.86
3.09
3.20
3.08
2.66
1.74
-0.11
-3.39
-8.57
-15.74
-24.50
-33.78
-42.07
-47.69
-49.28
-46.26
-38.99
-28.66
-16.93
-5.50
4.34
11.79
16.57
18.80
18.81
17.16
14.52
11.60
9.03
7.28
6.56
6.78
7.55
8.34
8.62
8.02
6.49
4.25
1.65
-1.11
-4.17
-7.97
-13.12
-19.81
-27.63
-35.28
-40.97
-42.87
-39.79
-31.67
-19.61
-5.64
8.02
19.47
27.58
32.09
33.26
31.68
28.06
23.25
18.27
14.20
11.91
11.65
13.01
15.00
16.56
16.98
16.11
14.20
11.62
8.52
4.78
0.12
-5.74
-12.90
-21.19
-30.07
-38.62
-45.52
-49.26
-48.51
-42.66
-32.17
-18.45
-3.54
10.58
22.40
31.11
36.49
38.67
38.01
35.05
30.58
25.52
20.79
16.99
14.30
12.49
11.02
9.36
7.21
4.56
1.67
-1.14
-3.61
-5.71
-7.78
-10.42
-14.16
-19.10
-24.72
-29.81
-32.84
-32.48
-28.11
-19.98
-9.16
2.74
14.01
23.21
29.34
32.05
31.57
28.58
23.93
18.40
12.60
6.98
1.95
-2.06
-4.64
-5.62
-5.22
-4.08
-2.98
-2.51
-2.78
-3.41
-3.89
-3.98
-3.99
-4.62
-6.51
-9.71
-13.45
-16.35
-17.01
-14.64
-9.37
-2.20
5.49
12.47
18.03
21.89
24.07
24.63
23.58
20.91
16.74
11.51
5.93
0.85
-2.96
-5.11
-5.72
-5.28
-4.53
-4.04
-4.08
-4.65
-5.54
-6.59
-7.79
-9.28
-11.18
-13.44
-15.71
-17.39
-17.77
-16.23
-12.55
-7.01
-0.32
6.60
12.83
17.74
21.02
22.64
22.73
21.46
18.98
15.50
11.33
6.92
2.76
-0.74
-3.34
-5.03
-5.99
-6.59
-7.18
-8.07
-9.39
-11.11
-13.28
-16.00
-19.48
-23.84
-28.79
-33.51
-36.82
-37.52
-34.86
-28.91
-20.46
-10.73
-0.98
7.86
15.17
20.53
23.67
24.40
22.73
19.00
13.87
8.18
2.79
-1.67
-4.91
-6.95
-8.10
-8.87
-9.74
-11.04
-12.92
-15.31
-18.13
-21.33
-24.86
-28.54
-31.90
-34.19
-34.50
-32.14
-26.85
-19.00
-9.48
0.60
10.07
17.89
23.28
25.86
25.69
23.40
19.94
16.40
13.60
11.82
10.83
10.12
9.22
7.95
6.46
5.06
4.04
3.42
2.97
2.27
0.85
-1.69
-5.48
-10.29
-15.43
-19.88
-22.36
-21.83
-17.70
-10.15
-0.14
10.88
21.32
29.90
35.83
38.87
39.10
36.86
32.57
26.84
20.49
14.50
9.75
6.85
5.92
6.50
7.80
8.92
9.14
8.05
5.67
2.31
-1.61
-5.65
-9.52
-13.01
-16.00
-18.32
-19.67
-19.54
-17.41
-12.91
-6.04
2.58
11.80
20.12
26.19
29.22
29.22
26.89
23.29
19.27
15.30
11.45
7.71
4.33
1.82
0.65
0.89
2.02
3.13
3.41
2.57
0.90
-1.04
-2.94
-5.00
-7.77
-11.61
-16.23
-20.59
-23.17
-22.75
-18.92
-12.22
-3.90
4.64
12.40
18.83
23.75
27.07
28.59
28.06
25.39
20.83
15.06
9.02
3.71
-0.14
-2.27
-2.87
-2.58
-2.16
-2.27
-3.21
-4.94
-7.15
-9.62
-12.36
-15.66
-19.87
-25.01
-30.56
-35.45
-38.38
-38.33
-34.96
-28.81
-21.18
-13.69
-7.84
-4.49
-3.80
-5.28
-8.23
-12.12
-16.71
-22.00
-28.01
-34.46
-40.82
-46.41
-50.67
-53.38
-54.61
-54.56
-53.38
-51.07
-47.55
-42.77
-36.85
-30.03
-22.64
-14.99
-7.31
0.36
8.09
16.14
24.83
34.42
44.84
55.49
65.31
72.98
77.46
78.34
76.13
71.94
67.04
62.27
57.87
53.59
49.09
44.27
39.38
34.85
30.95
27.71
24.88
22.19
19.55
17.04
14.79
12.77
10.61
7.75
3.68
-1.68
-7.81
-13.55
-17.56
-18.75
-16.77
-12.06
-5.64
1.26
7.61
12.72
16.16
17.60
16.81
13.80
9.01
3.33
-2.09
-6.23
-8.60
-9.35
-9.13
-8.76
-8.81
-9.38
-10.21
-10.90
-11.20
-11.28
-11.57
-12.54
-14.44
-16.99
-19.53
-21.17
-21.17
-19.15
-15.15
-9.56
-2.96
3.97
10.52
16.02
19.87
21.75
21.62
19.82
16.90
13.49
10.14
7.20
4.83
3.13
2.22
2.10
2.73
3.83
4.92
5.43
4.90
3.18
0.43
-2.92
-6.41
-9.75
-12.77
-15.40
-17.46
-18.64
-18.63
-17.27
-14.64
-11.10
-7.12
-3.18
0.33
3.11
4.91
5.52
4.90
3.26
1.00
-1.40
-3.60
-5.45
-6.96
-8.18
-9.11
-9.66
-9.73
-9.35
-8.70
-8.10
-7.96
-8.63
-10.27
-12.76
-15.75
-18.69
-20.93
-21.92
-21.15
-18.33
-13.41
-6.69
1.05
8.61
14.64
18.00
18.25
15.79
11.72
7.39
3.84
1.49
0.12
-0.76
-1.57
-2.34
-2.85
-2.84
-2.32
-1.65
-1.43
-2.15
-3.98
-6.69
-9.93
-13.26
-16.40
-19.02
-20.67
-20.80
-18.94
-14.91
-9.08
-2.20
4.76
10.90
15.59
18.50
19.54
18.85
16.74
13.71
10.36
7.28
4.81
3.09
2.06
1.60
1.57
1.86
2.23
2.39
2.02
0.86
-1.16
-3.95
-7.35
-11.03
-14.58
-17.45
-18.97
-18.56
-15.83
-10.84
-4.17
3.16
9.97
15.22
18.30
19.18
18.34
16.48
14.25
12.00
9.68
7.10
4.18
1.14
-1.45
-3.03
-3.30
-2.44
-1.03
0.22
0.74
0.24
-1.32
-3.88
-7.30
-11.36
-15.59
-19.28
-21.62
-22.00
-20.11
-16.11
-10.52
-4.05
2.48
8.19
12.30
14.24
13.90
11.63
8.21
4.57
1.42
-0.87
-2.30
-3.08
-3.36
-3.20
-2.66
-1.80
-0.79
0.11
0.58
0.41
-0.57
-2.45
-5.09
-8.16
-11.05
-13.10
-13.67
-12.43
-9.31
-4.54
1.52
8.37
15.42
21.87
26.82
29.43
29.21
26.31
21.46
15.91
10.91
7.38
5.59
5.13
5.25
5.12
4.20
2.45
0.17
-2.11
-3.94
-5.06
-5.41
-5.14
-4.57
-4.18
-4.46
-5.79
-8.15
-11.09
-13.67
-14.87
-13.97
-10.90
-6.22
-0.96
3.82
7.41
9.44
10.00
9.31
7.69
5.43
2.92
0.62
-1.05
-1.81
-1.66
-0.92
0.07
1.06
2.06
3.23
4.56
5.71
5.99
4.64
1.27
-3.96
-10.33
-16.85
-22.68
-27.24
-30.19
-31.27
-30.29
-27.16
-22.12
-15.85
-9.25
-3.24
1.58
4.99
6.99
7.63
6.87
4.71
1.34
-2.68
-6.57
-9.50
-11.02
-11.30
-10.95
-10.74
-11.18
-12.33
-13.90
-15.57
-17.14
-18.62
-20.08
-21.44
-22.49
-23.03
-22.99
-22.49
-21.62
-20.27
-17.92
-13.81
-7.30
1.62
12.09
22.63
31.53
37.50
40.06
39.58
37.04
33.63
30.41
28.05
26.83
26.70
27.39
28.63
30.18
31.97
34.00
36.20
38.40
40.29
41.65
42.45
43.00
43.86
45.56
48.30
51.77
55.18
57.55
58.06
56.30
52.44
47.10
41.10
35.27
30.28
26.51
24.17
23.30
23.75
25.16
26.77
27.50
26.14
21.76
14.05
3.47
-8.83
-21.44
-33.03
-42.64
-49.77
-54.32
-56.49
-56.68
-55.49
-53.63
-51.75
-50.27
-49.33
-48.81
-48.48
-48.28
-48.34
-48.95
-50.32
-52.24
-54.06
-54.85
-53.70
-50.18
-44.50
-37.31
-29.39
-21.42
-13.80
-6.84
-0.89
3.64
6.48
7.62
7.40
6.40
5.17
4.11
3.38
3.05
3.10
3.49
4.01
4.38
4.29
3.69
2.84
2.30
2.49
3.44
4.67
5.38
4.85
2.81
-0.58
-4.76
-9.10
-13.02
-15.94
-17.34
-16.81
-14.17
-9.81
-4.56
0.43
4.10
5.91
5.97
4.84
3.21
1.53
-0.02
-1.52
-3.06
-4.63
-6.08
-7.25
-8.05
-8.48
-8.59
-8.43
-7.99
-7.25
-6.21
-5.03
-3.97
-3.45
-3.93
-5.74
-8.96
-13.30
-18.13
-22.64
-26.07
-27.88
-27.81
-25.83
-22.09
-16.97
-10.98
-4.80
0.89
5.57
9.08
11.58
13.34
14.52
15.02
14.56
13.02
10.60
7.95
5.89
5.06
5.53
6.92
8.53
9.84
10.75
11.59
12.74
14.27
15.75
16.35
15.37
12.58
8.44
3.85
-0.26
-3.33
-5.38
-6.61
-7.20
-7.02
-5.74
-3.12
0.71
5.17
9.46
12.92
15.18
16.24
16.23
15.27
13.40
10.72
7.46
4.13
1.31
-0.38
-0.65
0.48
2.60
5.04
7.04
7.95
7.42
5.51
2.63
-0.50
-3.21
-5.10
-6.15
-6.64
-6.87
-7.02
-7.00
-6.55
-5.49
-3.82
-1.80
0.18
1.83
3.01
3.80
4.39
4.88
5.28
5.47
5.33
4.83
4.09
3.31
2.60
1.94
1.12
-0.13
-1.97
-4.35
-7.00
-9.57
-11.76
-13.45
-14.69
-15.59
-16.34
-17.12
-18.04
-19.12
-20.20
-20.95
-20.91
-19.58
-16.67
-12.20
-6.61
-0.66
4.72
8.70
10.76
10.79
9.13
6.45
3.58
1.25
-0.07
-0.39
-0.08
0.31
0.30
-0.33
-1.47
-2.75
-3.80
-4.41
-4.70
-5.00
-5.63
-6.80
-8.44
-10.33
-12.14
-13.58
-14.33
-14.14
-12.80
-10.31
-6.91
-3.04
0.70
3.83
6.10
7.55
8.41
8.96
9.35
9.45
9.05
7.96
6.17
3.99
1.90
0.38
-0.35
-0.40
-0.18
-0.14
-0.60
-1.60
-2.93
-4.34
-5.70
-7.11
-8.74
-10.75
-13.00
-15.04
-16.21
-15.86
-13.66
-9.79
-4.85
0.33
4.99
8.69
11.32
12.95
13.68
13.49
12.35
10.31
7.65
4.89
2.61
1.24
0.88
1.25
1.83
2.16
2.00
1.38
0.55
-0.32
-1.28
-2.56
-4.43
-6.92
-9.72
-12.20
-13.68
-13.72
-12.25
-9.57
-6.09
-2.26
1.57
5.09
7.99
9.98
10.89
10.74
9.78
8.35
6.84
5.55
4.58
3.97
3.68
3.66
3.78
3.89
3.77
3.14
1.85
-0.09
-2.41
-4.70
-6.62
-8.03
-9.11
-10.15
-11.32
-12.38
-12.77
-11.82
-9.19
-5.08
-0.25
4.34
7.89
10.06
10.96
10.95
10.44
9.70
8.88
8.14
7.58
7.22
6.99
6.69
6.11
5.09
3.71
2.09
0.43
-1.18
-2.81
-4.57
-6.59
-8.93
-11.46
-13.87
-15.69
-16.36
-15.36
-12.42
-7.66
-1.66
4.63
10.14
14.01
15.82
15.76
14.39
12.33
10.00
7.50
4.71
1.56
-1.76
-4.76
-6.95
-8.08
-8.36
-8.33
-8.64
-9.60
-11.18
-12.99
-14.63
-15.76
-16.28
-16.08
-14.87
-12.29
-8.08
-2.26
4.59
11.48
17.31
21.26
23.06
23.07
22.00
20.61
19.36
18.31
17.19
15.71
13.78
11.61
9.61
8.20
7.56
7.55
7.77
7.75
7.04
5.37
2.69
-0.86
-5.04
-9.39
-13.34
-16.21
-17.38
-16.39
-13.17
-7.97
-1.37
5.72
12.37
17.65
20.90
21.80
20.43
17.29
13.13
8.79
5.06
2.40
0.95
0.45
0.44
0.45
0.16
-0.47
-1.32
-2.25
-3.26
-4.61
-6.63
-9.51
-13.10
-16.81
-19.82
-21.43
-21.28
-19.40
-16.09
-11.69
-6.44
-0.59
5.41
10.84
14.85
16.83
16.62
14.67
11.77
8.76
6.22
4.39
3.31
2.87
2.92
3.24
3.47
3.25
2.38
0.99
-0.54
-1.77
-2.53
-3.01
-3.70
-5.08
-7.32
-10.17
-13.03
-15.19
-16.05
-15.30
-12.89
-9.05
-4.17
1.24
6.57
11.25
14.82
17.05
17.98
17.79
16.76
15.08
12.91
10.40
7.75
5.31
3.45
2.46
2.30
2.64
2.92
2.64
1.56
-0.15
-2.10
-3.82
-5.07
-5.90
-6.68
-7.88
-9.88
-12.78
-16.29
-19.78
-22.44
-23.58
-22.83
-20.29
-16.42
-11.82
-6.92
-1.98
2.91
7.60
11.82
15.16
17.24
17.82
16.96
15.01
12.59
10.41
9.09
8.93
9.82
11.25
12.44
12.69
11.61
9.31
6.27
3.18
0.61
-1.23
-2.51
-3.64
-5.08
-7.06
-9.52
-12.10
-14.28
-15.63
-15.80
-14.70
-12.30
-8.76
-4.30
0.65
5.54
9.81
13.03
14.99
15.66
15.20
13.79
11.75
9.42
7.17
5.25
3.72
2.46
1.28
0.12
-0.90
-1.56
-1.77
-1.69
-1.64
-1.96
-2.79
-4.10
-5.80
-7.92
-10.59
-13.92
-17.72
-21.45
-24.28
-25.37
-24.14
-20.44
-14.57
-7.17
0.88
8.62
15.19
19.93
22.55
23.11
22.03
19.91
17.35
14.92
12.99
11.87
11.67
12.31
13.50
14.72
15.40
15.06
13.49
10.85
7.58
4.23
1.20
-1.38
-3.65
-5.88
-8.18
-10.38
-12.13
-13.13
-13.21
-12.52
-11.26
-9.59
-7.43
-4.60
-1.00
3.14
7.27
10.65
12.70
13.21
12.38
10.73
8.86
7.31
6.33
5.93
5.87
5.76
5.24
4.16
2.60
0.90
-0.56
-1.58
-2.26
-2.99
-4.26
-6.35
-9.18
-12.31
-15.15
-17.12
-17.87
-17.25
-15.27
-12.03
-7.74
-2.78
2.30
6.77
10.02
11.69
11.88
11.00
9.55
7.92
6.23
4.43
2.58
0.92
-0.16
-0.34
0.32
1.38
2.10
1.87
0.45
-1.94
-4.73
-7.35
-9.41
-10.90
-12.08
-13.29
-14.75
-16.42
-17.95
-18.80
-18.44
-16.62
-13.38
-9.15
-4.54
-0.11
3.73
6.75
8.80
9.89
10.09
9.62
8.84
8.13
7.73
7.68
7.81
7.88
7.68
7.18
6.38
5.35
4.12
2.67
1.06
-0.56
-2.04
-3.26
-4.31
-5.39
-6.77
-8.46
-10.22
-11.57
-11.91
-10.79
-8.01
-3.76
1.43
6.85
11.72
15.39
17.47
17.86
16.75
14.54
11.76
8.96
6.60
4.99
4.23
4.18
4.41
4.44
3.82
2.35
0.16
-2.30
-4.51
-6.05
-6.73
-6.67
-6.27
-6.07
-6.54
-7.97
-10.28
-12.99
-15.46
-16.99
-17.07
-15.49
-12.34
-7.92
-2.73
2.60
7.35
10.81
12.49
12.24
10.39
7.61
4.70
2.32
0.77
-0.03
-0.39
-0.69
-1.21
-1.96
-2.76
-3.33
-3.46
-3.19
-2.79
-2.78
-3.58
-5.45
-8.33
-11.89
-15.58
-18.73
-20.65
-20.71
-18.58
-14.30
-8.44
-1.93
4.18
9.01
12.13
13.62
13.94
13.59
12.89
11.90
10.54
8.76
6.75
4.89
3.70
3.44
3.97
4.76
5.20
4.85
3.71
2.12
0.50
-1.02
-2.65
-4.80
-7.74
-11.36
-15.09
-18.15
-19.81
-19.66
-17.62
-13.93
-9.00
-3.35
2.36
7.48
11.40
13.84
14.83
14.67
13.74
12.32
10.61
8.74
6.97
5.62
4.99
5.08
5.64
6.18
6.26
5.70
4.55
3.07
1.42
-0.34
-2.25
-4.32
-6.44
-8.41
-9.98
-10.98
-11.36
-11.05
-9.96
-8.06
-5.39
-2.16
1.29
4.51
7.15
8.95
9.78
9.67
8.73
7.18
5.29
3.34
1.60
0.29
-0.44
-0.51
0.12
1.31
2.80
4.24
5.20
5.33
4.52
2.87
0.64
-1.87
-4.40
-6.69
-8.56
-9.89
-10.55
-10.52
-9.85
-8.63
-6.94
-4.93
-2.69
-0.40
1.73
3.46
4.56
4.92
4.52
3.53
2.20
0.88
-0.14
-0.63
-0.54
-0.02
0.67
1.23
1.43
1.13
0.28
-1.11
-2.98
-5.18
-7.47
-9.61
-11.40
-12.80
-13.89
-14.77
-15.37
-15.38
-14.34
-11.85
-7.91
-3.04
1.92
6.03
8.73
9.94
10.04
9.60
9.02
8.44
7.72
6.67
5.24
3.60
2.08
0.99
0.47
0.41
0.48
0.28
-0.42
-1.63
-3.15
-4.70
-6.15
-7.59
-9.24
-11.29
-13.62
-15.75
-16.97
-16.63
-14.42
-10.53
-5.58
-0.33
4.47
8.31
10.94
12.43
13.03
13.10
12.91
12.64
12.26
11.59
10.52
9.02
7.27
5.54
4.11
3.06
2.39
1.97
1.66
1.36
0.91
0.08
-1.43
-3.84
-7.11
-10.83
-14.25
-16.52
-16.96
-15.39
-12.13
-7.88
-3.34
0.98
4.81
8.03
10.51
12.04
12.41
11.58
9.84
7.68
5.64
4.07
3.05
2.42
1.96
1.54
1.08
0.57
-0.02
-0.75
-1.71
-2.98
-4.60
-6.55
-8.77
-11.19
-13.65
-15.97
-17.87
-19.00
-19.00
-17.64
-14.90
-11.01
-6.44
-1.79
2.39
5.67
7.79
8.65
8.29
6.84
4.57
1.85
-0.93
-3.46
-5.61
-7.48
-9.24
-11.00
-12.78
-14.54
-16.23
-17.92
-19.77
-21.97
-24.65
-27.86
-31.54
-35.57
-39.69
-43.60
-46.83
-48.90
-49.42
-48.24
-45.58
-41.89
-37.71
-33.40
-29.08
-24.62
-19.77
-14.32
-8.21
-1.45
5.84
13.51
21.32
28.93
35.89
41.75
46.19
49.13
50.67
51.02
50.36
48.76
46.16
42.52
37.85
32.36
26.51
20.83
15.95
12.38
10.46
10.33
11.85
14.65
18.18
21.78
24.83
26.84
27.59
27.14
25.69
23.57
21.09
18.48
15.89
13.49
11.37
9.62
8.29
7.39
6.87
6.62
6.49
6.22
5.52
4.10
1.74
-1.57
-5.60
-9.89
-13.83
-16.84
-18.42
-18.24
-16.20
-12.43
-7.35
-1.58
4.11
8.96
12.44
14.34
14.83
14.30
13.18
11.83
10.37
8.78
7.01
5.07
3.04
1.14
-0.42
-1.44
-1.76
-1.43
-0.64
0.24
0.76
0.52
-0.71
-2.89
-5.76
-8.86
-11.72
-13.85
-14.85
-14.46
-12.60
-9.38
-5.10
-0.27
4.57
8.85
12.16
14.21
14.92
14.43
13.05
11.20
9.27
7.54
6.05
4.73
3.45
2.21
1.05
0.10
-0.59
-1.06
-1.41
-1.85
-2.60
-3.89
-5.92
-8.72
-12.08
-15.53
-18.41
-20.04
-19.94
-17.97
-14.37
-9.58
-4.18
1.25
6.24
10.36
13.31
14.91
15.19
14.38
12.84
11.01
9.22
7.70
6.51
5.58
4.82
4.15
3.52
2.92
2.33
1.71
1.04
0.30
-0.58
-1.74
-3.34
-5.55
-8.35
-11.51
-14.55
-16.81
-17.73
-16.94
-14.45
-10.56
-5.77
-0.61
4.44
8.95
12.51
14.80
15.63
15.03
13.40
11.23
9.10
7.36
6.08
5.15
4.37
3.67
3.08
2.63
2.25
1.79
1.01
-0.20
-1.80
-3.64
-5.58
-7.60
-9.78
-12.12
-14.45
-16.31
-17.21
-16.74
-14.84
-11.73
-7.81
-3.48
0.97
5.25
9.16
12.39
14.73
16.00
16.16
15.30
13.58
11.26
8.63
6.04
3.85
2.31
1.49
1.25
1.33
1.43
1.33
0.99
0.46
-0.22
-1.07
-2.25
-3.90
-6.15
-8.97
-12.05
-14.85
-16.69
-17.03
-15.61
-12.60
-8.43
-3.69
1.09
5.57
9.48
12.61
14.67
15.46
14.90
13.19
10.79
8.36
6.42
5.20
4.62
4.38
4.09
3.52
2.57
1.30
-0.16
-1.69
-3.17
-4.50
-5.70
-6.98
-8.62
-10.89
-13.83
-17.04
-19.73
-20.98
-20.15
-17.08
-12.19
-6.28
-0.19
5.43
10.17
13.85
16.33
17.51
17.32
15.92
13.65
10.99
8.46
6.46
5.15
4.50
4.37
4.54
4.74
4.73
4.33
3.40
1.98
0.24
-1.56
-3.25
-4.84
-6.54
-8.66
-11.36
-14.47
-17.38
-19.23
-19.28
-17.21
-13.24
-8.01
-2.23
3.51
8.89
13.65
17.51
20.07
20.94
20.05
17.74
14.68
11.58
9.00
7.04
5.53
4.15
2.68
1.06
-0.64
-2.35
-4.05
-5.75
-7.49
-9.23
-10.91
-12.46
-13.91
-15.43
-17.22
-19.37
-21.71
-23.83
-25.13
-25.08
-23.47
-20.44
-16.47
-12.13
-7.90
-4.08
-0.77
1.94
3.95
5.14
5.51
5.19
4.54
3.91
3.55
3.47
3.51
3.41
2.97
2.13
0.84
-0.98
-3.47
-6.78
-10.89
-15.51
-20.15
-24.19
-27.11
-28.67
-28.83
-27.68
-25.24
-21.38
-15.92
-8.76
-0.14
9.34
18.83
27.45
34.52
39.64
42.65
43.52
42.30
39.05
34.02
27.62
20.45
13.17
6.29
0.04
-5.67
-11.15
-16.69
-22.39
-27.97
-32.90
-36.57
-38.52
-38.70
-37.41
-35.22
-32.62
-29.84
-26.73
-22.87
-17.76
-11.03
-2.68
6.92
17.08
26.95
35.80
43.19
49.00
53.38
56.47
58.35
59.05
58.62
57.27
55.30
53.05
50.64
48.02
45.01
41.40
37.11
32.20
26.78
20.99
14.92
8.66
2.29
-4.14
-10.64
-17.24
-23.88
-30.22
-35.64
-39.33
-40.61
-39.21
-35.45
-30.18
-24.40
-19.05
-14.72
-11.60
-9.67
-8.83
-9.02
-10.17
-12.11
-14.44
-16.54
-17.76
-17.66
-16.13
-13.45
-10.12
-6.64
-3.31
-0.17
2.80
5.57
7.91
9.45
9.89
9.17
7.62
5.85
4.51
4.09
4.69
6.10
7.86
9.47
10.43
10.35
8.95
6.11
1.89
-3.38
-9.13
-14.60
-19.10
-22.11
-23.45
-23.19
-21.52
-18.55
-14.27
-8.64
-1.71
6.18
14.44
22.37
29.35
34.93
38.91
41.14
41.49
39.85
36.33
31.44
26.07
21.27
17.87
16.14
15.70
15.80
15.55
14.41
12.24
9.23
5.66
1.72
-2.49
-6.93
-11.45
-15.83
-19.86
-23.46
-26.76
-29.96
-33.19
-36.35
-39.16
-41.34
-42.85
-43.96
-45.14
-46.79
-49.10
-51.86
-54.63
-56.84
-57.92
-57.36
-54.68
-49.49
-41.54
-30.93
-18.12
-3.93
10.64
24.69
37.60
49.05
58.98
67.32
73.85
78.25
80.25
79.85
77.49
74.05
70.51
67.66
65.79
64.64
63.50
61.54
58.05
52.53
44.84
35.14
23.98
12.25
1.09
-8.35
-15.19
-19.02
-19.90
-18.24
-14.55
-9.29
-2.88
4.24
11.51
18.22
23.65
27.32
29.08
29.14
27.93
25.82
23.06
19.64
15.41
10.24
4.10
-2.99
-10.96
-19.78
-29.47
-39.88
-50.49
-60.48
-68.73
-74.24
-76.42
-75.40
-71.86
-66.83
-61.21
-55.47
-49.63
-43.43
-36.59
-29.02
-20.88
-12.46
-4.15
3.68
10.63
16.30
20.34
22.52
22.86
21.57
19.01
15.52
11.40
6.82
1.91
-3.12
-8.05
-12.67
-16.80
-20.37
-23.42
-26.02
-28.20
-29.94
-31.17
-31.82
-31.95
-31.66
-31.05
-30.09
-28.43
-25.46
-20.45
-12.83
-2.50
10.14
24.22
38.67
52.55
65.21
76.32
85.82
93.75
100.17
105.21
109.09
112.15
114.78
117.21
119.24
120.19
118.99
114.58
106.27
94.02
78.36
60.08
39.87
18.05
-5.29
-30.07
-55.83
-81.57
-105.83
-127.00
-143.74
-155.16
-160.97
-161.33
-156.75
-148.03
-136.21
-122.59
-108.60
-95.61
-84.64
-76.06
-69.59
-64.39
-59.46
-54.10
-48.06
-41.56
-35.06
-28.97
-23.50
-18.66
-14.38
-10.61
-7.36
-4.64
-2.44
-0.72
0.53
1.27
1.43
1.07
0.41
-0.08
0.12
1.44
4.12
8.13
13.27
19.12
25.17
30.80
35.33
38.24
39.17
38.11
35.30
31.20
26.37
21.41
16.86
13.12
10.35
8.42
6.92
5.41
3.47
0.85
-2.50
-6.62
-11.48
-17.09
-23.39
-30.12
-36.74
-42.45
-46.34
-47.57
-45.63
-40.51
-32.74
-23.28
-13.31
-3.88
4.25
10.77
15.68
19.17
21.42
22.68
23.22
23.45
23.79
24.61
25.98
27.66
29.14
29.82
29.23
27.25
23.97
19.67
14.59
8.92
2.84
-3.36
-9.25
-14.28
-17.96
-19.94
-20.13
-18.68
-15.92
-12.29
-8.29
-4.49
-1.41
0.55
1.19
0.60
-0.90
-2.81
-4.67
-6.15
-7.12
-7.61
-7.73
-7.66
-7.61
-7.79
-8.39
-9.47
-10.93
-12.53
-13.91
-14.80
-15.12
-14.98
-14.61
-14.16
-13.50
-12.30
-10.16
-6.85
-2.50
2.47
7.44
11.88
15.44
17.98
19.48
19.98
19.56
18.33
16.54
14.58
12.95
12.06
12.15
13.20
14.93
16.94
18.87
20.45
21.58
22.18
22.19
21.46
19.89
17.51
14.59
11.66
9.30
7.99
7.91
8.92
10.61
12.57
14.50
16.31
18.07
19.95
22.00
24.13
26.12
27.70
28.65
28.86
28.40
27.42
26.03
24.29
22.13
19.45
16.19
12.41
8.27
3.89
-0.71
-5.66
-11.15
-17.22
-23.59
-29.62
-34.41
-37.13
-37.29
-34.95
-30.74
-25.60
-20.63
-16.69
-14.37
-13.83
-14.82
-16.77
-18.97
-20.77
-21.83
-22.13
-21.97
-21.76
-21.82
-22.23
-22.91
-23.72
-24.58
-25.52
-26.60
-27.81
-29.03
-30.09
-30.84
-31.24
-31.26
-30.81
-29.53
-26.86
-22.17
-15.13
-5.95
4.51
15.02
24.34
31.64
36.57
39.22
39.90
38.92
36.64
33.48
29.98
26.76
24.32
22.85
22.21
21.99
21.75
21.19
20.20
18.82
17.09
14.97
12.29
8.87
4.68
-0.02
-4.63
-8.30
-10.16
-9.63
-6.62
-1.59
4.61
11.04
16.96
21.91
25.71
28.30
29.67
29.78
28.69
26.63
24.00
21.27
18.86
16.98
15.56
14.33
12.98
11.31
9.37
7.45
5.83
4.69
3.85
2.85
1.13
-1.69
-5.61
-10.20
-14.73
-18.39
-20.54
-20.76
-18.92
-15.10
-9.66
-3.22
3.37
9.16
13.40
15.69
16.08
14.99
12.98
10.57
8.14
5.89
3.94
2.37
1.16
0.24
-0.60
-1.59
-2.94
-4.73
-6.95
-9.52
-12.34
-15.39
-18.72
-22.42
-26.55
-31.03
-35.50
-39.37
-41.86
-42.21
-40.00
-35.27
-28.69
-21.23
-13.96
-7.65
-2.69
0.96
3.53
5.26
6.33
6.82
6.83
6.48
6.00
5.70
5.80
6.44
7.55
8.98
10.49
11.81
12.75
13.11
12.74
11.55
9.55
6.86
3.74
0.50
-2.54
-5.09
-6.84
-7.49
-6.78
-4.56
-0.96
3.62
8.58
13.35
17.59
21.17
24.10
26.37
27.81
28.16
27.24
25.11
22.09
18.65
15.26
12.19
9.48
7.02
4.62
2.09
-0.70
-3.83
-7.24
-10.78
-14.19
-17.20
-19.67
-21.66
-23.35
-24.82
-25.99
-26.47
-25.77
-23.62
-20.19
-16.15
-12.35
-9.48
-7.76
-6.97
-6.59
-6.28
-6.01
-6.04
-6.67
-7.99
-9.72
-11.33
-12.30
-12.39
-11.70
-10.67
-9.71
-9.15
-8.96
-8.94
-8.82
-8.47
-7.96
-7.50
-7.28
-7.45
-8.12
-9.42
-11.46
-14.27
-17.51
-20.48
-22.26
-22.13
-19.95
-16.34
-12.43
-9.40
-7.99
-8.31
-9.94
-12.27
-14.72
-16.85
-18.26
-18.52
-17.25
-14.34
-10.04
-5.01
-0.15
3.75
6.27
7.52
8.11
8.99
11.17
15.44
22.11
30.87
40.85
50.76
59.33
65.64
69.38
70.86
70.80
69.99
69.01
68.14
67.45
66.95
66.66
66.65
66.93
67.32
67.53
67.18
66.05
64.12
61.69
59.24
57.31
56.16
55.74
55.61
55.10
53.54
50.57
46.18
40.73
34.69
28.35
21.71
14.57
6.74
-1.71
-10.40
-18.68
-25.94
-31.72
-35.82
-38.26
-39.25
-39.06
-38.00
-36.47
-34.87
-33.60
-32.96
-33.07
-33.81
-34.90
-35.93
-36.54
-36.45
-35.60
-34.09
-32.17
-30.14
-28.27
-26.73
-25.68
-25.15
-25.13
-25.54
-26.26
-27.29
-28.71
-30.62
-33.00
-35.59
-37.81
-39.02
-38.74
-36.82
-33.52
-29.37
-24.93
-20.67
-16.89
-13.76
-11.40
-9.96
-9.48
-9.97
-11.28
-13.11
-15.09
-16.80
-17.87
-18.10
-17.53
-16.33
-14.84
-13.42
-12.34
-11.78
-11.79
-12.37
-13.42
-14.75
-16.08
-17.14
-17.71
-17.66
-16.94
-15.54
-13.42
-10.55
-6.99
-3.03
0.82
3.93
5.75
6.05
5.12
3.57
2.11
1.27
1.21
1.77
2.69
3.77
4.93
6.12
7.18
7.72
7.22
5.20
1.56
-3.37
-8.92
-14.38
-19.19
-23.12
-26.11
-28.09
-28.83
-28.08
-25.62
-21.57
-16.32
-10.43
-4.45
1.29
6.58
11.25
15.01
17.55
18.59
18.09
16.24
13.41
10.04
6.58
3.46
1.09
-0.22
-0.42
0.27
1.32
2.09
2.11
1.15
-0.72
-3.31
-6.47
-10.08
-13.95
-17.61
-20.26
-21.05
-19.41
-15.32
-9.51
-3.10
2.79
7.46
10.74
12.89
14.27
15.14
15.61
15.74
15.62
15.50
15.58
15.93
16.47
17.03
17.52
18.06
18.82
19.88
21.10
22.11
22.52
22.05
20.72
18.75
16.46
14.10
11.95
10.35
9.73
10.62
13.34
17.83
23.55
29.59
35.02
39.10
41.45
42.03
41.07
38.85
35.76
32.16
28.52
25.42
23.31
22.42
22.56
23.15
23.40
22.68
20.75
17.88
14.60
11.43
8.60
6.02
3.39
0.44
-2.80
-6.15
-9.31
-12.01
-14.09
-15.36
-15.63
-14.68
-12.37
-8.80
-4.45
-0.03
3.60
5.76
6.09
4.60
1.68
-2.06
-5.91
-9.24
-11.64
-12.98
-13.47
-13.52
-13.62
-14.15
-15.20
-16.63
-18.14
-19.47
-20.55
-21.56
-22.78
-24.51
-26.91
-29.97
-33.47
-37.01
-40.02
-41.91
-42.13
-40.38
-36.68
-31.43
-25.33
-19.20
-13.87
-9.93
-7.70
-7.19
-8.17
-10.19
-12.75
-15.29
-17.29
-18.42
-18.59
-18.00
-17.10
-16.36
-16.14
-16.45
-17.03
-17.41
-17.15
-16.04
-14.18
-12.07
-10.37
-9.78
-10.72
-13.17
-16.54
-19.78
-21.67
-21.32
-18.48
-13.63
-7.81
-2.07
2.80
6.45
8.86
10.09
10.11
8.91
6.65
3.77
0.95
-1.09
-1.91
-1.47
-0.14
1.54
3.08
4.21
4.89
5.22
5.35
5.40
5.37
5.17
4.61
3.55
1.90
-0.22
-2.53
-4.64
-6.15
-6.74
-6.16
-4.26
-1.05
3.27
8.25
13.27
17.72
21.14
23.33
24.36
24.42
23.74
22.55
21.04
19.47
18.16
17.37
17.20
17.53
18.10
18.59
18.81
18.75
18.53
18.23
17.83
17.08
15.66
13.37
10.11
6.08
1.56
-3.05
-7.35
-10.88
-13.16
-13.69
-12.11
-8.44
-3.08
3.12
9.16
14.23
17.94
20.36
21.83
22.65
22.90
22.50
21.33
19.54
17.56
16.00
15.37
15.82
17.03
18.41
19.36
19.54
19.03
18.16
17.33
16.74
16.25
15.44
13.86
11.22
7.62
3.43
-0.81
-4.64
-7.72
-9.83
-10.71
-10.12
-7.96
-4.51
-0.43
3.33
5.93
7.00
6.75
5.76
4.59
3.47
2.27
0.68
-1.40
-3.75
-5.81
-6.98
-6.96
-5.90
-4.33
-2.91
-2.13
-2.16
-2.91
-4.16
-5.81
-7.81
-10.24
-13.06
-16.12
-19.25
-22.27
-25.11
-27.68
-29.74
-30.75
-30.03
-27.00
-21.60
-14.41
-6.63
0.39
5.50
8.06
8.04
5.79
1.87
-3.14
-8.60
-13.80
-18.06
-20.82
-21.89
-21.55
-20.46
-19.35
-18.72
-18.62
-18.75
-18.68
-18.24
-17.60
-17.23
-17.68
-19.21
-21.60
-24.15
-25.99
-26.34
-24.78
-21.36
-16.46
-10.62
-4.32
2.04
8.09
13.44
17.57
20.02
20.58
19.43
17.03
14.02
10.78
7.37
3.68
-0.42
-4.70
-8.65
-11.61
-13.12
-13.18
-12.32
-11.33
-11.00
-11.77
-13.67
-16.29
-18.96
-20.90
-21.40
-20.00
-16.66
-11.81
-6.37
-1.50
1.80
2.94
2.04
-0.20
-2.85
-5.26
-7.35
-9.54
-12.26
-15.55
-18.75
-20.73
-20.49
-17.65
-12.72
-6.72
-0.71
4.67
9.32
13.37
16.83
19.40
20.61
20.14
18.04
14.67
10.56
6.22
2.15
-1.07
-2.73
-2.14
1.01
6.40
13.00
19.50
24.78
28.29
30.13
30.77
30.71
30.24
29.36
28.00
26.17
24.06
21.97
20.16
18.73
17.53
16.26
14.60
12.32
9.41
6.01
2.43
-1.16
-4.80
-8.73
-13.25
-18.49
-24.22
-29.82
-34.42
-37.11
-37.20
-34.39
-28.80
-20.95
-11.69
-2.16
6.48
13.10
16.97
17.79
15.81
11.66
6.18
0.18
-5.70
-11.00
-15.44
-18.71
-20.49
-20.56
-18.90
-15.88
-12.27
-8.98
-6.86
-6.33
-7.39
-9.67
-12.62
-15.66
-18.30
-20.13
-20.70
-19.60
-16.57
-11.66
-5.33
1.49
7.60
11.87
13.51
12.32
8.70
3.42
-2.54
-8.21
-12.70
-15.26
-15.35
-12.74
-7.66
-0.79
6.86
14.24
20.63
25.76
29.69
32.65
34.72
35.74
35.44
33.60
30.34
26.23
22.30
19.79
19.86
23.19
29.77
38.77
48.74
57.94
64.82
68.36
68.31
65.12
59.69
53.17
46.74
41.40
37.87
36.37
36.52
37.41
37.86
36.69
33.17
27.16
19.04
9.53
-0.66
-11.04
-21.49
-32.24
-43.69
-56.17
-69.49
-82.83
-94.59
-102.81
-105.67
-102.04
-91.90
-76.34
-57.29
-37.05
-17.83
-1.29
11.62
20.63
26.10
28.72
29.39
28.98
28.25
27.70
27.49
27.49
27.31
26.48
24.65
21.77
18.07
13.90
9.50
4.86
-0.28
-6.26
-13.22
-20.93
-28.72
-35.56
-40.34
-42.12
-40.32
-34.88
-26.24
-15.30
-3.28
8.47
18.61
26.13
30.45
31.48
29.59
25.46
19.89
13.73
7.73
2.58
-1.26
-3.59
-4.64
-4.94
-5.21
-6.00
-7.52
-9.56
-11.77
-13.94
-16.28
-19.38
-23.86
-29.91
-36.91
-43.48
-47.73
-48.00
-43.42
-34.25
-21.85
-8.11
5.07
16.30
24.92
30.79
34.13
35.24
34.48
32.37
29.61
26.93
24.94
23.84
23.50
23.61
23.98
24.64
25.69
27.13
28.58
29.36
28.62
25.71
20.36
12.67
3.14
-7.54
-18.40
-28.24
-35.60
-39.03
-37.49
-30.75
-19.61
-5.79
8.57
21.51
31.69
38.53
42.03
42.49
40.31
35.96
30.06
23.47
17.11
11.73
7.62
4.52
1.77
-1.43
-5.64
-11.10
-17.66
-24.93
-32.48
-39.94
-47.20
-54.42
-61.93
-69.99
-78.46
-86.56
-92.89
-95.78
-93.81
-86.34
-73.80
-57.59
-39.70
-22.16
-6.56
6.09
15.41
21.39
24.27
24.36
22.15
18.34
13.76
9.37
5.93
3.85
3.06
3.11
3.49
3.85
4.08
4.24
4.40
4.45
4.26
3.80
3.40
3.69
5.43
9.16
15.03
22.85
32.41
43.79
57.36
73.48
92.14
112.62
133.54
153.24
170.17
183.06
190.98
193.06
188.40
176.27
156.47
129.72
97.74
62.84
27.36
-7.03
-39.53
-70.13
-99.17
-126.87
-153.06
-177.12
-198.19
-215.38
-227.89
-235.15
-236.80
-232.87
-223.84
-210.73
-194.92
-177.97
-161.26
-145.75
-131.79
-119.09
-106.73
-93.46
-78.00
-59.52
-38.04
-14.42
9.85
33.17
54.30
72.59
87.88
100.23
109.79
116.67
121.10
123.49
124.38
124.30
123.54
122.05
119.62
116.03
111.24
105.39
98.70
91.25
82.99
73.74
63.40
52.18
40.57
29.22
18.76
9.46
1.19
-6.52
-14.24
-22.36
-30.89
-39.50
-47.54
-54.23
-58.77
-60.47
-58.97
-54.41
-47.53
-39.55
-31.90
-25.69
-21.39
-18.66
-16.46
-13.54
-8.82
-1.84
7.23
17.69
28.57
38.86
47.68
54.32
58.36
59.66
58.55
55.73
52.15
48.65
45.71
43.33
41.12
38.61
35.52
31.77
27.45
22.60
17.18
11.07
4.18
-3.47
-11.69
-20.10
-28.10
-34.82
-39.22
-40.42
-37.95
-32.10
-23.84
-14.58
-5.65
2.02
8.05
12.49
15.65
17.86
19.55
21.17
23.27
26.37
30.85
36.70
43.49
50.43
56.55
61.01
63.36
63.67
62.40
60.19
57.51
54.54
51.19
47.25
42.60
37.26
31.37
25.08
18.51
11.70
4.68
-2.53
-9.96
-17.64
-25.45
-32.95
-39.26
-43.20
-43.68
-40.23
-33.26
-24.06
-14.38
-5.84
0.57
4.58
6.47
6.72
5.75
3.85
1.32
-1.43
-3.85
-5.40
-5.79
-5.15
-4.02
-3.19
-3.38
-4.99
-7.96
-11.87
-16.09
-20.09
-23.61
-26.72
-29.68
-32.77
-36.11
-39.65
-43.20
-46.62
-49.83
-52.72
-54.98
-55.92
-54.60
-50.05
-41.81
-30.16
-16.29
-1.94
11.11
21.50
28.59
32.38
33.31
31.97
28.98
24.98
20.66
16.74
13.82
12.18
11.68
11.82
11.91
11.39
9.93
7.48
4.17
0.20
-4.29
-9.15
-14.28
-19.47
-24.53
-29.41
-34.20
-39.21
-44.68
-50.53
-56.23
-60.77
-62.96
-61.86
-57.09
-49.02
-38.60
-27.01
-15.39
-4.55
4.97
12.88
19.05
23.49
26.43
28.18
29.03
29.13
28.40
26.58
23.40
18.83
13.13
6.86
0.71
-4.73
-9.05
-12.05
-13.73
-14.30
-14.13
-13.77
-13.83
-14.86
-17.23
-21.00
-25.90
-31.38
-36.58
-40.50
-42.17
-40.89
-36.50
-29.50
-20.97
-12.25
-4.55
1.30
4.99
6.58
6.26
4.21
0.64
-4.10
-9.33
-14.02
-17.07
-17.56
-15.14
-10.05
-3.10
4.70
12.38
19.30
25.08
29.56
32.56
33.81
33.01
29.96
24.71
17.60
9.23
0.34
-8.29
-15.89
-21.76
-25.31
-26.11
-24.13
-19.67
-13.41
-6.16
1.30
8.46
15.08
21.13
26.64
31.60
35.96
39.74
43.19
46.79
51.12
56.76
64.05
73.01
83.35
94.42
105.31
114.88
121.89
125.19
123.90
117.44
105.54
88.14
65.24
37.05
4.16
-32.13
-69.70
-105.74
-137.16
-161.24
-176.24
-181.77
-178.93
-169.90
-157.42
-144.02
-131.53
-120.86
-112.09
-104.83
-98.53
-92.64
-86.67
-80.11
-72.58
-63.94
-54.41
-44.69
-35.68
-28.19
-22.60
-18.77
-16.15
-14.11
-12.27
-10.59
-9.29
-8.67
-8.80
-9.48
-10.22
-10.41
-9.41
-6.75
-2.20
4.16
11.89
20.31
28.54
35.74
41.29
44.93
46.70
46.89
45.90
44.15
42.06
40.02
38.38
37.32
36.84
36.77
36.82
36.76
36.44
35.91
35.25
34.58
33.92
33.20
32.26
30.92
29.00
26.43
23.33
20.09
17.30
15.60
15.44
16.83
19.37
22.35
25.05
27.03
28.25
28.98
29.66
30.69
32.27
34.45
37.07
39.85
42.35
44.04
44.35
42.86
39.48
34.48
28.53
22.48
17.12
13.06
10.46
9.07
8.33
7.47
5.80
2.88
-1.28
-6.28
-11.41
-15.86
-18.96
-20.24
-19.49
-16.80
-12.46
-7.03
-1.25
4.05
8.14
10.56
11.18
10.17
7.86
4.66
1.02
-2.58
-5.57
-7.36
-7.54
-5.97
-2.90
1.19
5.74
10.29
14.57
18.44
21.80
24.43
26.04
26.31
25.06
22.37
18.72
14.87
11.74
10.13
10.47
12.69
16.28
20.55
24.84
28.77
32.22
35.09
37.23
38.29
37.92
35.97
32.66
28.58
24.48
20.95
18.26
16.38
15.09
14.30
14.10
14.72
16.43
19.38
23.66
29.29
36.26
44.40
53.35
62.43
70.72
77.34
81.83
84.34
85.78
87.59
91.31
98.13
108.44
121.75
136.67
151.34
163.73
172.08
175.14
172.26
163.44
149.32
131.00
109.89
87.34
64.46
41.85
19.74
-1.79
-22.54
-41.99
-59.29
-73.65
-84.67
-92.55
-98.03
-102.02
-105.21
-107.72
-109.15
-108.84
-106.24
-101.19
-93.92
-84.91
-74.67
-63.76
-52.76
-42.43
-33.55
-26.74
-22.26
-19.87
-19.01
-19.01
-19.31
-19.59
-19.68
-19.51
-18.99
-18.04
-16.64
-14.83
-12.72
-10.46
-8.24
-6.24
-4.63
-3.58
-3.12
-3.04
-2.85
-1.81
0.92
5.97
13.49
22.98
33.40
43.41
51.85
58.05
61.93
63.78
63.98
62.63
59.61
54.72
47.94
39.64
30.51
21.38
12.90
5.32
-1.51
-7.96
-14.32
-20.62
-26.64
-32.07
-36.77
-40.88
-44.84
-49.12
-53.99
-59.35
-64.78
-69.64
-73.31
-75.35
-75.57
-74.01
-70.83
-66.27
-60.59
-54.22
-47.83
-42.35
-38.79
-37.87
-39.70
-43.50
-47.91
-51.44
-53.12
-52.85
-51.34
-49.59
-48.31
-47.48
-46.51
-44.71
-41.87
-38.56
-35.91
-34.96
-36.01
-38.32
-40.41
-40.80
-38.78
-34.74
-29.89
-25.58
-22.58
-20.89
-19.87
-18.63
-16.17
-11.26
-2.18
13.17
36.36
67.16
102.54
136.87
163.40
176.62
174.05
156.69
127.74
90.84
48.66
2.91
-44.61
-90.99
-132.02
-163.40
-182.50
-189.59
-187.71
-181.27
-174.17
-168.42
-164.15
-160.39
-156.12
-151.08
-145.75
-140.93
-137.24
-134.80
-133.33
-132.37
-131.48
-130.32
-128.57
-125.75
-121.34
-114.82
-105.91
-94.67
-81.52
-67.05
-51.96
-37.03
-23.07
-10.85
-0.94
6.39
11.32
14.36
16.19
17.41
18.38
19.24
19.97
20.50
20.80
20.86
20.71
20.35
19.72
18.67
17.05
14.72
11.70
8.17
4.47
0.94
-2.28
-5.28
-8.37
-11.94
-16.29
-21.56
-27.67
-34.35
-41.03
-46.85
-50.70
-51.45
-48.34
-41.26
-30.86
-18.43
-5.49
6.64
17.07
25.44
31.71
36.04
38.57
39.53
39.21
38.05
36.59
35.36
34.73
34.77
35.24
35.72
35.74
35.00
33.48
31.31
28.73
25.84
22.60
18.92
14.71
10.09
5.30
0.66
-3.62
-7.49
-11.05
-14.50
-18.07
-22.01
-26.45
-31.43
-36.59
-41.30
-44.67
-45.75
-43.93
-39.03
-31.36
-21.58
-10.56
0.76
11.41
20.46
27.20
31.34
33.15
33.39
33.04
32.89
33.32
34.27
35.44
36.63
37.79
39.08
40.59
42.19
43.46
43.89
43.08
40.94
37.75
33.90
29.70
25.18
20.06
14.04
6.93
-1.15
-9.84
-18.78
-27.70
-36.47
-44.89
-52.43
-58.22
-61.25
-60.69
-56.37
-48.77
-38.95
-28.07
-17.07
-6.57
3.09
11.65
18.85
24.45
28.36
30.77
32.17
33.19
34.43
36.24
38.62
41.21
43.46
44.81
44.83
43.37
40.57
36.81
32.53
28.10
23.71
19.31
14.66
9.45
3.31
-3.96
-12.33
-21.33
-30.09
-37.37
-41.91
-42.72
-39.41
-32.23
-22.04
-9.97
2.78
15.07
25.92
34.53
40.41
43.48
44.14
43.12
41.21
39.00
36.83
34.86
33.21
32.09
31.61
31.64
31.71
31.20
29.67
27.04
23.63
19.97
16.40
12.95
9.25
4.83
-0.60
-7.02
-14.03
-20.96
-27.02
-31.39
-33.35
-32.35
-28.18
-21.06
-11.60
-0.81
10.18
20.24
28.47
34.28
37.47
38.15
36.78
33.97
30.44
26.92
23.94
21.79
20.45
19.63
18.91
17.90
16.37
14.29
11.80
9.06
6.14
3.02
-0.51
-4.64
-9.53
-15.13
-21.11
-26.81
-31.34
-33.81
-33.44
-29.88
-23.26
-14.20
-3.75
6.82
16.25
23.52
28.04
29.73
29.00
26.60
23.33
19.89
16.73
14.11
12.15
10.85
10.10
9.56
8.79
7.34
4.90
1.51
-2.58
-7.08
-11.87
-17.09
-22.97
-29.57
-36.35
-42.20
-45.64
-45.45
-41.08
-33.01
-22.55
-11.43
-1.19
7.17
13.26
17.18
19.24
19.79
19.26
18.12
16.83
15.77
15.07
14.64
14.25
13.79
13.31
13.07
13.39
14.45
16.15
18.09
19.64
20.25
19.61
17.91
15.87
14.65
15.47
19.29
26.48
36.74
49.24
62.90
76.50
88.94
99.17
106.34
109.96
110.01
106.98
101.70
95.11
87.88
80.42
72.82
64.98
56.73
47.78
37.77
26.33
13.17
-1.75
-18.18
-35.66
-53.62
-71.51
-88.75
-104.57
-117.93
-127.62
-132.48
-131.90
-125.99
-115.67
-102.48
-88.14
-74.14
-61.52
-50.72
-41.75
-34.35
-28.20
-23.09
-18.80
-15.08
-11.58
-7.85
-3.41
2.00
8.36
15.30
22.25
28.66
34.16
38.59
42.03
44.58
46.30
47.20
47.38
47.16
47.16
48.27
51.32
56.83
64.78
74.51
84.91
94.63
102.46
107.45
109.16
107.57
103.10
96.35
87.99
78.65
68.86
59.09
49.82
41.49
34.36
28.42
23.33
18.55
13.61
8.30
2.69
-3.08
-8.93
-14.95
-21.24
-27.67
-33.67
-38.39
-40.96
-40.94
-38.52
-34.42
-29.63
-24.99
-20.95
-17.67
-15.11
-13.37
-12.70
-13.45
-15.88
-20.02
-25.52
-31.84
-38.36
-44.53
-50.02
-54.62
-58.31
-61.18
-63.53
-65.76
-68.38
-71.83
-76.38
-82.14
-89.07
-97.11
-106.08
-115.55
-124.78
-132.74
-138.38
-141.00
-140.59
-137.79
-133.56
-128.75
-123.63
-117.98
-111.34
-103.45
-94.42
-84.66
-74.54
-64.14
-53.16
-41.11
-27.66
-12.91
2.60
17.99
32.39
45.08
55.61
63.74
69.28
72.16
72.44
70.59
67.54
64.63
63.16
63.98
67.07
71.57
76.16
79.65
81.43
81.58
80.61
79.02
77.05
74.61
71.51
67.73
63.49
59.18
55.06
51.17
47.29
43.16
38.71
34.12
29.79
26.13
23.33
21.27
19.51
17.53
15.02
12.09
9.33
7.68
8.12
11.33
17.40
25.84
35.71
45.92
55.42
63.44
69.48
73.32
74.99
74.78
73.11
70.45
67.12
63.16
58.29
52.00
43.79
33.29
20.43
5.39
-11.36
-29.13
-46.99
-63.86
-78.65
-90.44
-98.65
-103.00
-103.44
-100.06
-93.03
-82.68
-69.63
-54.84
-39.55
-25.03
-12.33
-2.01
5.96
12.01
16.84
21.04
25.02
28.92
32.74
36.49
40.20
43.93
47.70
51.34
54.62
57.32
59.39
60.97
62.29
63.44
64.30
64.65
64.26
63.18
61.76
60.51
59.85
59.96
60.72
61.83
62.99
63.97
64.57
64.60
63.88
62.28
59.84
56.77
53.38
49.95
46.63
43.49
40.52
37.72
35.11
32.60
30.00
27.02
23.41
19.09
14.21
9.01
3.68
-1.77
-7.47
-13.56
-19.93
-26.08
-31.09
-33.65
-32.28
-25.65
-13.01
5.51
28.74
54.62
80.67
104.56
124.66
140.20
151.23
158.21
161.76
162.45
160.80
157.44
152.95
147.75
141.87
134.71
125.25
112.34
95.31
74.26
50.21
24.76
-0.38
-23.80
-44.63
-62.52
-77.48
-89.84
-100.09
-108.97
-117.32
-125.78
-134.72
-144.11
-153.76
-163.59
-173.95
-185.57
-199.37
-216.12
-236.03
-258.54
-282.20
-304.72
-323.32
-335.25
-338.42
-332.07
-316.92
-295.00
-269.08
-241.86
-215.46
-191.13
-169.36
-149.95
-132.28
-115.57
-99.08
-82.48
-65.98
-50.27
-36.11
-23.80
-12.87
-2.03
10.38
25.88
45.20
68.09
93.25
118.77
142.68
163.60
181.06
195.55
208.23
220.47
233.32
247.16
261.50
275.06
286.05
292.55
293.08
287.12
275.39
259.68
242.33
225.44
210.34
197.36
186.05
175.66
165.46
154.89
143.44
130.69
116.50
101.19
85.53
70.55
57.14
45.68
35.92
27.27
19.03
10.73
2.11
-6.96
-16.61
-26.95
-38.04
-49.71
-61.51
-72.89
-83.37
-92.72
-100.98
-108.35
-114.93
-120.67
-125.41
-129.01
-131.58
-133.57
-135.62
-138.25
-141.63
-145.33
-148.62
-150.63
-150.82
-149.02
-145.42
-140.28
-133.79
-126.10
-117.42
-108.16
-98.97
-90.54
-83.33
-77.47
-72.73
-68.75
-65.17
-61.82
-58.54
-55.24
-51.73
-47.96
-44.08
-40.59
-38.21
-37.44
-38.13
-39.34
-39.58
-37.51
-32.60
-25.39
-17.18
-9.36
-2.80
2.41
6.51
9.69
11.67
11.81
9.50
4.55
-2.58
-11.06
-19.96
-28.56
-36.39
-43.20
-48.87
-53.40
-56.79
-59.16
-60.55
-60.94
-60.43
-59.21
-57.73
-56.50
-55.93
-56.02
-56.32
-56.20
-55.10
-53.01
-50.43
-48.16
-46.91
-46.81
-47.48
-48.15
-48.19
-47.25
-45.40
-42.82
-39.55
-35.35
-29.84
-22.85
-14.64
-5.96
2.24
9.13
14.27
17.63
19.38
19.75
18.96
17.30
15.10
12.81
10.78
9.14
7.73
6.20
4.21
1.65
-1.28
-4.23
-6.86
-9.05
-10.94
-12.86
-15.18
-18.07
-21.45
-24.87
-27.70
-29.26
-29.06
-26.93
-23.04
-17.82
-11.83
-5.64
0.26
5.40
9.36
11.78
12.36
11.14
8.42
4.84
1.18
-1.78
-3.53
-3.89
-3.06
-1.53
0.16
1.46
2.03
1.78
0.72
-1.04
-3.39
-6.27
-9.57
-13.00
-16.03
-17.88
-17.80
-15.33
-10.52
-3.93
3.50
10.75
17.05
21.92
25.29
27.35
28.39
28.66
28.40
27.76
26.90
25.97
25.10
24.30
23.49
22.46
21.09
19.41
17.63
16.14
15.18
14.69
14.26
13.29
11.21
7.90
3.74
-0.53
-4.10
-6.36
-7.01
-6.00
-3.44
0.53
5.64
11.43
17.26
22.46
26.53
29.36
31.15
32.28
33.03
33.49
33.51
32.86
31.45
29.34
26.72
23.86
20.98
18.25
15.78
13.56
11.53
9.47
7.04
3.97
0.20
-3.92
-7.65
-10.07
-10.46
-8.68
-5.16
-0.84
3.35
6.71
9.05
10.47
11.18
11.36
11.05
10.38
9.50
8.68
8.12
7.84
7.67
7.37
6.74
5.81
4.68
3.52
2.35
1.09
-0.45
-2.40
-4.74
-7.30
-9.83
-12.07
-13.87
-15.17
-15.94
-16.14
-15.61
-14.20
-11.85
-8.74
-5.32
-2.24
-0.13
0.66
0.19
-1.04
-2.30
-2.98
-2.79
-1.89
-0.71
0.26
0.82
1.05
1.23
1.62
2.30
3.12
3.89
4.44
4.77
5.00
5.27
5.59
5.90
6.13
6.30
6.60
7.34
8.89
11.41
14.88
19.02
23.33
27.28
30.39
32.41
33.22
32.97
31.90
30.33
28.57
26.84
25.21
23.63
21.95
20.06
17.93
15.60
13.17
10.70
8.20
5.60
2.97
0.47
-1.60
-2.95
-3.43
-3.14
-2.36
-1.39
-0.34
0.85
2.34
4.30
6.74
9.43
12.01
14.08
15.28
15.40
14.44
12.51
9.83
6.67
3.26
-0.19
-3.48
-6.39
-8.75
-10.44
-11.51
-12.09
-12.45
-12.92
-13.67
-14.74
-15.88
-16.70
-16.71
-15.53
-12.99
-9.27
-4.83
-0.30
3.80
7.13
9.62
11.38
12.51
13.02
12.88
12.05
10.63
8.84
6.90
5.04
3.33
1.81
0.55
-0.32
-0.70
-0.58
-0.23
-0.14
-0.83
-2.58
-5.21
-8.13
-10.54
-11.74
-11.31
-9.29
-5.96
-1.70
3.11
8.14
13.06
17.47
20.93
23.15
24.05
23.84
22.99
21.95
20.97
20.09
19.16
18.03
16.70
15.35
14.29
13.83
14.07
14.84
15.69
16.10
15.54
13.74
10.76
7.05
3.34
0.48
-0.84
-0.38
1.60
4.48
7.49
10.02
11.76
12.66
12.81
12.38
11.51
10.40
9.25
8.28
7.65
7.41
7.39
7.32
6.91
6.03
4.76
3.38
2.21
1.36
0.67
-0.19
-1.60
-3.60
-5.81
-7.48
-7.88
-6.52
-3.50
0.63
5.07
9.09
12.15
14.03
14.70
14.35
13.29
11.99
10.83
10.12
9.93
10.06
10.23
10.13
9.54
8.43
6.91
5.15
3.34
1.59
-0.14
-2.01
-4.15
-6.52
-8.79
-10.38
-10.60
-9.04
-5.72
-1.19
3.76
8.37
12.20
15.19
17.57
19.60
21.48
23.27
24.88
26.18
26.92
26.71
25.03
21.39
15.55
7.79
-1.07
-9.81
-17.18
-22.22
-24.57
-24.52
-22.90
-20.84
-19.37
-19.07
-19.96
-21.39
-22.39
-22.03
-19.75
-15.62
-10.20
-4.30
1.35
6.26
10.21
13.12
14.88
15.47
15.01
13.86
12.62
11.82
11.73
12.14
12.51
12.22
10.99
8.99
6.69
4.59
2.77
0.99
-1.17
-3.87
-6.89
-9.57
-11.19
-11.28
-9.81
-7.16
-3.82
-0.22
3.40
6.99
10.58
14.07
17.24
19.79
21.46
22.24
22.43
22.48
22.80
23.55
24.54
25.32
25.45
24.61
22.79
20.18
17.12
14.08
11.56
10.09
10.08
11.78
15.09
19.57
24.54
29.32
33.43
36.67
39.08
40.76
41.57
40.96
38.07
31.96
22.13
8.88
-6.68
-22.85
-37.91
-50.52
-59.93
-65.99
-68.79
-68.68
-66.06
-61.59
-56.24
-51.13
-47.17
-44.84
-43.93
-43.61
-42.90
-40.92
-37.25
-31.97
-25.52
-18.44
-11.30
-4.59
1.35
6.18
9.71
11.90
12.87
12.84
12.05
10.58
8.47
5.82
2.84
-0.00
-2.23
-3.53
-3.86
-3.45
-2.66
-1.80
-1.08
-0.79
-1.15
-2.37
-4.43
-6.89
-8.98
-9.81
-8.77
-5.85
-1.55
3.33
8.06
12.14
15.32
17.45
18.42
18.19
16.92
14.99
13.04
11.65
11.09
11.29
11.76
11.89
11.18
9.41
6.75
3.62
0.52
-2.06
-3.80
-4.56
-4.37
-3.54
-2.55
-1.95
-2.17
-3.22
-4.66
-5.68
-5.53
-3.85
-0.97
2.20
4.33
4.21
1.12
-4.90
-12.99
-21.65
-29.18
-34.23
-36.15
-35.15
-32.11
-28.20
-24.45
-21.62
-20.09
-19.88
-20.74
-22.08
-23.02
-22.56
-19.88
-14.66
-7.34
1.04
9.10
15.56
19.59
21.04
20.41
18.67
16.92
16.09
16.70
18.83
22.23
26.42
30.84
34.97
38.35
40.71
42.06
42.65
42.89
43.09
43.31
43.29
42.81
41.97
41.40
42.08
44.99
50.66
59.04
69.74
82.29
96.26
110.92
124.93
136.16
142.20
141.30
133.24
119.82
104.17
89.64
78.52
71.49
67.77
65.92
64.61
62.98
60.55
56.89
51.37
43.24
31.96
17.61
0.96
-16.57
-33.35
-47.92
-59.33
-67.26
-71.89
-73.69
-73.19
-70.79
-66.70
-61.09
-54.22
-46.59
-38.91
-32.00
-26.48
-22.56
-19.92
-17.81
-15.45
-12.36
-8.53
-4.33
-0.20
3.72
7.57
11.74
16.49
21.77
27.33
32.90
38.46
44.48
51.77
61.18
73.37
88.53
106.30
125.79
145.75
164.63
180.79
192.65
198.92
198.82
192.18
179.52
161.97
141.03
118.10
94.23
70.00
45.58
21.10
-3.04
-26.05
-46.78
-64.19
-77.74
-87.63
-94.81
-100.60
-106.11
-111.81
-117.32
-121.71
-123.98
-123.54
-120.42
-115.11
-108.28
-100.42
-91.80
-82.63
-73.25
-64.11
-55.72
-48.36
-41.97
-36.20
-30.57
-24.82
-19.01
-13.48
-8.73
-5.21
-3.13
-2.33
-2.42
-2.89
-3.44
-4.16
-5.59
-8.68
-14.49
-23.82
-36.86
-52.99
-70.77
-88.25
-103.50
-115.14
-122.72
-126.67
-127.89
-127.29
-125.33
-122.02
-117.24
-111.00
-103.78
-96.30
-89.30
-83.31
-78.46
-74.72
-72.06
-70.66
-70.92
-73.17
-77.44
-83.29
-89.85
-96.06
-100.85
-103.42
-103.25
-100.15
-94.20
-85.74
-75.40
-63.93
-52.12
-40.52
-29.39
-18.74
-8.57
0.91
9.20
15.70
20.07
22.41
23.36
23.85
24.83
26.89
30.22
34.57
39.36
43.88
47.37
49.16
48.81
46.14
41.33
34.95
27.83
20.84
14.74
9.99
6.61
4.28
2.49
0.74
-1.26
-3.56
-5.97
-8.18
-9.82
-10.56
-10.11
-8.32
-5.15
-0.80
4.33
9.71
14.91
19.67
24.07
28.41
33.02
38.04
43.30
48.37
52.81
56.33
58.98
61.02
62.72
64.14
65.10
65.29
64.53
62.93
60.94
59.10
57.82
57.19
56.86
56.28
54.84
52.07
47.74
41.73
34.05
24.85
14.38
3.04
-8.72
-20.57
-32.56
-44.94
-58.10
-72.13
-86.61
-100.70
-113.52
-124.59
-134.17
-143.07
-152.09
-161.40
-170.17
-176.69
-179.02
-175.88
-167.23
-154.47
-140.04
-126.56
-116.10
-109.55
-106.53
-105.75
-105.51
-104.36
-101.37
-96.22
-89.14
-80.64
-71.30
-61.78
-52.78
-44.92
-38.71
-34.42
-31.93
-30.69
-29.86
-28.50
-25.84
-21.63
-16.18
-10.34
-5.10
-1.28
0.81
1.26
0.42
-1.39
-3.98
-7.23
-10.85
-14.25
-16.66
-17.38
-16.33
-14.12
-11.91
-10.91
-11.86
-14.82
-19.22
-24.28
-29.32
-33.77
-37.07
-38.48
-37.18
-32.45
-24.09
-12.61
0.76
14.50
27.36
38.65
48.23
56.19
62.52
66.93
68.98
68.40
65.40
60.66
55.16
49.88
45.39
41.70
38.45
35.08
31.11
26.30
20.55
13.85
6.32
-1.70
-9.49
-15.92
-19.77
-20.07
-16.52
-9.65
-0.57
9.43
19.31
28.54
36.88
44.16
50.03
53.98
55.60
54.80
51.99
47.84
43.13
38.34
33.56
28.66
23.49
18.11
12.80
7.93
3.69
-0.01
-3.43
-6.79
-9.91
-12.26
-13.06
-11.72
-8.08
-2.52
4.26
11.51
18.60
25.13
30.69
34.93
37.48
38.12
36.88
34.00
29.97
25.31
20.52
15.97
11.82
8.11
4.67
1.20
-2.55
-6.84
-11.81
-17.52
-23.90
-30.69
-37.33
-42.94
-46.39
-46.63
-42.98
-35.53
-25.08
-13.02
-0.96
9.57
17.39
21.77
22.51
20.01
15.11
8.97
2.87
-2.08
-5.05
-5.58
-3.53
0.86
6.86
13.32
18.72
21.71
21.50
18.28
13.15
7.86
4.10
3.11
5.45
11.06
19.59
30.47
42.97
55.98
68.18
78.13
84.73
87.53
86.83
83.44
78.32
72.19
65.42
58.11
50.37
42.43
34.74
27.66
21.33
15.62
10.15
4.56
-1.30
-7.21
-12.57
-16.53
-18.27
-17.19
-13.07
-6.12
3.07
13.59
24.24
33.70
40.72
44.29
43.92
39.76
32.53
23.33
13.42
3.93
-4.19
-10.18
-13.50
-13.96
-11.72
-7.46
-2.12
3.25
7.79
11.11
13.26
14.66
15.92
17.80
21.02
26.17
33.55
42.91
53.50
64.13
73.43
80.16
83.47
82.89
78.41
70.31
59.13
45.60
30.60
15.09
-0.04
-14.05
-26.41
-36.81
-45.19
-51.62
-56.23
-59.30
-61.14
-62.18
-62.81
-63.26
-63.39
-62.56
-59.80
-54.11
-44.90
-32.31
-17.19
-0.89
15.18
29.98
42.92
53.86
62.86
70.09
75.74
80.05
83.34
86.00
88.40
90.70
92.76
94.16
94.33
92.71
88.96
82.90
74.51
63.83
51.02
36.58
21.42
6.91
-5.50
-14.66
-20.11
-22.25
-21.99
-20.43
-18.44
-16.52
-14.92
-13.70
-12.89
-12.47
-12.31
-12.15
-11.72
-11.02
-10.44
-10.76
-12.93
-17.57
-24.59
-33.11
-41.68
-48.87
-53.84
-56.53
-57.53
-57.54
-56.84
-55.16
-51.89
-46.58
-39.41
-31.19
-23.08
-16.06
-10.70
-7.11
-5.20
-4.88
-6.19
-9.13
-13.52
-18.96
-24.84
-30.56
-35.71
-40.14
-43.91
-47.14
-49.90
-52.25
-54.17
-55.69
-56.90
-57.79
-58.18
-57.52
-54.91
-49.22
-39.48
-25.22
-6.77
14.77
37.84
60.84
82.42
101.67
118.07
131.27
141.09
147.50
150.73
151.37
150.28
148.44
146.74
145.70
145.49
145.99
146.93
148.05
149.20
150.16
150.60
149.95
147.44
142.27
133.97
122.68
109.21
94.90
81.24
69.38
59.89
52.70
47.35
43.41
40.70
39.34
39.40
40.63
42.19
42.78
41.12
36.47
28.91
19.18
8.21
-3.42
-15.86
-29.65
-45.23
-62.35
-79.86
-95.98
-109.00
-117.71
-121.59
-120.56
-114.58
-103.52
-87.37
-66.81
-43.44
-19.75
1.49
18.02
28.61
33.13
32.34
27.50
20.18
12.14
5.18
0.78
-0.31
1.66
5.51
9.57
12.22
12.24
8.92
1.80
-9.60
-25.72
-46.64
-71.56
-98.44
-124.14
-145.10
-158.27
-162.03
-156.58
-143.60
-125.53
-104.70
-82.79
-60.85
-39.58
-19.76
-2.31
11.84
22.01
27.85
29.00
24.90
14.70
-2.08
-24.67
-50.33
-74.63
-92.56
-100.38
-97.05
-84.53
-67.03
-49.19
-34.65
-25.20
-20.88
-20.79
-23.77
-28.62
-34.06
-38.69
-41.18
-40.76
-37.67
-33.16
-28.94
-26.38
-26.00
-27.21
-28.75
-29.28
-27.86
-24.28
-18.86
-12.30
-5.43
0.93
6.11
9.66
11.59
12.28
12.45
12.83
13.83
15.37
16.99
18.17
18.74
19.09
19.99
22.13
25.63
29.83
33.41
35.01
33.89
30.32
25.60
21.57
19.85
21.20
25.21
30.39
34.69
36.15
33.59
26.99
17.48
6.82
-3.17
-11.33
-17.26
-21.23
-23.69
-24.92
-24.93
-23.73
-21.55
-18.90
-16.24
-13.57
-10.23
-5.16
2.38
12.37
23.67
34.55
43.48
49.61
53.11
54.78
55.53
55.92
56.07
55.92
55.45
54.79
54.08
53.42
52.78
52.12
51.54
51.27
51.49
52.14
52.69
52.31
50.24
46.22
40.83
35.33
31.20
29.47
30.29
32.83
35.75
37.92
38.79
38.47
37.39
35.76
33.24
29.07
22.47
13.13
1.63
-10.76
-22.37
-31.79
-38.35
-42.34
-44.86
-47.42
-51.38
-57.51
-65.93
-76.22
-87.81
-100.16
-112.98
-126.06
-138.97
-151.09
-161.52
-169.45
-174.31
-175.97
-174.60
-170.47
-163.77
-154.67
-143.42
-130.48
-116.61
-102.71
-89.57
-77.67
-67.13
-57.79
-49.35
-41.50
-33.95
-26.46
-18.87
-11.18
-3.62
3.42
9.50
14.29
17.72
20.00
21.52
22.67
23.70
24.69
25.56
26.12
26.23
25.82
24.98
23.88
22.67
21.47
20.36
19.47
19.03
19.30
20.47
22.46
24.82
26.81
27.62
26.59
23.51
18.67
12.69
6.37
0.34
-5.07
-9.78
-13.94
-17.73
-21.25
-24.46
-27.15
-28.99
-29.58
-28.57
-25.81
-21.41
-15.88
-10.02
-4.77
-0.97
0.82
0.48
-1.76
-5.32
-9.47
-13.43
-16.48
-18.07
-17.86
-15.87
-12.44
-8.25
-4.13
-0.85
1.03
1.36
0.31
-1.61
-3.73
-5.35
-5.83
-4.75
-2.05
1.88
6.31
10.31
13.15
14.51
14.60
14.00
13.28
12.74
12.18
11.17
9.32
6.61
3.45
0.51
-1.67
-2.93
-3.54
-4.02
-4.76
-5.89
-7.29
-8.80
-10.43
-12.33
-14.63
-17.13
-19.23
-20.08
-18.98
-15.71
-10.59
-4.32
2.31
8.65
14.25
18.74
21.77
23.00
22.36
20.14
16.95
13.49
10.32
7.61
5.27
3.12
1.10
-0.76
-2.38
-3.94
-5.84
-8.54
-12.20
-16.32
-19.77
-21.10
-19.18
-13.70
-5.34
4.55
14.59
23.85
31.94
38.67
43.63
46.03
45.11
40.62
33.27
24.58
16.35
9.91
5.71
3.34
2.08
1.30
0.62
-0.15
-1.21
-2.87
-5.31
-8.33
-11.32
-13.37
-13.72
-11.96
-8.20
-2.93
3.19
9.53
15.65
21.19
25.89
29.52
31.90
32.87
32.44
30.78
28.17
25.04
21.77
18.70
16.06
14.04
12.74
12.19
12.33
12.94
13.65
14.05
13.84
13.03
12.06
11.67
12.70
15.74
20.90
27.80
35.63
43.59
50.99
57.48
62.96
67.42
70.88
73.22
74.41
74.47
73.70
72.54
71.52
71.08
71.50
72.89
75.19
78.30
82.01
86.04
89.91
93.18
95.45
96.56
96.75
96.46
96.23
96.41
97.05
97.85
98.32
98.05
96.72
94.27
90.69
86.03
80.28
73.31
64.94
55.02
43.51
30.68
17.10
3.58
-9.07
-20.36
-30.22
-39.01
-47.24
-55.33
-63.38
-71.19
-78.36
-84.44
-89.00
-91.62
-91.87
-89.40
-84.11
-76.41
-67.18
-57.75
-49.44
-43.24
-39.51
-38.08
-38.45
-40.08
-42.57
-45.66
-49.08
-52.49
-55.37
-57.12
-57.19
-55.23
-51.13
-45.11
-37.69
-29.71
-22.13
-15.96
-12.00
-10.71
-12.09
-15.69
-20.73
-26.15
-30.79
-33.52
-33.42
-30.08
-23.66
-14.92
-5.06
4.60
12.88
18.93
22.35
23.31
22.41
20.60
18.94
18.21
18.65
19.90
21.19
21.73
21.02
19.05
16.14
12.75
9.19
5.59
1.91
-1.97
-6.16
-10.76
-15.77
-21.00
-25.99
-30.03
-32.28
-32.06
-29.00
-23.21
-15.16
-5.59
4.64
14.66
23.65
30.92
35.96
38.54
38.66
36.57
32.56
26.92
19.78
11.23
1.38
-9.53
-21.11
-32.82
-44.09
-54.41
-63.39
-70.70
-76.01
-79.03
-79.58
-77.79
-74.10
-69.16
-63.66
-57.99
-52.17
-45.98
-39.22
-31.94
-24.63
-18.05
-12.87
-9.42
-7.44
-6.20
-4.86
-2.78
0.15
3.54
6.72
9.15
10.64
11.50
12.29
13.60
15.76
18.71
22.13
25.60
28.85
31.85
34.79
37.95
41.51
45.42
49.30
52.63
54.92
55.97
56.01
55.58
55.32
55.59
56.28
56.81
56.33
53.87
48.54
39.68
26.98
10.67
-8.35
-28.45
-47.65
-64.08
-76.53
-84.62
-88.66
-89.26
-87.03
-82.50
-76.29
-69.23
-62.28
-56.25
-51.53
-47.95
-45.03
-42.33
-39.74
-37.44
-35.67
-34.41
-33.38
-32.14
-30.45
-28.44
-26.60
-25.52
-25.63
-27.07
-29.66
-33.21
-37.71
-43.34
-50.42
-59.13
-69.33
-80.58
-92.25
-103.77
-114.79
-125.17
-134.80
-143.45
-150.71
-156.12
-159.50
-161.03
-161.23
-160.71
-159.77
-158.22
-155.33
-150.05
-141.48
-129.11
-113.03
-93.85
-72.52
-50.11
-27.62
-5.92
14.51
33.60
51.60
68.80
85.23
100.43
113.53
123.69
130.54
134.50
136.62
138.14
139.91
142.01
143.81
144.35
142.83
138.84
132.49
124.24
114.87
105.24
96.20
88.40
82.21
77.81
75.37
75.26
78.10
84.47
94.48
107.59
122.65
138.46
154.16
169.53
184.77
199.98
214.74
227.87
237.69
242.52
241.18
233.23
218.85
198.67
173.45
144.09
111.82
78.34
45.84
16.64
-7.39
-25.41
-37.70
-45.48
-50.26
-53.35
-55.68
-57.85
-60.34
-63.54
-67.54
-71.94
-75.80
-77.87
-77.05
-72.75
-65.00
-54.39
-41.82
-28.20
-14.49
-1.57
9.76
18.86
25.23
28.57
28.79
25.97
20.50
13.07
4.57
-4.11
-12.44
-20.37
-28.28
-36.58
-45.36
-54.10
-61.78
-67.22
-69.57
-68.65
-65.02
-59.71
-53.89
-48.47
-43.85
-39.82
-35.56
-29.96
-22.05
-11.48
1.16
14.39
26.24
34.91
39.31
39.25
35.16
27.67
17.27
4.36
-10.46
-26.08
-40.97
-53.62
-63.09
-69.27
-72.72
-74.19
-74.15
-72.81
-70.23
-66.73
-62.89
-59.32
-56.22
-53.26
-49.82
-45.55
-40.83
-36.74
-34.45
-34.59
-36.75
-39.60
-41.62
-41.78
-39.95
-36.78
-33.07
-29.18
-24.84
-19.33
-11.95
-2.67
7.76
17.97
26.45
32.14
34.78
34.83
33.22
30.72
27.61
23.56
17.96
10.30
0.54
-10.74
-22.45
-32.96
-40.36
-42.71
-38.74
-28.67
-14.73
-0.76
9.03
11.83
7.42
-1.89
-12.39
-20.75
-25.16
-25.46
-22.27
-16.09
-6.99
4.96
19.00
33.45
46.20
55.61
61.37
64.53
66.94
70.19
74.86
80.21
84.46
85.58
81.91
72.87
58.96
41.67
22.95
4.72
-11.59
-25.22
-36.10
-44.58
-51.19
-56.29
-59.93
-61.76
-61.31
-58.22
-52.59
-45.04
-36.60
-28.34
-21.12
-15.37
-11.13
-8.30
-6.73
-6.43
-7.40
-9.51
-12.35
-15.30
-17.77
-19.45
-20.50
-21.36
-22.57
-24.49
-27.06
-29.90
-32.52
-34.59
-36.05
-37.23
-38.57
-40.38
-42.71
-45.33
-47.76
-49.58
-50.47
-50.37
-49.33
-47.36
-44.29
-39.79
-33.59
-25.81
-17.12
-8.58
-1.28
4.06
7.34
8.85
9.03
8.18
6.45
3.96
1.01
-1.91
-4.27
-5.74
-6.35
-6.48
-6.56
-6.90
-7.50
-8.12
-8.52
-8.59
-8.55
-8.82
-9.79
-11.61
-13.92
-15.96
-16.74
-15.43
-11.76
-6.07
0.83
7.99
14.69
20.62
25.83
30.42
34.43
37.61
39.65
40.43
40.12
39.25
38.40
37.93
37.78
37.53
36.61
34.78
32.27
29.76
27.99
27.35
27.64
28.10
27.81
26.10
22.80
18.25
13.11
8.16
4.04
1.20
-0.09
0.29
2.33
5.98
11.02
17.05
23.46
29.44
34.23
37.25
38.41
37.95
36.25
33.52
29.61
24.28
17.37
9.04
-0.24
-9.99
-19.96
-30.05
-40.06
-49.40
-57.11
-62.24
-64.40
-64.09
-62.51
-61.12
-60.99
-62.50
-65.35
-68.74
-71.67
-73.10
-72.16
-68.32
-61.44
-51.98
-40.74
-28.67
-16.62
-5.01
6.00
16.40
26.11
34.88
42.30
47.99
51.77
53.76
54.45
54.39
53.95
53.21
51.95
49.86
46.83
42.96
38.55
33.79
28.68
23.10
16.87
10.01
2.73
-4.58
-11.50
-17.59
-22.40
-25.45
-26.30
-24.77
-21.05
-15.72
-9.58
-3.34
2.54
7.85
12.38
15.91
18.12
18.69
17.60
15.24
12.21
9.26
6.92
5.38
4.52
3.97
3.39
2.53
1.31
-0.29
-2.29
-4.66
-7.35
-10.23
-13.17
-16.13
-19.23
-22.61
-26.21
-29.55
-31.80
-32.04
-29.67
-24.79
-18.04
-10.40
-2.80
4.26
10.55
15.94
20.10
22.52
22.72
20.71
17.13
13.11
9.82
7.98
7.61
8.02
8.31
7.71
5.93
3.16
-0.06
-3.25
-6.14
-8.80
-11.56
-14.79
-18.67
-22.99
-27.17
-30.38
-31.81
-30.99
-27.91
-22.95
-16.73
-9.89
-2.94
3.66
9.50
14.19
17.44
19.14
19.44
18.68
17.22
15.41
13.45
11.44
9.42
7.33
5.00
2.32
-0.69
-3.79
-6.65
-9.01
-10.92
-12.82
-15.39
-19.20
-24.28
-29.96
-35.06
-38.24
-38.51
-35.53
-29.69
-21.79
-12.82
-3.77
4.51
11.32
16.19
18.94
19.82
19.38
18.32
17.20
16.16
15.03
13.47
11.26
8.45
5.34
2.22
-0.67
-3.28
-5.70
-8.13
-10.83
-14.02
-17.90
-22.49
-27.55
-32.53
-36.63
-38.96
-38.78
-35.73
-29.93
-21.87
-12.44
-2.72
6.26
13.62
18.81
21.65
22.27
21.10
18.70
15.67
12.51
9.65
7.26
5.22
3.32
1.23
-1.17
-3.82
-6.45
-8.91
-11.41
-14.53
-18.95
-25.03
-32.44
-40.06
-46.33
-49.76
-49.48
-45.41
-38.09
-28.38
-17.10
-4.99
7.23
18.79
28.81
36.55
41.45
43.40
42.59
39.59
35.03
29.56
23.84
18.41
13.81
10.35
8.09
6.69
5.54
3.89
1.16
-2.95
-8.46
-15.17
-22.78
-30.79
-38.43
-44.46
-47.42
-46.02
-39.66
-28.78
-14.80
0.35
14.82
27.40
37.57
45.32
50.83
54.18
55.32
54.31
51.47
47.42
42.91
38.56
34.61
30.94
27.27
23.39
19.31
15.25
11.41
7.80
4.19
0.12
-4.89
-11.13
-18.53
-26.51
-34.01
-39.62
-41.94
-39.92
-33.31
-22.79
-9.76
4.06
17.22
28.85
38.68
46.79
53.12
57.34
58.88
57.33
52.86
46.43
39.51
33.57
29.48
27.18
25.87
24.50
22.32
19.25
15.70
12.21
9.03
6.00
2.59
-1.68
-7.08
-13.56
-20.83
-28.54
-36.19
-43.10
-48.34
-50.73
-49.20
-43.18
-32.90
-19.48
-4.63
9.84
22.55
32.83
40.64
46.32
50.20
52.38
52.76
51.25
48.06
43.75
39.14
34.96
31.69
29.36
27.69
26.28
24.78
22.87
20.30
16.82
12.31
6.86
0.89
-4.99
-10.23
-14.55
-18.19
-21.78
-26.12
-31.74
-38.70
-46.36
-53.43
-58.35
-59.62
-56.23
-47.99
-35.62
-20.59
-4.79
10.07
22.72
32.50
39.30
43.34
44.96
44.60
42.67
39.67
36.10
32.49
29.19
26.40
24.10
22.11
20.16
18.03
15.52
12.52
9.07
5.27
1.33
-2.57
-6.32
-9.93
-13.51
-17.27
-21.52
-26.57
-32.64
-39.62
-46.97
-53.62
-58.15
-59.11
-55.47
-47.03
-34.56
-19.63
-4.15
10.13
22.03
30.99
37.02
40.41
41.53
40.80
38.64
35.53
31.98
28.47
25.38
22.86
20.91
19.40
18.12
16.78
15.14
12.98
10.16
6.68
2.62
-1.85
-6.61
-11.55
-16.67
-21.97
-27.50
-33.39
-39.72
-46.52
-53.45
-59.73
-64.17
-65.41
-62.43
-54.86
-43.25
-28.88
-13.33
1.88
15.62
27.22
36.34
42.90
47.01
48.90
49.01
47.79
45.70
43.16
40.49
37.99
35.84
34.05
32.35
30.35
27.65
24.10
19.89
15.42
11.04
6.86
2.68
-1.82
-6.84
-12.35
-18.06
-23.69
-29.14
-34.61
-40.53
-47.32
-55.08
-63.29
-70.83
-76.08
-77.43
-73.87
-65.34
-52.83
-37.95
-22.37
-7.34
6.54
19.07
30.08
39.24
46.09
50.30
51.99
51.74
50.37
48.62
46.94
45.40
43.85
42.12
40.11
37.77
35.08
32.05
28.77
25.43
22.25
19.29
16.40
13.16
9.14
4.16
-1.61
-7.66
-13.43
-18.62
-23.31
-27.90
-32.87
-38.60
-45.24
-52.57
-60.11
-67.03
-72.24
-74.61
-73.14
-67.36
-57.47
-44.30
-29.13
-13.36
1.77
15.34
26.78
35.82
42.45
46.84
49.26
50.01
49.44
47.94
45.95
43.97
42.36
41.22
40.34
39.26
37.58
35.13
32.13
29.07
26.38
24.21
22.23
19.79
16.25
11.31
5.11
-1.78
-8.57
-14.60
-19.53
-23.43
-26.80
-30.39
-34.92
-40.88
-48.28
-56.60
-64.84
-71.71
-75.91
-76.35
-72.40
-64.01
-51.80
-36.98
-21.08
-5.65
8.13
19.66
28.89
36.06
41.34
44.73
46.11
45.52
43.33
40.32
37.34
35.02
33.46
32.38
31.26
29.84
28.19
26.58
25.23
23.95
22.32
19.71
15.80
10.63
4.71
-1.32
-6.91
-11.79
-16.04
-19.92
-23.82
-28.14
-33.24
-39.37
-46.49
-54.07
-61.05
-65.96
-67.30
-64.09
-56.19
-44.37
-30.14
-15.24
-1.21
10.95
20.77
28.20
33.39
36.49
37.73
37.41
36.00
34.07
32.14
30.48
29.10
27.75
26.14
24.08
21.59
18.85
16.15
13.60
11.13
8.42
5.04
0.71
-4.62
-10.61
-16.67
-22.26
-27.04
-31.21
-35.38
-40.28
-46.39
-53.47
-60.50
-65.91
-68.05
-65.89
-59.25
-48.84
-35.96
-21.99
-8.08
4.92
16.42
26.04
33.52
38.90
42.46
44.58
45.55
45.41
44.01
41.28
37.48
33.26
29.41
26.51
24.67
23.52
22.37
20.56
17.67
13.61
8.51
2.73
-3.48
-9.86
-16.24
-22.51
-28.54
-34.35
-40.16
-46.45
-53.72
-62.09
-70.91
-78.71
-83.52
-83.58
-77.94
-66.88
-51.68
-34.15
-16.07
1.12
16.45
29.31
39.37
46.52
50.88
52.85
52.94
51.85
50.23
48.56
47.07
45.67
44.01
41.77
38.85
35.48
32.12
29.15
26.64
24.22
21.30
17.35
12.22
6.08
-0.66
-7.61
-14.51
-21.27
-27.92
-34.60
-41.57
-49.16
-57.57
-66.60
-75.35
-82.24
-85.37
-83.18
-75.02
-61.50
-44.16
-25.02
-5.94
11.75
27.24
40.10
50.05
56.90
60.70
61.81
60.88
58.74
56.17
53.67
51.37
49.15
46.76
44.02
40.94
37.72
34.62
31.87
29.45
27.12
24.44
20.89
16.10
10.03
3.01
-4.36
-11.44
-17.86
-23.68
-29.35
-35.51
-42.73
-51.21
-60.71
-70.47
-79.28
-85.67
-88.12
-85.43
-77.15
-63.71
-46.42
-27.10
-7.53
10.84
27.05
40.55
51.02
58.29
62.42
63.75
62.92
60.75
58.02
55.32
52.90
50.77
48.72
46.48
43.88
40.90
37.77
34.82
32.29
30.08
27.77
24.66
20.14
14.04
6.66
-1.22
-8.80
-15.53
-21.33
-26.59
-31.91
-37.96
-45.21
-53.83
-63.48
-73.18
-81.40
-86.30
-86.21
-80.14
-68.18
-51.49
-31.97
-11.77
7.30
23.97
37.63
48.12
55.54
60.13
62.19
62.08
60.22
57.16
53.44
49.64
46.20
43.33
41.01
38.99
36.98
34.81
32.51
30.21
28.02
25.78
23.06
19.27
14.02
7.31
-0.36
-8.17
-15.30
-21.28
-26.14
-30.41
-34.89
-40.42
-47.61
-56.61
-66.89
-77.22
-85.79
-90.59
-89.93
-82.95
-69.98
-52.37
-32.19
-11.65
7.43
23.90
37.24
47.36
54.35
58.33
59.51
58.29
55.32
51.50
47.67
44.40
41.82
39.75
37.88
36.04
34.24
32.61
31.23
30.00
28.61
26.66
23.82
19.95
15.05
9.23
2.69
-4.32
-11.50
-18.50
-25.09
-31.18
-36.96
-42.79
-49.18
-56.58
-65.16
-74.60
-83.96
-91.81
-96.48
-96.50
-91.01
-80.06
-64.54
-46.03
-26.34
-7.16
10.21
24.90
36.36
44.39
49.03
50.67
50.03
48.10
45.91
44.22
43.35
43.07
42.91
42.42
41.46
40.28
39.23
38.49
37.82
36.63
34.21
30.13
24.44
17.69
10.55
3.58
-3.03
-9.47
-16.12
-23.35
-31.43
-40.43
-50.20
-60.29
-69.76
-77.19
-80.82
-79.12
-71.36
-58.01
-40.79
-22.11
-4.35
10.81
22.63
31.10
36.59
39.42
39.76
37.79
33.85
28.59
22.84
17.38
12.75
9.16
6.55
4.73
3.48
2.60
1.87
1.06
-0.11
-1.94
-4.64
-8.34
-12.96
-18.22
-23.69
-28.90
-33.52
-37.59
-41.63
-46.45
-52.76
-60.61
-69.09
-76.33
-80.01
-78.16
-69.89
-55.73
-37.46
-17.52
1.81
18.88
32.84
43.47
50.83
54.99
56.03
54.12
49.72
43.61
36.77
30.19
24.59
20.32
17.33
15.31
13.83
12.55
11.21
9.74
8.16
6.59
5.19
4.06
3.29
2.83
2.46
1.78
0.21
-2.98
-8.40
-16.27
-26.11
-36.52
-45.35
-50.17
-49.00
-40.97
-26.68
-8.09
12.20
31.68
48.57
62.08
72.20
79.22
83.43
84.95
83.86
80.42
75.18
68.93
62.51
56.51
51.13
46.19
41.28
36.06
30.38
24.34
18.13
11.90
5.65
-0.68
-7.17
-13.74
-20.22
-26.42
-32.28
-38.04
-44.10
-50.74
-57.73
-64.10
-68.22
-68.27
-62.92
-51.92
-36.30
-18.16
0.06
16.33
29.49
39.33
46.19
50.49
52.42
51.95
49.12
44.35
38.50
32.64
27.69
24.13
21.80
20.17
18.50
16.20
12.89
8.50
3.14
-2.93
-9.42
-16.03
-22.53
-28.73
-34.53
-39.97
-45.25
-50.80
-57.06
-64.31
-72.19
-79.48
-84.17
-83.97
-77.24
-63.60
-44.29
-21.79
0.96
21.43
38.04
50.29
58.39
62.86
64.17
62.79
59.26
54.41
49.26
44.85
41.79
40.19
39.59
39.19
38.25
36.30
33.27
29.31
24.67
19.47
13.78
7.65
1.22
-5.21
-11.34
-16.95
-22.09
-27.11
-32.60
-39.10
-46.73
-54.82
-61.81
-65.54
-63.94
-55.88
-41.62
-22.93
-2.49
17.03
33.63
46.36
55.20
60.60
63.02
62.85
60.37
56.00
50.36
44.26
38.54
33.83
30.52
28.62
27.79
27.47
26.96
25.65
23.16
19.49
14.91
9.83
4.58
-0.69
-6.09
-11.80
-17.98
-24.74
-32.13
-40.19
-48.72
-57.06
-63.91
-67.45
-65.83
-57.95
-44.07
-25.90
-6.10
12.65
28.44
40.45
48.74
53.63
55.31
53.79
49.21
42.23
34.15
26.46
20.40
16.40
14.11
12.65
11.17
9.25
6.89
4.33
1.72
-0.99
-3.94
-7.17
-10.49
-13.64
-16.48
-19.25
-22.63
-27.45
-34.27
-42.95
-52.38
-60.67
-65.56
-65.10
-58.38
-45.79
-29.04
-10.62
6.95
21.71
32.64
39.56
42.77
42.77
40.04
35.16
28.85
22.10
15.93
11.12
7.98
6.21
5.08
3.74
1.62
-1.39
-4.89
-8.32
-11.21
-13.51
-15.64
-18.24
-21.95
-27.17
-33.95
-42.05
-51.01
-60.06
-68.01
-73.35
-74.49
-70.27
-60.51
-46.22
-29.29
-11.89
4.17
17.84
28.72
36.64
41.45
42.85
40.76
35.60
28.41
20.67
13.72
8.33
4.51
1.71
-0.78
-3.43
-6.30
-9.19
-11.89
-14.41
-17.03
-20.15
-24.13
-29.21
-35.58
-43.40
-52.70
-63.13
-73.65
-82.45
-87.34
-86.40
-78.82
-65.24
-47.54
-28.16
-9.27
7.82
22.59
34.93
44.65
51.26
54.23
53.35
49.06
42.45
34.98
28.00
22.37
18.29
15.33
12.85
10.17
6.94
3.17
-0.81
-4.64
-8.19
-11.69
-15.71
-21.01
-28.28
-37.84
-49.42
-62.02
-73.89
-82.83
-86.60
-83.72
-73.87
-58.16
-38.76
-18.22
1.35
18.72
33.54
45.96
56.00
63.31
67.22
67.22
63.37
56.61
48.51
40.77
34.58
30.30
27.49
25.25
22.71
19.45
15.56
11.42
7.35
3.39
-0.78
-5.62
-11.64
-19.12
-28.14
-38.49
-49.67
-60.77
-70.41
-76.92
-78.65
-74.39
-63.85
-47.83
-28.01
-6.58
14.38
33.25
49.02
61.20
69.66
74.50
75.98
74.53
70.74
65.36
59.23
53.17
47.88
43.80
41.00
39.18
37.84
36.41
34.45
31.68
27.95
23.11
16.97
9.49
0.84
-8.35
-17.27
-25.14
-31.64
-37.19
-42.83
-49.83
-58.90
-69.67
-80.42
-88.48
-91.01
-86.09
-73.37
-54.29
-31.49
-7.94
13.98
32.86
48.25
60.19
68.76
73.90
75.62
74.23
70.59
65.88
61.31
57.71
55.32
53.84
52.67
51.20
49.04
46.07
42.45
38.46
34.39
30.37
26.23
21.54
15.74
8.46
-0.19
-9.54
-18.63
-26.62
-33.16
-38.57
-43.59
-49.02
-55.44
-63.06
-71.87
-81.66
-91.99
-101.95
-110.02
-114.20
-112.51
-103.68
-87.79
-66.23
-41.34
-15.68
8.61
30.20
48.41
62.97
73.77
80.75
84.10
84.37
82.46
79.48
76.45
74.01
72.34
71.12
69.81
67.91
65.20
61.81
58.14
54.66
51.61
48.94
46.19
42.80
38.28
32.39
25.31
17.43
9.21
0.99
-7.08
-14.99
-22.71
-30.11
-36.95
-43.05
-48.47
-53.70
-59.54
-66.78
-75.77
-86.03
-96.00
-103.45
-106.02
-102.02
-90.99
-73.88
-52.73
-30.06
-8.14
11.44
27.83
40.76
50.23
56.36
59.32
59.46
57.37
53.86
49.81
45.98
42.92
40.90
39.91
39.75
40.05
40.42
40.42
39.71
38.15
35.77
32.77
29.25
25.28
20.66
15.11
8.48
0.94
-7.01
-14.64
-21.33
-26.83
-31.37
-35.50
-39.83
-44.80
-50.68
-57.54
-65.35
-73.72
-81.79
-87.98
-90.37
-87.24
-77.81
-62.70
-43.77
-23.50
-4.11
12.96
27.14
38.36
46.56
51.57
53.17
51.55
47.45
42.13
36.92
32.77
29.99
28.23
26.94
25.65
24.26
22.90
21.79
20.87
19.76
17.88
14.71
10.03
4.00
-2.89
-10.04
-16.85
-22.96
-28.19
-32.69
-36.90
-41.45
-46.97
-53.89
-62.11
-70.83
-78.60
-83.52
-83.85
-78.48
-67.33
-51.40
-32.44
-12.51
6.48
23.12
36.52
46.31
52.48
55.32
55.36
53.31
49.96
46.05
42.19
38.73
35.84
33.46
31.44
29.62
27.88
26.14
24.31
22.17
19.40
15.58
10.46
4.10
-3.08
-10.43
-17.29
-23.23
-28.21
-32.60
-37.11
-42.62
-49.91
-59.30
-70.41
-81.98
-92.04
-98.36
-99.10
-93.34
-81.32
-64.36
-44.41
-23.55
-3.56
14.32
29.40
41.46
50.51
56.65
60.11
61.20
60.44
58.44
55.83
53.08
50.44
47.89
45.30
42.49
39.41
36.17
33.02
30.16
27.59
25.09
22.10
18.03
12.43
5.34
-2.73
-10.93
-18.39
-24.72
-30.08
-35.24
-41.12
-48.56
-57.81
-68.47
-79.40
-88.84
-94.79
-95.40
-89.54
-77.21
-59.67
-39.13
-18.15
1.11
17.37
30.32
40.32
47.93
53.60
57.42
59.38
59.55
58.27
56.10
53.66
51.37
49.31
47.25
44.80
41.71
38.08
34.38
31.14
28.65
26.70
24.56
21.35
16.42
9.70
1.81
-6.33
-13.87
-20.37
-25.98
-31.29
-37.03
-43.86
-52.08
-61.57
-71.51
-80.46
-86.57
-88.02
-83.52
-72.79
-56.74
-37.13
-16.26
3.74
21.29
35.53
46.19
53.38
57.38
58.48
57.13
53.86
49.43
44.64
40.14
36.30
33.15
30.54
28.31
26.46
24.94
23.66
22.27
20.32
17.43
13.41
8.36
2.58
-3.61
-9.98
-16.43
-22.93
-29.69
-37.02
-45.28
-54.59
-64.58
-74.12
-81.52
-84.86
-82.59
-74.03
-59.61
-40.83
-19.93
0.61
18.73
33.15
43.53
50.33
54.28
56.00
55.73
53.50
49.39
43.92
37.98
32.58
28.45
25.81
24.28
23.20
21.89
19.82
16.71
12.42
6.84
0.05
-7.75
-16.10
-24.38
-31.96
-38.49
-44.07
-49.29
-54.96
-61.70
-69.50
-77.52
-84.06
-87.12
-84.94
-76.60
-62.35
-43.51
-22.09
-0.23
20.27
38.23
52.97
64.27
72.12
76.65
78.16
77.07
73.96
69.43
64.07
58.43
52.91
47.84
43.38
39.50
36.08
32.89
29.75
26.50
22.99
18.99
14.27
8.55
1.79
-5.75
-13.51
-20.82
-27.13
-32.29
-36.71
-41.21
-46.80
-54.19
-63.29
-73.02
-81.29
-85.70
-84.27
-76.16
-61.96
-43.44
-22.91
-2.54
16.05
31.91
44.54
53.70
59.34
61.61
60.96
58.07
53.82
48.99
44.22
39.87
36.14
33.08
30.61
28.60
26.85
25.09
22.89
19.87
15.71
10.29
3.76
-3.54
-11.11
-18.50
-25.32
-31.41
-36.85
-42.08
-47.75
-54.63
-63.19
-73.15
-83.31
-91.61
-95.69
-93.61
-84.62
-69.56
-50.60
-30.68
-12.55
1.95
12.20
18.60
22.03
23.35
23.11
21.62
19.20
16.39
14.00
12.80
13.23
15.16
17.88
20.37
21.76
21.63
20.17
18.02
15.91
14.27
13.01
11.56
9.14
5.17
-0.61
-8.17
-17.28
-27.61
-38.54
-48.93
-57.03
-60.75
-58.39
-49.32
-34.47
-16.10
2.89
19.96
33.67
43.74
50.78
55.62
58.78
60.33
60.05
57.80
53.80
48.77
43.67
39.49
36.81
35.67
35.59
35.77
35.39
33.86
31.00
26.93
22.00
16.50
10.60
4.31
-2.40
-9.55
-17.09
-25.02
-33.47
-42.48
-51.78
-60.45
-66.85
-68.94
-65.03
-54.45
-38.03
-17.91
3.14
22.60
38.84
51.25
59.95
65.31
67.67
67.28
64.54
60.17
55.19
50.66
47.35
45.49
44.75
44.49
44.07
43.11
41.53
39.39
36.73
33.43
29.20
23.88
17.57
10.70
3.90
-2.34
-7.89
-13.14
-18.87
-25.83
-34.35
-44.07
-53.82
-61.85
-66.15
-65.07
-57.78
-44.60
-27.09
-7.59
11.37
27.67
40.14
48.47
52.98
54.28
52.98
49.76
45.41
40.78
36.59
33.13
30.11
26.87
22.79
17.63
11.73
5.83
0.67
-3.45
-6.81
-10.24
-14.77
-21.18
-29.65
-39.52
-49.39
-57.62
-62.92
-64.87
-64.09
-62.04
-60.41
-60.46
-62.48
-65.64
-68.24
-68.12
-63.27
-52.43
-35.41
-13.25
12.03
37.97
62.10
82.52
97.99
107.95
112.47
112.10
107.87
101.17
93.48
86.05
79.61
74.29
69.82
65.84
62.11
58.67
55.57
52.77
50.03
46.94
43.09
38.18
32.08
24.88
16.84
8.39
0.07
-7.62
-14.31
-19.97
-24.98
-30.06
-36.08
-43.71
-53.03
-63.38
-73.33
-81.01
-84.59
-82.88
-75.67
-63.88
-49.24
-33.90
-19.76
-8.19
0.19
5.47
8.15
8.88
8.15
6.24
3.28
-0.53
-4.78
-8.90
-12.31
-14.72
-16.09
-16.48
-15.91
-14.36
-11.91
-9.03
-6.64
-5.81
-7.25
-10.87
-15.81
-20.76
-24.72
-27.35
-29.16
-31.10
-34.10
-38.70
-44.83
-51.76
-58.25
-62.73
-63.61
-59.82
-51.18
-38.53
-23.53
-8.17
5.83
17.37
26.00
31.70
34.55
34.66
32.16
27.47
21.38
15.03
9.55
5.74
3.82
3.36
3.48
3.28
2.11
-0.22
-3.51
-7.36
-11.40
-15.41
-19.31
-23.11
-26.82
-30.52
-34.46
-39.09
-44.87
-51.99
-59.93
-67.35
-72.31
-72.82
-67.60
-56.59
-41.05
-23.16
-5.34
10.50
23.24
32.58
38.66
41.70
41.92
39.58
35.14
29.44
23.59
18.58
15.00
12.81
11.41
9.98
7.94
5.16
1.92
-1.32
-4.28
-7.00
-9.82
-13.16
-17.39
-22.70
-29.13
-36.64
-45.04
-53.96
-62.57
-69.62
-73.65
-73.36
-68.04
-57.84
-43.78
-27.48
-10.72
4.99
18.61
29.56
37.66
42.84
45.14
44.75
42.04
37.68
32.62
27.85
24.16
21.92
20.85
20.24
19.16
16.93
13.43
9.03
4.43
0.23
-3.39
-6.72
-10.43
-15.23
-21.65
-29.86
-39.54
-49.82
-59.28
-66.13
-68.57
-65.40
-56.47
-42.81
-26.32
-9.10
7.12
21.28
32.99
42.05
48.29
51.42
51.35
48.34
43.23
37.23
31.60
27.22
24.34
22.57
21.17
19.35
16.64
13.03
8.87
4.65
0.73
-2.89
-6.58
-10.97
-16.71
-24.20
-33.43
-43.74
-53.86
-62.05
-66.41
-65.43
-58.49
-46.10
-29.83
-11.83
5.79
21.45
34.35
44.27
51.26
55.33
56.44
54.68
50.50
44.80
38.80
33.61
29.91
27.70
26.38
25.08
23.04
19.89
15.72
10.96
6.12
1.59
-2.55
-6.54
-10.80
-15.89
-22.30
-30.36
-40.05
-50.81
-61.42
-70.15
-74.98
-74.28
-67.25
-54.33
-37.05
-17.57
1.96
19.96
35.63
48.72
59.17
66.81
71.38
72.75
71.27
67.82
63.59
59.70
56.81
54.89
53.46
51.90
49.78
47.07
43.99
40.85
37.78
34.67
31.23
27.11
22.05
15.98
9.07
1.65
-5.81
-12.90
-19.38
-25.35
-31.16
-37.37
-44.50
-52.87
-62.44
-72.71
-82.63
-90.71
-95.21
-94.51
-87.71
-74.91
-57.34
-37.05
-16.27
3.23
20.44
35.11
47.42
57.54
65.51
71.17
74.40
75.32
74.30
71.96
68.95
65.82
62.96
60.56
58.66
57.22
56.14
55.32
54.62
53.85
52.73
50.95
48.24
44.41
39.45
33.57
27.18
20.88
15.23
10.60
6.94
3.79
0.39
-4.04
-9.95
-17.18
-25.05
-32.58
-38.96
-43.82
-47.39
-50.38
-53.70
-58.21
-64.43
-72.44
-81.63
-90.77
-98.09
-101.62
-99.71
-91.60
-77.71
-59.60
-39.48
-19.55
-1.40
14.28
27.50
38.60
47.78
55.03
60.14
62.94
63.57
62.49
60.41
57.99
55.69
53.67
51.86
50.13
48.47
46.99
45.84
45.08
44.51
43.73
42.16
39.34
35.10
29.75
23.89
18.20
13.10
8.54
4.08
-0.82
-6.54
-13.06
-19.99
-26.78
-32.94
-38.25
-42.78
-46.80
-50.71
-54.97
-59.99
-66.10
-73.28
-80.97
-87.97
-92.60
-93.15
-88.48
-78.44
-63.95
-46.75
-28.83
-11.83
3.24
16.02
26.56
35.01
41.41
45.73
48.03
48.56
47.77
46.28
44.56
42.93
41.51
40.30
39.29
38.53
38.05
37.86
37.76
37.45
36.48
34.49
31.27
26.87
21.63
16.00
10.50
5.45
1.01
-2.97
-6.81
-10.93
-15.62
-20.94
-26.57
-32.01
-36.78
-40.63
-43.73
-46.67
-50.17
-54.79
-60.65
-67.20
-73.26
-77.25
-77.57
-73.13
-63.68
-50.03
-33.80
-16.96
-1.29
12.09
22.81
31.05
37.23
41.69
44.63
46.17
46.47
45.84
44.68
43.42
42.38
41.65
41.06
40.39
39.37
37.98
36.43
35.03
33.97
33.13
32.05
30.14
27.08
22.94
18.26
13.71
9.72
6.26
2.91
-0.86
-5.39
-10.64
-16.24
-21.73
-26.72
-31.10
-35.06
-38.96
-43.27
-48.42
-54.59
-61.64
-68.92
-75.32
-79.44
-79.96
-75.98
-67.37
-54.83
-39.70
-23.62
-8.15
5.59
16.99
25.91
32.52
37.08
39.80
40.89
40.55
39.13
37.09
34.97
33.24
32.18
31.81
31.93
32.27
32.55
32.63
32.35
31.55
29.98
27.52
24.17
20.24
16.15
12.25
8.64
5.10
1.23
-3.30
-8.52
-14.17
-19.78
-25.00
-29.69
-33.96
-38.13
-42.57
-47.67
-53.70
-60.59
-67.78
-74.08
-77.83
-77.47
-72.07
-61.79
-47.88
-32.27
-16.98
-3.49
7.50
15.95
22.17
26.48
29.09
30.07
29.58
28.00
25.95
24.20
23.37
23.68
24.82
26.13
26.89
26.71
25.56
23.81
21.87
19.94
17.93
15.52
12.39
8.36
3.57
-1.71
-7.08
-12.21
-16.90
-21.10
-24.97
-28.91
-33.53
-39.41
-46.83
-55.45
-64.10
-70.98
-74.13
-72.08
-64.48
-52.23
-37.10
-21.11
-5.94
7.43
18.66
27.81
34.96
40.13
43.27
44.44
43.94
42.30
40.14
38.02
36.30
35.05
34.06
33.07
31.86
30.40
28.81
27.28
25.89
24.53
22.86
20.50
17.12
12.65
7.30
1.45
-4.37
-9.79
-14.67
-19.20
-23.75
-28.77
-34.61
-41.46
-49.22
-57.44
-65.23
-71.29
-74.17
-72.61
-65.99
-54.64
-39.77
-23.17
-6.67
8.30
20.91
30.91
38.40
43.65
46.86
48.19
47.80
45.95
43.08
39.78
36.68
34.20
32.43
31.15
29.99
28.69
27.22
25.78
24.60
23.71
22.84
21.42
18.89
14.87
9.37
2.79
-4.16
-10.83
-16.81
-22.08
-27.04
-32.29
-38.36
-45.57
-53.79
-62.42
-70.40
-76.32
-78.69
-76.32
-68.69
-56.25
-40.38
-23.00
-6.08
8.90
21.22
30.75
37.72
42.36
44.85
45.29
43.96
41.33
38.01
34.59
31.48
28.82
26.58
24.65
23.00
21.70
20.80
20.28
19.87
19.10
17.47
14.54
10.21
4.70
-1.52
-7.85
-13.80
-19.15
-24.05
-28.92
-34.40
-40.98
-48.78
-57.19
-64.86
-70.00
-70.81
-66.21
-56.23
-42.03
-25.50
-8.64
6.90
20.10
30.48
37.86
42.27
43.82
42.76
39.56
34.90
29.64
24.61
20.51
17.77
16.42
16.14
16.32
16.33
15.67
14.09
11.54
8.18
4.15
-0.34
-5.15
-10.10
-15.12
-20.26
-25.73
-31.96
-39.34
-48.08
-57.86
-67.70
-75.97
-80.70
-80.16
-73.40
-60.70
-43.48
-23.96
-4.50
13.04
27.52
38.58
46.34
51.11
53.23
53.03
50.87
47.21
42.66
37.86
33.50
30.08
27.90
26.88
26.59
26.36
25.47
23.39
19.92
15.21
9.62
3.55
-2.68
-8.95
-15.23
-21.68
-28.62
-36.51
-45.84
-56.85
-69.11
-81.32
-91.30
-96.53
-94.93
-85.64
-69.44
-48.52
-25.79
-4.01
14.90
30.10
41.63
49.98
55.70
59.14
60.51
59.95
57.75
54.41
50.60
47.05
44.23
42.27
40.87
39.50
37.60
34.86
31.24
26.95
22.21
17.14
11.71
5.83
-0.55
-7.43
-14.73
-22.51
-31.03
-40.66
-51.61
-63.53
-75.23
-84.65
-89.38
-87.41
-77.88
-61.46
-40.19
-16.80
6.10
26.57
43.56
56.71
66.07
71.85
74.37
74.08
71.65
67.88
63.56
59.33
55.55
52.28
49.41
46.78
44.30
41.95
39.70
37.34
34.46
30.53
25.18
18.43
10.79
3.02
-4.24
-10.86
-17.24
-24.24
-32.73
-43.18
-55.36
-68.21
-79.98
-88.45
-91.40
-87.18
-75.30
-56.69
-33.68
-9.31
13.44
32.47
46.94
57.05
63.59
67.31
68.61
67.60
64.43
59.58
53.84
48.12
43.18
39.34
36.54
34.45
32.74
31.09
29.21
26.80
23.54
19.22
13.86
7.72
1.19
-5.38
-11.84
-18.37
-25.40
-33.53
-43.24
-54.57
-66.80
-78.26
-86.54
-89.06
-83.92
-70.72
-50.84
-27.12
-3.02
18.48
35.56
47.78
55.66
60.04
61.61
60.70
57.52
52.47
46.23
39.81
34.14
29.82
26.92
25.14
23.91
22.74
21.18
18.90
15.67
11.33
5.93
-0.25
-6.75
-13.18
-19.40
-25.77
-32.98
-41.79
-52.53
-64.74
-76.99
-87.05
-92.49
-91.30
-82.59
-66.93
-46.23
-23.23
-0.69
19.29
35.52
47.66
55.86
60.36
61.34
59.12
54.25
47.69
40.58
33.98
28.56
24.55
21.74
19.73
18.08
16.40
14.41
11.90
8.75
4.86
0.28
-4.94
-10.78
-17.22
-24.38
-32.51
-41.92
-52.87
-65.19
-77.97
-89.34
-96.73
-97.52
-90.00
-74.05
-51.40
-25.10
1.42
25.29
44.83
59.60
69.95
76.51
79.77
80.09
77.80
73.42
67.68
61.47
55.49
50.20
45.66
41.70
38.06
34.49
30.86
26.98
22.65
17.59
11.61
4.73
-2.81
-10.63
-18.43
-26.20
-34.26
-43.29
-53.93
-66.41
-80.09
-93.25
-103.33
-107.50
-103.60
-90.92
-70.58
-45.18
-18.05
7.76
30.13
48.11
61.66
71.20
77.26
80.38
81.01
79.67
76.86
73.07
68.73
64.18
59.63
55.23
51.06
47.18
43.62
40.33
37.17
33.75
29.61
24.27
17.53
9.58
0.94
-7.68
-15.78
-23.25
-30.53
-38.39
-47.80
-59.34
-72.94
-87.48
-100.74
-109.83
-111.92
-105.17
-89.46
-66.51
-39.43
-11.72
13.65
34.89
51.41
63.43
71.46
75.99
77.36
75.97
72.40
67.46
62.05
56.91
52.51
48.91
45.94
43.36
41.03
38.94
37.17
35.68
34.15
32.03
28.57
23.19
15.68
6.48
-3.46
-13.02
-21.33
-28.16
-33.99
-39.89
-47.06
-56.38
-68.02
-81.12
-93.80
-103.42
-107.21
-103.04
-90.21
-69.82
-44.52
-17.80
7.04
27.78
43.50
54.37
61.05
64.22
64.35
61.89
57.44
51.89
46.30
41.51
37.90
35.34
33.34
31.43
29.40
27.39
25.62
24.16
22.69
20.58
17.12
11.89
4.99
-2.93
-10.98
-18.38
-24.80
-30.52
-36.33
-43.29
-52.15
-63.00
-74.91
-85.95
-93.60
-95.39
-89.68
-76.25
-56.46
-32.88
-8.50
14.02
32.94
47.50
57.69
63.80
66.14
64.99
60.77
54.19
46.31
38.31
31.25
25.79
22.03
19.65
18.10
16.77
15.17
12.95
9.83
5.60
0.15
-6.43
-13.76
-21.30
-28.52
-35.17
-41.48
-48.09
-55.87
-65.51
-77.18
-90.25
-103.21
-113.84
-119.63
-118.49
-109.40
-92.92
-71.19
-47.39
-24.77
-5.82
8.25
17.41
22.31
23.78
22.44
18.71
13.01
5.92
-1.77
-9.25
-15.87
-21.26
-25.40
-28.59
-31.37
-34.33
-38.00
-42.54
-47.68
-52.78
-57.06
-59.97
-61.46
-62.08
-62.76
-64.60
-68.44
-74.68
-83.02
-92.52
-101.59
-108.25
-110.46
-106.68
-96.30
-79.91
-59.21
-36.59
-14.50
5.18
21.50
34.49
44.88
53.58
61.30
68.28
74.42
79.49
83.42
86.46
89.10
91.89
95.10
98.60
101.90
104.29
105.16
104.20
101.48
97.35
92.31
86.67
80.50
73.66
65.87
56.87
46.35
33.89
19.05
1.63
-17.81
-37.42
-54.14
-64.42
-65.53
-56.71
-39.70
-18.18
3.66
22.54
36.98
47.21
54.19
58.76
61.00
60.51
56.91
50.42
41.96
32.88
24.37
17.13
11.25
6.31
1.67
-3.22
-8.76
-15.04
-21.94
-29.18
-36.50
-43.88
-51.52
-59.78
-69.00
-79.27
-90.42
-102.02
-113.50
-124.18
-133.06
-138.87
-140.13
-135.53
-124.61
-108.01
-87.62
-66.03
-45.61
-27.84
-12.94
-0.18
11.49
22.66
33.20
42.33
49.15
53.22
54.88
55.12
55.18
56.10
58.32
61.76
66.03
70.78
75.87
81.33
87.04
92.55
97.03
99.44
99.02
95.49
89.13
80.44
69.80
57.35
43.17
27.73
12.25
-1.26
-10.38
-13.10
-8.41
3.23
19.98
39.12
57.73
73.32
84.22
89.65
89.50
84.07
73.95
59.91
43.06
24.83
6.89
-9.13
-22.02
-31.23
-36.97
-39.97
-41.24
-41.63
-41.62
-41.24
-40.29
-38.59
-36.26
-33.82
-32.10
-32.07
-34.57
-40.20
-49.12
-60.96
-74.63
-88.31
-99.72
-106.54
-107.14
-101.09
-89.34
-73.90
-57.20
-41.47
-28.28
-18.51
-12.46
-10.10
-11.23
-15.41
-21.91
-29.60
-37.05
-42.72
-45.28
-43.97
-38.63
-29.70
-17.90
-3.87
12.01
29.67
49.15
70.29
92.55
114.86
135.67
153.13
165.23
170.12
166.46
153.85
133.34
107.51
80.23
55.79
37.85
28.44
27.48
33.07
42.24
52.01
60.17
65.55
67.89
67.35
64.18
58.56
50.67
40.85
29.79
18.35
7.42
-2.36
-10.77
-17.98
-24.38
-30.37
-36.18
-41.76
-46.92
-51.36
-54.90
-57.45
-59.08
-59.93
-60.25
-60.29
-60.38
-60.87
-62.01
-63.67
-65.09
-64.76
-60.65
-50.75
-33.74
-9.62
20.12
52.84
85.33
114.50
137.93
154.11
162.56
163.88
159.66
152.23
144.29
138.13
135.10
135.27
137.52
140.10
141.14
139.25
133.70
124.51
112.26
97.91
82.58
67.33
52.89
39.53
27.02
14.89
2.80
-9.25
-20.80
-31.18
-39.84
-46.63
-51.89
-56.24
-60.38
-64.80
-69.66
-74.81
-79.71
-83.57
-85.51
-84.89
-81.71
-76.87
-71.99
-68.96
-69.11
-72.56
-78.09
-83.56
-86.76
-86.26
-81.87
-74.51
-65.76
-57.11
-49.50
-43.29
-38.43
-34.91
-32.85
-32.46
-33.85
-36.84
-40.99
-45.78
-50.78
-55.59
-59.64
-61.97
-61.28
-56.28
-46.23
-31.37
-13.01
6.83
25.94
42.44
54.99
62.81
65.55
63.32
56.74
47.02
35.83
24.87
15.42
7.90
1.93
-3.36
-8.78
-14.66
-20.76
-26.48
-31.25
-34.90
-37.72
-40.28
-43.26
-47.21
-52.40
-58.79
-65.86
-72.65
-77.76
-79.69
-77.23
-69.91
-58.20
-43.43
-27.43
-12.01
1.33
11.72
18.83
22.72
23.75
22.41
19.36
15.31
10.96
6.89
3.43
0.58
-1.84
-4.05
-6.14
-8.01
-9.44
-10.32
-10.80
-11.25
-12.18
-14.01
-16.97
-21.14
-26.42
-32.42
-38.45
-43.40
-45.94
-44.83
-39.43
-29.94
-17.37
-3.21
10.96
23.82
34.36
41.90
45.98
46.34
43.03
36.41
27.22
16.43
5.08
-5.90
-15.79
-24.30
-31.42
-37.36
-42.34
-46.45
-49.66
-51.93
-53.50
-54.89
-56.92
-60.29
-65.25
-71.26
-76.97
-80.50
-79.93
-73.85
-61.78
-44.29
-22.83
0.69
24.34
46.38
65.55
80.97
92.17
99.09
102.13
102.14
100.17
97.28
94.19
91.21
88.17
84.73
80.53
75.33
69.12
62.06
54.41
46.44
38.45
30.62
22.93
15.13
6.77
-2.45
-12.37
-22.07
-30.03
-34.53
-34.27
-29.00
-19.57
-7.86
3.87
13.58
19.86
22.05
20.17
14.73
6.61
-3.00
-12.70
-21.15
-27.30
-30.64
-31.29
-29.86
-27.25
-24.25
-21.40
-18.88
-16.67
-14.68
-12.89
-11.44
-10.58
-10.63
-11.72
-13.71
-16.05
-17.82
-18.00
-15.79
-10.99
-4.14
3.65
11.09
17.15
21.32
23.61
24.35
23.94
22.63
20.49
17.44
13.32
7.90
0.97
-7.61
-17.84
-29.34
-41.37
-52.80
-62.33
-68.81
-71.59
-70.73
-67.03
-61.66
-55.69
-49.68
-43.49
-36.38
-27.53
-16.41
-3.13
11.66
26.99
41.90
55.65
67.77
77.98
86.13
92.17
96.15
98.29
98.99
98.86
98.49
98.32
98.49
98.76
98.65
97.72
95.83
93.27
90.63
88.58
87.43
86.92
86.17
84.00
79.39
71.84
61.75
50.22
38.80
28.95
21.73
17.60
16.46
17.80
20.79
24.41
27.48
28.92
27.89
24.03
17.48
8.76
-1.48
-12.57
-23.84
-34.64
-44.32
-52.42
-58.85
-63.99
-68.47
-72.90
-77.57
-82.35
-86.85
-90.63
-93.31
-94.63
-94.33
-92.10
-87.66
-80.94
-72.17
-61.89
-50.68
-39.18
-27.95
-17.58
-8.83
-2.45
1.01
1.56
-0.15
-3.01
-5.91
-8.17
-9.69
-10.91
-12.39
-14.51
-17.36
-20.71
-24.12
-26.89
-28.26
-27.62
-24.91
-20.98
-17.50
-16.41
-19.02
-25.27
-33.39
-40.48
-43.44
-40.10
-29.76
-13.26
7.55
30.52
53.68
75.50
94.81
110.63
122.05
128.30
128.98
124.20
114.81
102.07
87.36
71.75
55.87
39.91
23.92
8.05
-7.40
-22.13
-35.99
-49.17
-61.99
-74.65
-87.01
-98.39
-107.84
-114.41
-117.46
-116.92
-113.26
-107.34
-100.19
-92.81
-86.00
-80.33
-76.04
-73.03
-70.80
-68.64
-65.76
-61.67
-56.26
-49.79
-42.78
-35.75
-29.02
-22.76
-16.97
-11.78
-7.46
-4.44
-3.14
-3.73
-6.00
-9.25
-12.38
-14.19
-13.67
-10.37
-4.54
2.96
10.94
18.30
24.30
28.63
31.31
32.38
31.82
29.48
25.25
19.24
11.89
3.93
-3.78
-10.53
-15.89
-19.80
-22.55
-24.65
-26.69
-29.26
-32.97
-38.31
-45.54
-54.46
-64.31
-73.68
-80.97
-84.67
-83.93
-78.73
-69.84
-58.55
-46.36
-34.83
-25.35
-19.05
-16.47
-17.41
-20.88
-25.40
-29.64
-32.85
-35.13
-37.13
-39.62
-42.95
-46.93
-50.96
-54.40
-56.93
-58.62
-59.93
-61.43
-63.66
-66.94
-71.25
-76.15
-80.72
-83.88
-84.48
-81.66
-75.10
-65.08
-52.35
-37.91
-22.74
-7.56
7.09
20.86
33.49
44.72
54.39
62.48
69.14
74.78
79.96
85.28
91.27
98.19
106.08
114.70
123.67
132.53
140.84
148.30
154.68
159.95
164.17
167.68
171.11
175.42
181.66
190.53
202.00
215.10
228.14
239.22
246.70
249.62
247.58
240.51
228.49
211.74
190.88
167.11
142.15
117.74
95.03
74.24
54.72
35.54
16.10
-3.40
-21.95
-38.19
-50.93
-59.63
-64.55
-66.63
-67.08
-66.84
-66.15
-64.43
-60.42
-52.79
-40.63
-23.91
-3.39
19.55
43.35
66.37
86.90
103.03
112.74
114.22
106.39
89.20
63.90
32.70
-1.61
-36.22
-68.73
-97.36
-121.10
-139.64
-153.26
-162.57
-168.35
-171.39
-172.38
-171.87
-170.32
-167.97
-164.80
-160.45
-154.21
-145.23
-132.85
-116.91
-98.00
-77.44
-56.87
-37.81
-21.31
-7.79
2.72
10.37
15.31
17.80
18.26
17.40
16.08
15.04
14.70
15.03
15.65
16.08
15.94
15.07
13.58
11.78
10.05
8.81
8.32
8.68
9.76
11.34
13.20
15.27
17.69
20.84
25.13
30.93
38.35
46.98
55.89
63.72
69.00
70.61
68.04
61.56
52.01
40.54
28.19
15.80
3.98
-6.84
-16.43
-24.83
-32.38
-39.56
-46.71
-53.78
-60.24
-65.24
-68.05
-68.32
-66.33
-62.84
-58.87
-55.44
-53.44
-53.54
-56.15
-61.29
-68.43
-76.44
-83.71
-88.58
-89.70
-86.46
-79.08
-68.43
-55.69
-42.05
-28.51
-15.81
-4.57
4.71
11.65
16.13
18.39
18.95
18.47
17.48
16.23
14.71
12.83
10.62
8.27
6.14
4.57
3.78
3.77
4.28
4.96
5.31
4.89
3.39
0.74
-2.86
-6.84
-10.42
-12.74
-13.12
-11.16
-6.94
-1.00
5.83
12.60
18.56
23.37
27.05
29.85
31.92
33.19
33.39
32.32
30.07
27.15
24.26
21.91
20.20
18.75
16.98
14.54
11.46
8.14
5.03
2.36
0.07
-2.12
-4.51
-7.31
-10.59
-14.39
-18.69
-23.33
-27.83
-31.45
-33.27
-32.53
-28.95
-22.86
-15.07
-6.70
1.20
7.74
12.37
14.82
15.12
13.60
10.79
7.35
3.98
1.13
-1.07
-2.88
-4.77
-7.17
-10.28
-13.85
-17.42
-20.45
-22.71
-24.40
-26.02
-28.13
-31.15
-35.17
-39.98
-45.25
-50.55
-55.29
-58.71
-59.85
-57.82
-52.06
-42.61
-30.19
-16.00
-1.30
12.87
25.91
37.51
47.53
55.78
61.98
65.87
67.35
66.59
64.02
60.16
55.45
50.14
44.19
37.41
29.72
21.25
12.47
4.02
-3.50
-9.79
-14.93
-19.33
-23.50
-27.78
-32.16
-36.28
-39.51
-41.16
-40.67
-37.81
-32.70
-25.76
-17.65
-9.15
-1.03
6.09
11.77
15.74
17.98
18.63
17.95
16.30
14.06
11.58
9.22
7.22
5.75
4.78
4.06
3.19
1.78
-0.32
-2.91
-5.56
-7.79
-9.37
-10.42
-11.36
-12.76
-15.03
-18.38
-22.71
-27.65
-32.53
-36.41
-38.23
-37.07
-32.51
-24.84
-15.06
-4.62
5.06
12.98
18.74
22.53
24.82
26.14
26.76
26.73
25.91
24.30
22.09
19.72
17.68
16.22
15.28
14.49
13.46
11.97
10.08
8.04
6.04
4.12
2.11
-0.21
-2.91
-5.92
-9.13
-12.53
-16.26
-20.42
-24.84
-29.01
-32.05
-33.03
-31.24
-26.54
-19.33
-10.46
-1.02
7.92
15.48
21.08
24.47
25.79
25.43
23.97
21.97
19.85
17.87
16.14
14.67
13.47
12.52
11.79
11.15
10.49
9.70
8.69
7.51
6.24
4.99
3.81
2.61
1.24
-0.50
-2.74
-5.49
-8.67
-12.15
-15.88
-19.76
-23.58
-26.83
-28.74
-28.45
-25.39
-19.62
-11.87
-3.30
4.85
11.64
16.56
19.51
20.67
20.33
18.89
16.81
14.52
12.39
10.49
8.76
6.98
5.10
3.30
1.88
1.11
1.02
1.29
1.46
1.17
0.34
-0.81
-1.94
-2.84
-3.56
-4.45
-5.95
-8.42
-11.93
-16.25
-20.79
-24.80
-27.45
-28.10
-26.37
-22.29
-16.28
-9.06
-1.44
5.79
12.02
16.82
19.95
21.31
20.98
19.14
16.16
12.50
8.75
5.47
3.13
1.92
1.72
2.14
2.61
2.71
2.18
1.06
-0.44
-2.06
-3.60
-5.01
-6.29
-7.54
-8.92
-10.73
-13.23
-16.60
-20.65
-24.83
-28.25
-29.92
-29.18
-25.77
-20.13
-13.04
-5.45
1.83
8.23
13.40
17.11
19.17
19.56
18.40
16.07
13.11
10.15
7.68
6.02
5.10
4.61
4.04
2.94
1.08
-1.42
-4.16
-6.64
-8.46
-9.55
-10.22
-10.94
-12.20
-14.29
-17.29
-21.09
-25.44
-29.95
-34.05
-36.94
-37.77
-35.92
-31.32
-24.45
-16.37
-8.25
-1.05
4.68
8.84
11.57
12.94
12.95
11.54
8.88
5.38
1.68
-1.65
-4.30
-6.42
-8.42
-10.71
-13.55
-16.83
-20.22
-23.37
-26.20
-28.92
-32.05
-36.16
-41.68
-48.75
-57.06
-66.03
-74.78
-82.42
-88.11
-91.25
-91.55
-88.98
-83.84
-76.65
-68.23
-59.61
-51.92
-46.21
-43.18
-43.00
-45.13
-48.44
-51.47
-52.79
-51.48
-47.35
-41.04
-33.76
-27.00
-22.06
-19.75
-20.20
-22.97
-27.26
-32.21
-37.21
-41.97
-46.37
-50.37
-53.78
-56.20
-57.01
-55.58
-51.33
-44.00
-33.62
-20.59
-5.58
10.53
26.78
42.29
56.30
68.31
77.96
85.00
89.25
90.56
88.89
84.43
77.54
68.71
58.45
47.21
35.46
23.77
12.71
2.76
-6.00
-14.06
-22.35
-31.97
-43.62
-57.25
-71.87
-85.84
-97.19
-104.16
-105.40
-100.14
-88.16
-69.86
-46.21
-18.84
10.09
38.18
63.29
84.02
100.01
111.74
120.15
126.03
129.71
130.99
129.53
125.21
118.32
109.54
99.62
89.19
78.73
68.55
58.88
49.71
40.65
30.88
19.39
5.52
-10.47
-27.09
-41.88
-52.06
-55.41
-51.13
-39.91
-23.77
-5.40
12.51
27.79
39.04
45.57
47.31
44.62
38.18
28.89
17.69
5.47
-7.06
-19.41
-31.33
-42.74
-53.67
-64.12
-74.01
-83.14
-91.39
-98.76
-105.54
-112.17
-118.95
-125.57
-130.80
-132.67
-128.99
-118.11
-99.61
-74.51
-45.01
-13.82
16.53
44.12
67.78
87.01
101.81
112.59
120.07
125.16
128.73
131.40
133.43
134.77
135.24
134.67
132.99
130.11
125.84
119.75
111.23
99.62
84.45
65.57
43.34
18.72
-6.61
-30.32
-49.75
-62.39
-66.63
-62.24
-50.57
-34.10
-15.66
2.39
18.60
32.44
43.79
52.50
58.24
60.70
60.03
56.99
52.83
48.71
45.29
42.52
39.84
36.67
32.76
28.36
23.99
20.25
17.40
15.32
13.40
10.70
6.09
-1.36
-12.04
-25.38
-39.75
-52.63
-61.25
-63.31
-57.63
-44.42
-25.19
-2.21
22.06
45.54
66.77
84.97
99.85
111.42
119.90
125.66
129.20
131.12
132.11
132.81
133.80
135.44
137.82
140.72
143.59
145.80
146.79
146.30
144.43
141.59
138.29
134.94
131.71
128.53
125.17
121.30
116.50
110.30
102.38
92.87
82.61
73.19
66.57
64.37
67.19
74.16
83.08
91.16
95.81
95.45
89.72
79.26
65.20
48.71
30.72
11.90
-7.31
-26.55
-45.48
-63.78
-81.17
-97.37
-112.04
-124.83
-135.41
-143.65
-149.67
-153.88
-156.75
-158.65
-159.61
-159.35
-157.53
-154.05
-149.28
-144.11
-139.69
-137.02
-136.59
-138.15
-140.80
-143.14
-143.61
-140.78
-133.66
-121.92
-105.96
-86.94
-66.63
-47.11
-30.42
-18.13
-11.06
-9.05
-11.16
-15.84
-21.25
-25.63
-27.61
-26.62
-23.02
-18.14
-13.73
-11.32
-11.45
-13.42
-15.53
-15.88
-13.25
-7.65
-0.20
7.48
13.98
18.54
21.18
22.34
22.67
22.69
22.78
23.01
23.17
22.80
21.28
18.13
13.29
7.40
1.70
-2.24
-3.03
-0.02
6.57
15.74
26.21
36.93
47.38
57.50
67.43
77.18
86.49
95.02
102.60
109.36
115.57
121.35
126.34
129.72
130.48
127.89
121.90
113.12
102.66
91.68
81.05
71.20
62.12
53.53
45.10
36.46
27.35
17.64
7.39
-3.10
-13.35
-22.85
-31.23
-38.46
-44.88
-51.12
-57.89
-65.76
-74.85
-84.75
-94.41
-102.35
-106.88
-106.59
-100.75
-89.66
-74.50
-57.11
-39.36
-22.79
-8.31
3.62
12.90
19.50
23.47
25.06
24.75
23.26
21.34
19.52
17.91
16.30
14.33
11.83
8.96
6.18
4.02
2.75
2.25
2.01
1.35
-0.30
-3.18
-7.19
-12.07
-17.52
-23.27
-29.10
-34.72
-39.86
-44.37
-48.52
-52.91
-58.28
-64.90
-72.18
-78.52
-81.75
-79.91
-72.12
-58.94
-42.24
-24.45
-7.74
6.53
17.94
26.74
33.36
38.01
40.71
41.40
40.29
37.93
35.10
32.55
30.65
29.29
27.99
26.20
23.62
20.39
16.94
13.84
11.42
9.61
7.95
5.75
2.35
-2.60
-9.00
-16.23
-23.40
-29.72
-34.86
-39.11
-43.32
-48.53
-55.43
-63.93
-73.13
-81.44
-87.05
-88.47
-84.80
-76.00
-62.77
-46.43
-28.61
-10.99
5.03
18.49
28.93
36.36
41.05
43.42
43.93
43.10
41.40
39.30
37.11
34.99
32.95
30.91
28.85
26.77
24.74
22.86
21.21
19.76
18.35
16.71
14.44
11.17
6.73
1.17
-5.16
-11.72
-18.01
-23.63
-28.47
-32.79
-37.17
-42.35
-48.97
-57.12
-66.05
-74.20
-79.54
-80.25
-75.40
-65.25
-51.11
-34.82
-18.19
-2.58
11.12
22.44
31.12
37.07
40.39
41.45
40.82
39.15
37.01
34.72
32.40
30.00
27.44
24.73
22.01
19.48
17.36
15.74
14.50
13.31
11.72
9.31
5.92
1.67
-3.10
-8.06
-12.96
-17.79
-22.64
-27.59
-32.74
-38.13
-43.91
-50.29
-57.32
-64.58
-71.05
-75.07
-75.02
-69.85
-59.66
-45.67
-29.82
-14.04
0.28
12.44
22.24
29.67
34.63
36.99
36.81
34.50
30.91
27.02
23.66
21.33
20.02
19.40
19.03
18.52
17.75
16.77
15.71
14.63
13.39
11.69
9.17
5.60
1.00
-4.33
-9.94
-15.39
-20.36
-24.73
-28.68
-32.58
-36.96
-42.16
-48.05
-53.84
-58.06
-58.99
-55.27
-46.52
-33.50
-17.86
-1.59
13.66
26.81
37.40
45.23
50.20
52.29
51.70
49.06
45.31
41.49
38.38
36.24
34.83
33.62
32.07
29.88
27.06
23.84
20.55
17.49
14.77
12.29
9.79
6.88
3.22
-1.34
-6.65
-12.32
-17.87
-22.97
-27.60
-32.09
-37.05
-43.09
-50.43
-58.67
-66.64
-72.62
-74.82
-71.99
-63.82
-51.12
-35.53
-18.96
-3.09
10.94
22.53
31.38
37.39
40.52
41.00
39.41
36.64
33.65
31.13
29.29
27.86
26.40
24.59
22.45
20.31
18.54
17.24
16.16
14.86
12.86
9.94
6.17
1.81
-2.89
-7.76
-12.72
-17.69
-22.56
-27.28
-31.98
-37.00
-42.83
-49.71
-57.41
-64.89
-70.55
-72.58
-69.68
-61.49
-48.83
-33.41
-17.27
-2.22
10.61
20.76
28.26
33.27
35.92
36.29
34.52
31.06
26.58
21.83
17.45
13.76
10.83
8.45
6.38
4.37
2.19
-0.36
-3.54
-7.55
-12.50
-18.29
-24.67
-31.25
-37.72
-43.90
-49.87
-56.02
-62.96
-71.25
-81.17
-92.38
-103.70
-113.28
-118.92
-118.77
-111.79
-98.24
-79.61
-58.26
-36.77
-17.35
-1.37
10.75
19.31
25.02
28.59
30.61
31.43
31.37
30.77
30.02
29.47
29.34
29.61
30.09
30.41
30.25
29.39
27.78
25.50
22.83
20.03
17.34
14.86
12.47
9.88
6.58
2.04
-4.28
-12.69
-23.09
-34.68
-45.90
-54.60
-58.56
-56.24
-47.29
-32.80
-15.04
3.34
20.02
33.65
43.90
51.18
56.12
59.18
60.56
60.32
58.64
55.87
52.52
49.07
45.82
42.82
39.94
36.99
33.81
30.33
26.53
22.36
17.78
12.79
7.50
2.07
-3.27
-8.45
-13.56
-18.92
-25.05
-32.41
-41.12
-50.67
-59.80
-66.69
-69.49
-66.94
-58.86
-46.26
-31.04
-15.32
-0.84
11.38
21.04
28.25
33.20
35.95
36.51
34.97
31.78
27.71
23.67
20.41
18.23
16.92
15.88
14.53
12.55
10.09
7.58
5.52
4.18
3.52
3.25
2.97
2.24
0.54
-2.62
-7.55
-14.09
-21.43
-28.05
-32.10
-31.91
-26.51
-15.88
-0.93
16.80
35.62
54.03
70.95
85.71
97.93
107.44
114.15
117.94
118.75
116.70
112.15
105.75
98.26
90.34
82.35
74.25
65.68
56.30
46.02
35.17
24.47
14.67
6.20
-1.18
-8.39
-16.68
-27.16
-40.27
-55.55
-71.64
-86.60
-98.38
-105.24
-106.10
-100.67
-89.45
-73.62
-54.87
-35.14
-16.28
0.13
13.11
22.23
27.66
29.92
29.74
27.98
25.43
22.73
20.28
18.18
16.28
14.26
11.85
8.88
5.39
1.49
-2.78
-7.47
-12.71
-18.66
-25.41
-33.03
-41.59
-51.14
-61.44
-71.80
-80.94
-87.13
-88.75
-84.85
-75.50
-61.85
-45.71
-28.97
-13.18
0.63
11.86
20.08
25.05
26.77
25.69
22.81
19.47
16.97
16.08
16.83
18.61
20.57
22.10
23.12
24.03
25.34
27.26
29.56
31.58
32.51
31.69
28.82
23.88
17.32
10.00
3.30
-1.05
-1.36
3.47
13.51
27.65
43.90
60.02
74.06
84.69
91.20
93.25
90.72
83.66
72.47
58.13
42.16
26.38
12.44
1.40
-6.54
-11.93
-15.76
-19.05
-22.43
-26.05
-29.63
-32.65
-34.57
-35.12
-34.49
-33.43
-33.16
-34.98
-39.80
-47.58
-57.02
-65.82
-71.28
-71.11
-64.16
-50.57
-31.62
-9.24
14.41
37.42
58.18
75.44
88.34
96.52
100.06
99.56
95.94
90.24
83.40
76.09
68.74
61.49
54.31
47.10
39.78
32.38
25.00
17.77
10.74
3.95
-2.63
-9.03
-15.31
-21.51
-27.81
-34.47
-41.81
-50.08
-59.18
-68.56
-77.09
-83.21
-85.21
-81.73
-72.15
-56.93
-37.60
-16.34
4.45
22.79
37.44
47.86
54.11
56.65
56.06
53.07
48.46
43.07
37.73
33.15
29.83
27.98
27.50
28.03
28.99
29.73
29.61
28.13
25.09
20.60
15.13
9.36
3.99
-0.56
-4.38
-8.05
-12.44
-18.35
-26.10
-35.33
-44.99
-53.62
-59.59
-61.50
-58.37
-49.85
-36.40
-19.30
-0.51
17.67
33.16
44.53
51.35
53.96
53.25
50.15
45.46
39.75
33.56
27.44
22.02
17.84
15.18
13.94
13.70
13.82
13.66
12.70
10.63
7.43
3.26
-1.58
-6.76
-12.04
-17.26
-22.32
-27.19
-31.97
-36.97
-42.64
-49.41
-57.30
-65.60
-72.76
-76.71
-75.51
-68.12
-54.77
-37.05
-17.44
1.48
17.67
29.93
37.96
42.09
42.92
41.07
37.19
31.92
26.07
20.48
15.92
12.87
11.30
10.73
10.41
9.60
7.88
5.25
2.05
-1.23
-4.29
-7.14
-10.12
-13.69
-18.18
-23.64
-29.95
-36.94
-44.51
-52.52
-60.48
-67.35
-71.52
-71.18
-65.06
-53.00
-36.25
-17.14
1.61
17.72
29.87
37.78
41.94
43.04
41.69
38.26
33.06
26.58
19.60
13.13
8.10
5.02
3.76
3.54
3.31
2.17
-0.31
-4.02
-8.43
-13.03
-17.50
-21.94
-26.69
-32.17
-38.74
-46.57
-55.61
-65.51
-75.44
-83.99
-89.33
-89.58
-83.48
-70.96
-53.23
-32.51
-11.40
7.90
24.00
36.38
45.12
50.46
52.60
51.69
48.04
42.40
35.87
29.72
24.96
21.99
20.49
19.60
18.36
16.10
12.68
8.43
3.92
-0.41
-4.46
-8.50
-13.02
-18.52
-25.40
-33.80
-43.60
-54.36
-65.18
-74.68
-81.09
-82.56
-77.73
-66.29
-49.22
-28.71
-7.44
12.14
28.46
40.96
49.83
55.53
58.36
58.43
55.86
51.06
44.82
38.26
32.41
27.93
24.86
22.73
20.85
18.57
15.52
11.68
7.32
2.81
-1.58
-5.83
-10.23
-15.30
-21.59
-29.54
-39.20
-50.10
-61.19
-70.92
-77.49
-79.23
-75.01
-64.65
-49.05
-30.09
-10.05
8.93
25.36
38.55
48.38
54.92
58.23
58.36
55.53
50.41
44.05
37.73
32.48
28.80
26.53
25.06
23.61
21.55
18.55
14.60
9.92
4.80
-0.44
-5.59
-10.64
-15.81
-21.67
-28.89
-37.96
-48.87
-60.76
-71.93
-80.11
-83.08
-79.31
-68.55
-51.87
-31.36
-9.52
11.42
29.89
44.99
56.32
63.82
67.59
67.98
65.64
61.46
56.41
51.33
46.80
43.01
39.83
36.96
34.05
30.82
27.17
23.18
18.97
14.62
10.08
5.12
-0.43
-6.63
-13.29
-20.22
-27.40
-35.15
-43.96
-54.11
-65.29
-76.20
-84.83
-88.91
-86.65
-77.31
-61.42
-40.64
-17.31
6.11
27.53
45.45
59.12
68.35
73.41
74.86
73.48
70.16
65.80
61.23
56.98
53.32
50.22
47.46
44.83
42.18
39.47
36.72
33.89
30.74
26.94
22.11
16.11
9.08
1.43
-6.30
-13.74
-20.72
-27.43
-34.24
-41.62
-49.99
-59.55
-70.11
-80.84
-90.16
-95.94
-95.98
-88.73
-74.06
-53.43
-29.58
-5.73
15.41
32.22
44.34
52.29
56.94
59.01
58.93
56.96
53.43
48.84
43.91
39.34
35.65
33.06
31.47
30.60
30.08
29.52
28.58
26.90
24.17
20.18
14.88
8.44
1.19
-6.41
-13.92
-20.98
-27.49
-33.67
-40.09
-47.49
-56.34
-66.35
-76.18
-83.58
-85.98
-81.45
-69.47
-51.27
-29.40
-6.83
13.91
31.36
45.02
54.95
61.29
64.09
