1542115648.00
64.000000
-0.00
-0.00
-0.00
-0.00
-0.00
-0.00
-0.00
-0.00
-0.00
-0.00
0.00
0.01
0.01
-0.00
-0.03
-0.05
-0.05
0.00
0.13
0.36
0.66
1.01
1.37
1.72
2.06
2.40
2.79
3.24
3.80
4.42
5.06
5.66
6.20
6.69
7.16
7.71
8.37
9.24
10.26
11.30
12.27
13.11
13.88
14.73
15.87
17.45
19.69
22.41
25.33
28.16
30.74
33.14
35.67
38.77
42.75
47.99
54.15
60.72
67.12
72.99
78.40
83.82
89.94
97.30
106.43
116.86
127.83
138.48
148.23
157.13
165.77
175.47
184.94
196.45
210.70
227.84
246.73
264.44
276.56
278.38
266.44
239.83
200.98
153.89
103.04
51.75
1.56
-47.37
-95.30
-142.09
-186.95
-228.39
-265.29
-296.83
-322.46
-341.60
-353.43
-356.97
-351.34
-336.20
-312.56
-282.34
-247.98
-212.03
-176.77
-143.96
-114.66
-89.29
-67.77
-49.58
-34.17
-21.20
-10.69
-3.03
1.13
1.16
-3.18
-11.56
-22.87
-35.09
-46.44
-55.78
-62.89
-68.45
-73.53
-78.92
-84.61
-89.55
-92.26
-91.62
-87.42
-80.61
-73.08
-67.07
-64.90
-68.80
-80.48
-100.63
-127.93
-158.17
-184.68
-200.33
-200.27
-184.13
-156.39
-124.49
-95.18
-73.11
-59.51
-52.62
-49.40
-47.08
-43.84
-39.50
-33.31
-23.70
-8.40
15.22
48.95
92.11
140.44
186.10
219.43
232.27
220.71
186.60
136.67
79.79
24.08
-24.40
-60.91
-80.84
-79.54
-54.51
-8.37
49.92
106.80
148.81
167.66
163.30
142.86
116.85
94.06
78.33
68.04
57.72
40.93
13.17
-26.01
-72.55
-118.14
-152.70
-168.13
-160.83
-133.14
-92.02
-46.33
-4.00
29.85
53.20
66.28
70.49
68.05
61.74
54.70
49.95
49.10
51.35
52.93
48.24
32.12
3.18
-33.92
-68.87
-89.55
-87.68
-63.43
-26.12
9.79
31.62
34.89
24.57
11.51
5.81
10.66
21.29
28.63
25.52
11.65
-6.28
-18.84
-19.74
-9.83
3.43
10.85
7.14
-5.86
-20.36
-27.48
-22.67
-8.65
6.21
12.92
7.08
-8.49
-25.37
-34.23
-30.05
-14.88
3.30
15.18
15.43
5.79
-6.13
-11.53
-5.59
9.61
26.70
37.92
40.22
37.71
39.27
53.07
81.48
119.44
157.28
186.36
203.78
212.76
220.83
234.86
256.94
283.22
305.75
315.80
307.03
278.48
232.59
174.63
111.43
50.07
-3.52
-45.72
-76.47
-98.11
-114.54
-129.79
-145.77
-161.38
-173.23
-177.68
-173.52
-163.67
-154.10
-150.90
-156.96
-170.01
-184.07
-193.11
-194.52
-190.63
-186.55
-185.64
-186.67
-183.82
-170.35
-143.94
-109.19
-75.77
-52.54
-41.88
-38.18
-31.80
-15.37
11.94
44.59
74.68
97.37
113.41
127.66
145.27
167.68
192.49
215.72
234.79
250.01
263.69
277.72
291.66
302.22
304.50
293.60
266.32
223.80
170.86
115.62
67.15
31.73
9.55
-5.44
-22.76
-49.79
-87.71
-130.83
-169.25
-194.46
-203.36
-199.17
-188.83
-178.67
-171.05
-163.98
-153.79
-137.71
-116.49
-93.81
-74.20
-59.71
-48.20
-34.48
-14.24
11.50
35.17
45.64
34.71
3.40
-36.57
-67.24
-73.39
-50.44
-7.34
37.92
67.17
70.82
51.04
18.24
-15.77
-44.40
-67.88
-89.46
-109.84
-123.76
-121.55
-95.42
-46.01
15.00
68.10
94.74
86.27
48.84
1.08
-34.46
-41.83
-18.78
22.92
63.61
85.43
80.69
54.09
18.59
-12.73
-33.63
-46.34
-57.30
-70.34
-81.83
-81.92
-60.70
-15.80
43.83
100.43
135.29
137.45
108.44
61.03
12.38
-24.32
-44.89
-53.95
-60.16
-69.58
-81.15
-86.86
-76.18
-43.01
9.00
65.78
107.89
119.43
96.14
48.57
-2.13
-34.13
-35.13
-7.96
31.34
61.61
66.55
40.82
-8.94
-68.82
-124.30
-164.78
-184.75
-182.40
-157.53
-111.33
-47.63
25.46
95.75
148.97
172.67
160.13
112.79
40.75
-39.45
-109.13
-153.00
-163.95
-144.88
-106.18
-60.57
-17.42
20.31
54.80
89.11
122.95
151.25
166.56
164.09
145.06
116.98
90.10
72.23
64.83
62.63
56.39
38.37
7.28
-29.97
-60.75
-72.26
-58.33
-22.58
22.89
63.27
87.77
93.37
83.84
65.26
41.74
14.22
-16.89
-48.31
-73.14
-84.22
-79.45
-64.97
-53.06
-55.40
-75.72
-106.46
-131.86
-136.10
-112.08
-65.88
-14.65
21.44
28.97
7.86
-28.68
-60.71
-71.48
-55.75
-22.72
8.69
19.49
0.50
-43.06
-94.14
-132.44
-144.09
-126.87
-88.61
-40.82
7.73
54.10
98.72
140.52
173.55
188.01
175.08
133.01
69.74
0.52
-58.31
-95.89
-109.81
-104.68
-87.42
-62.64
-31.00
8.77
55.97
105.05
145.37
164.95
155.38
116.41
56.83
-8.05
-61.56
-91.35
-92.92
-70.38
-33.27
8.00
45.85
76.98
101.22
118.53
126.97
123.02
103.83
70.58
29.53
-10.05
-40.30
-58.87
-69.76
-80.40
-96.00
-115.23
-129.54
-127.36
-100.33
-48.47
18.32
83.86
131.65
151.13
140.82
107.84
64.55
23.59
-6.20
-21.85
-25.47
-21.80
-14.86
-6.38
4.43
18.98
37.04
55.42
68.09
68.35
52.33
21.57
-16.74
-52.46
-76.71
-85.72
-82.52
-75.17
-73.11
-82.91
-105.48
-136.38
-168.77
-197.11
-219.60
-237.95
-255.42
-274.06
-292.94
-308.88
-317.23
-314.32
-299.09
-273.77
-242.97
-211.82
-184.30
-161.74
-142.66
-123.75
-101.20
-71.86
-33.78
13.62
69.03
128.04
182.94
223.52
240.51
229.74
195.29
149.63
109.92
92.06
105.08
148.87
215.09
290.79
362.67
420.27
457.55
473.12
469.85
452.97
429.62
406.83
389.42
378.59
371.67
363.36
347.91
322.55
287.00
244.04
198.36
154.89
116.96
85.24
58.10
32.15
4.28
-27.98
-65.63
-107.63
-150.37
-187.67
-212.66
-220.93
-214.10
-201.20
-196.43
-212.61
-254.18
-313.67
-374.12
-416.93
-430.79
-416.67
-385.99
-353.63
-329.74
-315.03
-302.87
-284.48
-254.59
-213.85
-167.58
-121.63
-79.01
-38.78
1.95
44.95
88.95
129.87
162.56
183.30
191.56
190.18
183.96
177.64
174.17
173.94
175.29
175.62
172.67
165.59
155.13
143.04
131.22
121.00
112.85
106.37
100.70
94.64
87.32
78.33
67.80
56.34
45.05
34.94
26.61
20.07
14.26
7.46
-2.20
-16.38
-36.37
-63.01
-96.38
-135.01
-173.96
-206.73
-226.10
-226.65
-207.32
-172.43
-130.36
-90.37
-59.18
-39.17
-28.95
-25.30
-25.37
-27.83
-32.46
-38.98
-46.25
-52.46
-56.18
-57.54
-58.20
-60.49
-66.39
-76.32
-88.95
-101.78
-112.26
-119.05
-122.59
-124.56
-126.83
-130.08
-133.04
-132.53
-124.94
-106.96
-77.48
-38.08
7.24
53.57
96.64
134.06
165.71
193.54
220.44
248.61
277.89
304.64
322.21
322.79
300.23
252.83
184.70
105.42
27.83
-34.98
-72.86
-81.11
-61.75
-23.32
21.41
59.17
80.21
80.93
64.36
37.98
10.42
-11.33
-23.82
-26.93
-22.66
-13.91
-4.32
1.58
-1.79
-19.17
-52.01
-96.53
-143.74
-182.11
-202.01
-200.00
-179.46
-150.24
-123.64
-107.33
-102.48
-104.04
-103.68
-93.24
-67.84
-27.36
23.52
76.67
122.74
153.86
165.66
159.53
142.09
121.97
106.32
98.00
95.61
95.29
93.43
88.48
81.15
73.06
65.31
58.01
50.29
41.55
31.37
20.15
9.07
0.09
-4.96
-5.05
-0.47
7.09
14.94
20.14
20.26
13.65
-0.47
-22.10
-49.86
-80.01
-106.23
-120.53
-116.57
-93.17
-56.37
-18.45
6.54
8.64
-13.38
-51.33
-91.13
-119.20
-128.11
-118.46
-96.54
-69.45
-41.24
-12.21
18.47
49.42
75.62
89.83
86.36
64.67
30.59
-5.71
-34.43
-50.39
-54.36
-50.88
-44.30
-36.13
-25.48
-11.25
5.66
22.17
34.84
41.93
44.61
46.21
49.81
55.74
60.94
60.59
51.27
33.49
11.92
-6.76
-17.35
-18.61
-13.87
-9.15
-10.03
-18.69
-32.28
-44.05
-46.41
-35.23
-12.62
13.26
31.89
35.50
22.87
-0.18
-23.94
-39.59
-42.93
-35.19
-20.60
-2.81
17.35
41.40
70.34
101.56
128.00
140.48
132.04
101.87
56.17
5.71
-38.52
-69.27
-84.36
-85.60
-76.48
-60.58
-41.33
-22.79
-9.66
-5.97
-12.84
-26.98
-41.27
-47.67
-40.89
-20.89
6.97
34.30
53.00
57.91
47.82
25.13
-5.26
-36.96
-63.01
-76.97
-74.53
-55.09
-22.53
15.75
51.28
77.13
89.45
87.23
71.16
42.82
5.44
-34.69
-67.80
-82.98
-73.05
-39.23
7.38
49.42
70.70
63.46
31.47
-12.76
-54.69
-84.24
-98.47
-99.83
-91.87
-75.84
-50.41
-14.09
31.36
79.37
119.74
142.44
141.77
118.89
81.34
40.01
5.08
-17.22
-25.73
-23.31
-14.37
-2.40
11.26
26.97
45.09
63.93
78.89
83.26
70.80
38.92
-9.00
-63.58
-112.05
-142.40
-147.93
-129.04
-91.96
-45.09
4.61
53.44
99.58
140.35
170.89
184.74
177.68
151.73
115.93
83.04
63.62
60.92
69.27
77.55
74.35
53.99
18.35
-25.74
-71.50
-116.17
-161.43
-210.63
-262.11
-309.79
-344.24
-357.15
-346.04
-315.90
-276.71
-238.15
-207.89
-184.37
-161.58
-133.34
-96.42
-51.35
-0.90
51.78
103.84
151.72
191.52
218.57
229.49
224.13
205.82
179.70
149.94
117.93
82.54
43.18
1.97
-34.84
-58.55
-62.15
-44.33
-10.89
27.35
58.89
76.34
78.19
68.35
53.17
38.22
26.12
16.55
7.71
-1.89
-12.75
-25.46
-41.74
-64.66
-96.86
-138.27
-184.39
-226.78
-256.00
-265.04
-251.71
-218.38
-170.06
-112.34
-50.57
9.70
62.17
100.64
121.04
123.54
112.96
96.64
80.58
66.11
49.38
24.35
-13.07
-61.30
-112.57
-155.82
-181.37
-184.45
-166.41
-133.49
-94.17
-56.92
-28.27
-11.88
-7.99
-13.37
-22.06
-27.00
-22.72
-7.16
17.48
45.89
72.25
92.21
103.79
107.29
104.77
99.23
95.51
99.57
116.75
149.48
194.56
242.76
281.05
297.60
286.41
251.68
206.79
169.08
153.60
166.95
205.26
257.04
308.88
349.75
375.37
387.46
385.88
372.07
347.73
313.90
271.07
225.16
175.70
119.24
51.73
-28.61
-119.97
-213.57
-296.20
-354.17
-377.98
-367.35
-330.33
-280.91
-233.83
-198.82
-177.71
-166.54
-158.48
-147.77
-133.76
-119.63
-109.35
-103.72
-98.29
-84.85
-56.07
-10.91
45.11
101.56
148.22
178.51
191.14
186.06
167.01
138.46
103.98
66.31
27.42
-10.41
-44.79
-73.78
-96.55
-113.11
-124.39
-131.71
-135.37
-134.42
-126.66
-109.81
-83.92
-52.36
-22.32
-3.91
-6.16
-32.21
-76.56
-126.17
-165.24
-181.41
-170.30
-136.08
-88.99
-40.68
-0.06
28.62
45.57
53.92
57.79
60.77
64.93
70.16
74.57
75.99
72.91
64.86
51.75
32.63
5.60
-30.63
-74.44
-119.79
-156.99
-176.31
-172.13
-145.25
-101.98
-50.70
1.75
51.69
97.47
137.39
168.08
185.01
184.71
166.79
134.14
91.27
42.00
-11.26
-66.27
-118.84
-161.73
-186.76
-188.64
-168.60
-134.93
-99.46
-71.96
-55.79
-47.36
-39.32
-25.28
-3.07
25.21
55.17
82.39
103.25
114.60
113.58
98.76
72.09
39.56
10.04
-8.23
-11.30
-1.14
15.62
31.15
40.00
40.85
35.67
27.97
20.73
15.74
13.58
13.92
15.30
14.66
8.12
-7.55
-33.10
-65.54
-98.72
-125.56
-141.23
-144.87
-140.40
-134.52
-133.36
-139.38
-150.62
-162.47
-170.50
-172.77
-170.60
-166.06
-159.84
-150.41
-134.64
-109.46
-73.18
-25.93
30.31
92.23
155.31
214.05
262.39
295.10
309.49
306.59
291.04
269.05
245.61
221.92
195.07
160.30
114.89
61.43
8.52
-31.38
-46.74
-32.03
9.13
64.11
114.75
142.95
136.69
93.88
23.06
-59.57
-135.35
-188.78
-211.28
-202.16
-167.19
-116.10
-60.23
-10.48
24.11
38.47
33.15
14.49
-7.30
-22.37
-25.53
-18.90
-10.75
-11.02
-25.41
-51.36
-78.67
-94.06
-87.93
-59.07
-15.17
31.18
68.42
90.65
98.43
96.19
88.34
76.80
61.23
41.27
18.72
-2.11
-16.02
-19.41
-11.86
3.91
23.43
42.07
56.20
63.47
62.70
53.64
36.86
13.79
-13.11
-40.16
-62.63
-75.29
-73.74
-56.16
-25.00
12.72
47.13
68.74
72.04
57.61
31.73
3.60
-18.52
-30.44
-32.77
-29.16
-23.47
-17.56
-10.78
-1.27
12.11
28.46
44.98
58.39
66.62
69.40
67.74
61.45
48.53
26.78
-3.92
-40.12
-74.95
-100.32
-110.32
-103.98
-84.74
-60.93
-41.96
-34.35
-39.50
-54.29
-73.15
-90.73
-103.34
-108.97
-106.58
-96.23
-77.92
-53.21
-25.79
-0.67
17.54
26.95
29.37
29.78
34.51
48.80
74.39
108.67
145.37
176.46
194.47
194.21
173.58
133.98
80.14
19.38
-39.44
-87.35
-117.28
-125.73
-113.62
-86.16
-51.27
-17.32
8.86
23.41
25.78
18.47
6.16
-5.59
-11.84
-9.83
-0.14
13.09
23.59
25.41
15.55
-5.01
-31.80
-59.03
-81.91
-97.87
-106.20
-106.56
-97.87
-78.61
-48.53
-10.67
27.98
58.19
72.06
66.54
44.87
15.19
-13.02
-32.84
-42.10
-43.47
-42.42
-44.30
-51.80
-64.01
-76.86
-85.08
-84.46
-73.77
-55.39
-34.17
-15.36
-2.44
3.96
5.56
4.84
3.51
2.03
0.17
-1.91
-3.08
-1.69
3.38
11.93
22.45
33.00
42.34
50.32
57.53
64.50
70.97
75.98
78.50
78.11
75.52
72.35
70.25
70.28
72.65
76.95
82.51
88.57
94.08
97.92
99.28
97.90
94.18
88.99
83.23
77.34
70.95
63.22
52.13
35.62
12.03
-19.09
-56.07
-94.52
-127.89
-148.10
-150.46
-135.52
-108.91
-79.27
-54.71
-39.82
-34.61
-35.77
-39.21
-42.46
-45.11
-47.87
-51.36
-55.22
-58.36
-59.79
-59.36
-57.82
-56.66
-57.22
-59.88
-64.03
-68.33
-71.40
-72.19
-70.27
-65.73
-59.08
-50.88
-41.50
-31.56
-21.20
-10.67
-0.33
9.54
18.86
27.68
36.11
44.13
51.39
57.44
61.84
64.57
66.27
68.09
71.26
76.70
84.85
95.58
108.22
121.36
132.58
138.84
137.21
126.20
106.82
82.65
58.61
38.95
25.48
17.23
11.65
6.48
1.03
-3.71
-6.13
-5.23
-1.32
4.24
9.78
14.16
16.99
18.31
18.25
16.90
14.36
10.52
4.88
-3.60
-15.59
-30.37
-45.24
-55.96
-58.42
-50.78
-34.86
-14.84
2.78
12.10
10.09
-2.65
-23.10
-47.62
-73.68
-100.13
-126.42
-151.83
-174.97
-194.38
-209.43
-220.88
-230.45
-240.11
-251.09
-262.95
-273.96
-281.68
-283.89
-279.28
-268.44
-251.54
-228.22
-197.45
-157.60
-107.23
-45.63
27.03
109.63
199.46
291.68
378.73
450.87
498.54
515.10
499.36
456.16
394.40
323.80
252.11
185.58
127.52
81.07
50.12
38.12
46.06
70.75
104.59
137.40
158.97
161.53
141.81
101.57
46.27
-17.14
-82.31
-144.43
-199.68
-244.06
-272.78
-280.98
-266.17
-230.69
-182.31
-132.03
-89.94
-62.00
-48.23
-43.98
-42.98
-40.30
-33.87
-23.81
-10.80
4.86
23.27
44.22
66.20
86.52
101.82
109.16
107.00
95.74
77.49
55.56
33.74
15.39
2.84
-2.86
-1.78
5.11
16.15
28.88
39.83
45.10
41.54
28.72
10.41
-6.04
-12.68
-4.65
16.76
43.96
66.09
73.90
64.00
40.10
10.59
-16.01
-35.16
-47.48
-56.30
-63.74
-67.96
-63.93
-47.22
-18.32
15.67
43.57
55.78
49.60
30.71
9.96
-2.86
-4.25
1.75
6.65
3.11
-11.04
-31.86
-52.08
-65.62
-70.96
-71.67
-73.81
-81.84
-95.50
-109.29
-115.12
-106.62
-82.69
-48.35
-12.42
16.90
35.58
45.04
50.23
56.09
64.43
73.03
77.22
72.88
59.18
39.39
19.42
4.87
-1.87
-2.84
-3.27
-8.10
-18.58
-30.57
-36.25
-28.60
-5.99
25.75
55.43
72.09
70.51
53.79
31.24
12.97
4.79
6.15
11.87
16.05
15.18
8.88
-1.43
-14.44
-29.56
-46.26
-62.63
-74.76
-77.59
-66.72
-40.56
-1.67
43.53
86.23
117.48
130.68
123.18
96.50
55.00
3.84
-52.54
-110.43
-165.92
-213.73
-247.55
-261.88
-254.49
-228.05
-189.67
-148.47
-112.47
-86.24
-70.32
-62.17
-57.92
-53.97
-47.71
-37.74
-23.78
-6.21
14.20
36.62
59.93
82.00
99.43
108.18
105.45
91.70
71.74
53.20
42.93
43.44
51.61
60.82
65.39
64.02
60.18
59.12
63.72
72.11
78.90
78.93
70.53
57.16
45.35
40.94
46.07
58.63
74.04
88.01
98.36
105.05
109.11
111.33
111.65
109.46
104.24
96.21
86.48
76.71
68.31
62.01
57.55
54.04
50.55
46.81
43.26
40.88
40.59
42.50
45.66
48.33
48.70
45.64
39.21
30.53
20.67
10.21
-1.25
-15.05
-33.20
-57.84
-90.62
-130.92
-175.89
-219.70
-254.06
-270.61
-264.15
-235.39
-191.43
-143.40
-101.98
-73.55
-58.25
-51.39
-47.08
-41.77
-35.80
-32.16
-34.00
-41.77
-52.81
-62.27
-65.11
-58.01
-40.27
-13.20
19.99
54.46
84.07
102.13
103.14
85.03
51.28
11.10
-22.93
-39.62
-34.02
-9.69
22.63
49.90
62.39
57.07
37.51
10.79
-16.14
-38.47
-53.40
-59.11
-53.80
-36.63
-9.66
21.44
48.27
62.58
59.31
38.21
4.08
-34.49
-67.73
-87.57
-89.87
-75.80
-51.44
-25.66
-6.96
-0.94
-7.99
-24.08
-43.58
-61.80
-76.70
-88.42
-97.26
-102.30
-101.14
-90.31
-66.88
-29.78
19.41
75.79
131.96
179.56
211.66
223.09
214.28
190.88
161.43
134.10
113.77
101.31
94.78
91.42
89.35
88.07
87.37
86.38
83.69
78.10
69.65
59.78
50.42
43.15
38.38
35.11
31.57
26.45
19.66
12.44
6.80
4.31
5.30
8.70
12.12
12.33
6.66
-6.69
-27.06
-50.75
-71.77
-83.67
-82.31
-67.32
-43.86
-20.27
-4.46
-0.45
-7.02
-18.88
-29.46
-34.14
-32.44
-28.30
-28.07
-37.72
-60.40
-94.60
-134.88
-173.49
-202.68
-216.81
-213.01
-190.92
-151.98
-99.13
-37.23
26.37
82.23
120.77
135.25
124.34
92.71
49.30
4.25
-33.77
-59.21
-69.51
-64.51
-45.87
-16.91
17.57
52.14
82.30
105.77
122.48
133.19
137.48
133.01
116.65
86.99
46.57
1.98
-38.39
-67.17
-80.27
-77.49
-61.67
-37.19
-8.66
19.56
43.93
62.19
73.50
78.22
77.17
70.92
59.58
43.81
25.75
9.64
1.03
3.94
18.26
38.92
57.48
65.21
56.24
28.64
-15.07
-68.62
-123.47
-170.90
-203.91
-219.15
-217.81
-203.09
-181.66
-160.81
-145.53
-136.83
-132.35
-128.44
-122.36
-114.56
-105.46
-95.40
-83.91
-69.96
-52.83
-32.81
-11.01
11.45
34.37
59.29
87.97
121.18
156.96
190.25
214.31
223.37
214.78
189.64
151.97
106.46
57.80
11.04
-27.88
-52.36
-56.59
-37.82
1.81
54.96
110.18
154.70
177.54
172.29
138.85
84.05
20.31
-37.25
-74.70
-83.40
-62.40
-18.49
36.10
87.48
123.62
136.97
125.13
90.42
38.84
-21.08
-79.41
-126.22
-153.45
-157.38
-140.21
-109.79
-76.86
-50.89
-36.67
-33.21
-35.57
-38.20
-37.74
-33.60
-27.18
-20.30
-14.24
-10.06
-8.40
-9.40
-11.93
-13.28
-9.67
2.15
23.22
51.18
80.46
103.75
114.10
107.12
82.56
44.62
0.93
-39.32
-67.96
-80.02
-74.64
-54.61
-24.84
9.31
43.00
71.98
92.79
103.20
102.67
92.78
76.81
58.68
41.17
24.58
6.64
-15.53
-42.91
-73.03
-100.19
-117.88
-121.69
-111.81
-91.98
-69.33
-51.03
-40.99
-38.26
-38.15
-36.10
-29.54
-19.09
-7.77
0.69
3.75
1.30
-4.89
-11.80
-16.57
-17.72
-15.71
-12.40
-9.81
-8.59
-7.56
-4.73
1.12
9.14
16.61
20.31
18.47
11.84
3.43
-3.04
-5.39
-4.22
-2.62
-4.26
-11.11
-21.94
-32.59
-37.57
-32.60
-16.71
7.21
33.51
56.04
70.41
75.28
72.07
63.63
52.55
40.18
26.55
11.24
-5.69
-23.32
-39.86
-53.26
-61.65
-63.81
-59.40
-48.96
-33.70
-15.17
5.03
25.13
43.00
56.01
61.45
57.51
44.62
26.02
7.20
-6.13
-10.52
-6.58
1.35
7.39
7.24
0.42
-9.56
-17.34
-18.55
-12.20
-0.95
10.53
18.12
20.35
18.77
16.50
16.14
18.12
20.85
22.22
21.44
19.77
19.62
22.64
28.27
33.67
35.37
31.47
22.96
13.24
6.23
4.14
6.44
10.37
12.74
11.71
7.66
2.84
0.13
1.57
7.52
16.46
25.68
32.48
35.38
34.95
33.54
34.22
39.20
48.43
59.33
67.71
69.41
61.91
45.14
21.09
-7.37
-37.64
-67.77
-95.86
-119.28
-134.63
-138.82
-130.86
-113.23
-91.64
-72.90
-61.98
-59.57
-61.87
-62.55
-55.99
-40.39
-19.08
0.67
10.56
5.29
-14.44
-41.26
-63.65
-71.00
-59.00
-32.30
-2.30
18.98
25.71
21.49
16.70
21.22
37.25
56.97
66.97
56.88
26.60
-12.49
-43.51
-53.50
-40.48
-13.85
11.47
23.75
20.35
7.74
-3.61
-5.92
1.66
13.61
22.27
22.68
15.18
4.41
-3.97
-6.52
-3.54
1.91
6.16
6.97
4.42
0.40
-2.73
-3.43
-1.75
0.83
2.18
0.65
-4.02
-10.58
-16.93
-21.30
-23.35
-24.43
-26.82
-32.18
-40.18
-47.93
-50.91
-44.99
-28.69
-4.36
22.41
45.01
58.63
62.14
58.22
51.51
46.02
43.15
41.48
38.30
31.80
22.51
13.25
7.45
7.22
12.08
19.18
24.40
24.17
16.66
2.56
-15.13
-31.93
-43.33
-46.26
-40.17
-27.29
-11.81
1.64
9.71
11.32
7.57
0.95
-5.98
-11.40
-14.65
-15.86
-15.57
-14.18
-11.76
-7.96
-2.07
6.75
18.93
33.78
49.23
62.06
69.00
68.07
59.37
45.08
28.50
12.91
0.75
-6.55
-8.54
-5.73
0.24
7.01
12.59
16.87
22.38
33.32
52.70
79.26
106.21
123.41
121.97
99.05
59.74
14.94
-23.78
-49.18
-60.41
-61.17
-55.65
-45.44
-29.58
-7.51
17.86
39.89
51.12
47.95
33.26
15.20
2.48
-0.85
2.05
2.71
-7.69
-32.86
-68.83
-105.86
-133.15
-144.35
-140.07
-126.71
-112.49
-102.71
-96.82
-88.71
-70.30
-36.52
10.43
60.57
99.72
115.63
103.73
69.23
24.63
-16.13
-43.47
-55.12
-55.07
-49.55
-42.72
-34.89
-23.71
-7.33
12.83
31.94
43.97
45.00
35.57
20.38
6.23
-1.29
-0.14
7.67
17.36
23.61
22.94
15.00
2.34
-10.86
-20.76
-25.16
-23.84
-17.76
-7.90
5.27
21.45
39.32
55.83
66.45
66.99
55.70
34.71
9.69
-12.31
-25.48
-27.33
-19.00
-3.82
14.38
32.24
46.59
53.82
50.18
33.77
7.10
-21.63
-40.54
-39.07
-13.45
30.54
79.49
118.28
136.89
134.14
116.82
95.03
76.75
64.85
57.68
52.05
46.13
40.54
37.25
37.65
41.22
45.52
47.80
46.64
42.87
39.43
39.96
46.96
60.56
78.26
95.91
109.38
116.03
115.35
108.72
98.27
85.88
72.47
57.94
41.71
22.98
0.64
-26.99
-62.01
-105.80
-157.38
-212.12
-262.08
-298.25
-313.92
-307.44
-282.89
-248.02
-210.76
-176.14
-145.51
-117.98
-92.78
-70.40
-51.88
-36.81
-22.29
-4.11
20.03
47.46
70.34
79.00
67.57
38.42
2.36
-26.30
-37.00
-28.41
-8.86
8.72
14.18
5.60
-10.38
-22.82
-22.77
-7.88
17.25
44.15
65.09
76.24
77.87
72.55
62.33
47.49
27.26
1.69
-27.22
-55.83
-80.94
-101.50
-118.67
-134.34
-148.63
-158.25
-157.02
-138.65
-100.44
-45.85
15.25
69.34
103.58
110.09
88.62
46.33
-4.69
-51.34
-83.13
-94.81
-86.82
-64.01
-33.04
0.23
31.91
59.84
82.08
95.50
96.20
81.54
52.91
17.17
-15.24
-34.83
-37.60
-26.86
-10.96
1.58
6.46
4.61
-0.23
-5.00
-8.70
-11.14
-10.35
-2.03
17.91
49.48
86.01
115.49
125.54
109.16
68.36
13.72
-39.73
-78.01
-93.00
-84.74
-60.63
-31.79
-8.16
5.54
11.12
14.52
21.05
31.24
39.75
38.41
21.65
-9.27
-45.79
-75.36
-87.21
-77.12
-49.33
-14.95
12.89
24.84
19.46
3.58
-11.75
-17.59
-12.11
-1.06
6.61
5.25
-3.61
-12.45
-13.30
-3.56
12.06
24.80
27.69
19.73
5.80
-7.33
-15.46
-18.80
-20.54
-23.37
-27.43
-30.56
-30.64
-27.68
-23.98
-21.99
-21.57
-18.72
-7.28
16.92
51.94
88.56
113.29
114.77
89.90
46.24
-1.21
-36.85
-51.44
-45.46
-27.46
-9.07
0.60
-1.44
-11.38
-20.62
-19.67
-2.57
29.72
68.50
100.20
112.04
98.02
61.86
15.14
-28.14
-57.58
-69.29
-65.05
-49.21
-26.30
-0.76
22.04
36.01
36.45
23.15
1.83
-18.09
-28.46
-26.99
-18.23
-10.49
-10.53
-19.49
-32.52
-41.75
-40.63
-27.17
-4.52
20.52
40.16
48.29
42.13
22.64
-6.22
-38.82
-69.49
-93.10
-105.30
-102.61
-83.53
-50.18
-9.23
29.53
57.03
69.28
69.19
64.38
61.95
63.87
66.08
61.95
47.45
24.46
-0.43
-20.25
-32.01
-37.98
-43.04
-50.31
-58.39
-62.31
-57.21
-42.21
-21.36
-1.15
13.42
21.84
27.76
36.00
48.35
61.45
67.28
57.18
26.64
-21.60
-78.08
-130.17
-166.91
-182.79
-178.31
-158.38
-128.43
-91.51
-48.22
0.97
52.65
99.22
130.78
139.66
124.16
90.76
53.53
28.40
26.97
51.32
93.49
137.91
171.78
187.38
182.26
158.15
119.65
74.05
30.68
-0.85
-13.71
-6.89
12.31
30.41
33.34
12.63
-30.16
-83.67
-131.37
-158.69
-159.08
-137.13
-106.18
-81.86
-74.95
-86.73
-109.22
-129.60
-136.51
-125.00
-97.93
-63.49
-30.71
-6.31
6.25
6.12
-5.59
-25.75
-49.20
-69.66
-81.99
-84.44
-79.09
-69.82
-59.11
-45.74
-25.77
4.03
42.55
83.43
117.73
138.04
141.71
131.43
113.14
93.25
76.67
66.05
61.32
59.54
55.49
43.77
22.24
-5.60
-30.82
-42.83
-34.82
-7.81
29.50
65.01
89.15
98.63
96.01
85.95
71.63
53.61
31.65
7.48
-14.61
-29.83
-36.20
-36.40
-36.32
-41.08
-50.99
-60.52
-61.33
-47.76
-21.29
9.31
32.42
40.26
33.45
20.83
13.87
19.60
35.75
51.78
55.27
39.71
8.61
-26.33
-50.88
-55.13
-36.93
-1.88
40.43
80.64
112.50
133.80
144.95
148.17
143.87
133.64
120.00
105.59
91.95
79.35
69.62
63.42
61.02
62.12
65.96
69.71
72.02
72.92
73.50
75.32
79.27
85.47
93.12
101.06
109.03
115.83
119.84
119.39
113.14
99.86
78.71
49.33
12.65
-29.19
-71.62
-108.79
-135.13
-146.76
-142.67
-124.97
-98.63
-70.72
-49.20
-41.15
-50.88
-78.46
-119.44
-166.68
-213.08
-253.81
-286.49
-309.50
-319.73
-312.72
-285.45
-240.48
-187.87
-142.49
-117.02
-114.93
-127.98
-140.32
-137.33
-113.90
-76.87
-40.38
-17.31
-11.77
-17.58
-23.07
-18.91
-3.98
14.26
24.74
19.99
1.18
-22.05
-36.85
-34.30
-14.17
15.17
42.00
57.94
62.28
61.46
63.89
73.84
88.61
100.38
101.52
89.72
69.60
49.75
37.48
34.64
37.46
40.03
38.71
34.46
31.48
33.68
41.48
51.29
57.84
57.61
50.86
40.91
31.25
22.95
14.24
2.75
-11.40
-24.49
-31.17
-28.26
-17.78
-6.24
-0.69
-3.76
-11.33
-14.63
-5.69
17.20
47.67
74.33
87.03
82.45
65.50
45.66
30.90
23.19
18.27
9.76
-5.35
-23.61
-36.57
-35.89
-18.75
10.29
41.69
66.46
80.47
85.21
84.78
81.94
76.16
65.04
47.43
25.59
4.29
-12.06
-22.12
-28.00
-32.99
-38.21
-41.43
-38.64
-27.29
-9.01
10.51
23.79
24.83
12.02
-11.03
-36.31
-53.91
-55.81
-39.52
-9.81
22.87
47.33
57.43
55.34
50.10
51.98
65.73
87.75
108.39
118.01
112.92
97.38
80.49
70.40
69.82
74.62
76.86
69.62
50.09
19.82
-17.21
-57.10
-96.67
-132.71
-161.27
-177.05
-175.40
-155.68
-123.71
-90.52
-67.67
-61.13
-68.11
-79.25
-83.47
-74.13
-52.07
-24.30
0.69
16.10
19.55
14.92
6.66
-2.45
-11.74
-19.53
-22.77
-18.27
-5.15
13.26
29.53
35.06
25.17
1.62
-28.80
-58.37
-81.68
-97.89
-107.39
-110.21
-105.75
-93.28
-72.93
-46.32
-16.52
13.91
43.82
73.38
102.30
127.91
145.25
148.92
136.47
110.02
76.22
42.48
13.48
-10.21
-30.56
-48.45
-61.51
-63.64
-48.28
-11.43
44.77
112.23
179.62
235.89
273.70
290.28
288.29
268.97
237.56
201.07
166.05
136.51
112.87
96.44
84.30
73.16
59.59
40.77
14.05
-22.59
-67.39
-115.14
-158.21
-189.60
-204.79
-203.58
-189.38
-168.16
-145.55
-124.33
-104.25
-82.98
-59.16
-34.17
-13.43
-4.32
-12.68
-39.03
-76.91
-115.84
-145.64
-161.49
-165.05
-162.63
-160.48
-161.21
-163.22
-160.29
-149.33
-132.38
-115.68
-105.50
-104.21
-108.80
-113.06
-111.81
-103.73
-91.91
-81.02
-75.89
-76.52
-79.35
-79.41
-72.75
-58.38
-38.33
-17.00
1.53
15.56
26.83
39.83
59.82
91.22
136.20
193.57
258.06
320.83
370.83
397.81
396.18
367.80
322.57
275.38
240.70
226.98
233.93
253.73
272.23
277.07
261.38
225.61
175.57
118.49
59.72
2.20
-52.20
-101.22
-141.37
-169.55
-184.59
-188.23
-184.69
-179.23
-176.07
-176.99
-181.36
-186.43
-189.24
-187.82
-182.19
-174.06
-165.91
-159.78
-156.32
-154.86
-153.58
-150.56
-144.49
-135.18
-123.34
-110.13
-97.10
-84.43
-71.63
-57.79
-42.23
-24.90
-6.47
11.76
28.28
41.73
51.32
56.73
58.12
56.04
51.20
44.22
35.66
25.88
15.07
3.38
-9.33
-23.30
-38.80
-56.01
-74.99
-95.54
-117.14
-139.06
-160.41
-180.31
-197.84
-212.13
-222.46
-228.39
-229.41
-224.88
-214.13
-196.46
-171.24
-138.05
-96.81
-47.99
7.02
66.40
128.14
190.06
249.89
305.38
354.30
394.39
423.41
439.23
439.06
421.73
387.92
340.20
282.43
218.95
153.88
92.12
36.66
-10.02
-45.00
-65.43
-69.69
-58.69
-36.47
-8.50
20.37
47.18
71.05
91.71
107.80
116.84
117.02
109.47
98.83
91.31
91.15
98.26
108.49
116.34
118.03
114.16
109.25
108.63
115.18
128.10
143.99
159.20
171.66
181.27
188.89
195.48
201.16
205.19
206.46
204.21
198.49
190.00
180.69
170.93
159.94
146.02
127.06
101.30
67.91
27.41
-18.39
-66.79
-115.19
-161.08
-202.40
-237.66
-265.80
-286.04
-297.86
-301.06
-294.38
-278.07
-253.45
-222.87
-189.31
-155.82
-124.92
-98.12
-75.76
-57.33
-42.24
-29.96
-20.36
-13.74
-10.58
-11.05
-14.69
-20.38
-26.68
-32.71
-38.27
-44.01
-51.22
-61.19
-74.79
-92.41
-114.15
-139.90
-169.10
-199.84
-228.58
-250.75
-262.40
-262.02
-251.50
-235.28
-218.11
-202.64
-188.19
-171.79
-150.53
-124.05
-95.22
-68.85
-49.08
-37.01
-30.33
-24.83
-16.92
-5.71
6.78
17.03
22.45
23.05
21.48
21.44
25.45
33.32
42.29
48.62
49.66
45.23
37.42
29.17
22.66
18.44
15.86
14.30
14.11
16.86
24.18
36.21
50.61
62.70
67.40
61.67
46.29
25.99
7.58
-3.23
-4.44
1.55
9.45
14.21
13.81
10.06
7.05
8.59
15.23
23.90
29.72
28.41
18.38
1.29
-19.05
-38.19
-51.97
-58.08
-56.47
-49.34
-41.00
-36.36
-39.13
-50.29
-67.62
-86.17
-100.89
-108.51
-105.86
-91.90
-66.70
-31.24
11.88
55.00
92.50
121.44
142.53
159.77
178.83
203.52
233.63
264.91
289.69
300.97
294.84
272.06
237.20
196.01
153.22
111.82
73.42
39.21
10.92
-10.17
-23.93
-31.68
-35.97
-39.76
-45.23
-53.27
-63.41
-74.04
-83.72
-91.88
-99.06
-106.77
-116.61
-129.64
-145.98
-164.93
-185.24
-206.00
-227.10
-249.29
-273.81
-301.47
-332.13
-364.62
-396.93
-426.70
-452.01
-471.58
-484.89
-492.34
-493.25
-486.01
-468.35
-438.15
-394.28
-337.28
-269.55
-194.57
-116.09
-36.75
42.11
120.35
198.62
277.92
359.30
443.29
528.93
611.82
684.67
738.17
763.82
757.28
720.61
661.79
591.97
521.38
456.22
398.27
346.18
298.09
253.35
212.55
176.45
144.84
116.24
88.70
61.08
33.62
7.79
-14.37
-31.49
-43.44
-51.40
-57.32
-63.12
-69.79
-77.21
-84.33
-89.80
-92.71
-92.90
-91.06
-88.36
-85.95
-84.43
-83.75
-83.32
-82.16
-79.80
-76.20
-71.72
-66.97
-62.51
-58.64
-55.39
-52.49
-49.62
-46.57
-43.28
-39.84
-36.43
-33.23
-30.36
-27.84
-25.61
-23.60
-21.77
-20.09
-18.55
-17.13
-15.85
-14.68
-13.62
-12.65
-11.76
-10.97
-10.26
-9.62
-9.04
-8.51
-8.02
-7.57
-7.16
-6.77
-6.42
-6.10
-5.81
-5.54
-5.29
-5.06
-4.83
-4.63
-4.43
-4.25
-4.09
-3.94
-3.79
-3.63
-3.47
-3.31
-3.19
-3.12
-3.12
-3.16
-3.19
-3.16
-3.03
-2.81
-2.56
-2.34
-2.23
-2.24
-2.35
-2.45
-2.47
-2.37
-2.13
-1.86
-1.65
-1.64
-1.84
-2.19
-2.53
-2.67
-2.48
-2.00
-1.40
-1.02
-1.11
-1.75
-2.78
-3.76
-4.23
-3.88
-2.78
-1.38
-0.40
-0.47
-1.76
-3.88
-5.99
-7.14
-6.73
-4.86
-2.40
-0.59
-0.54
-2.56
-5.97
-9.35
-11.14
-10.48
-7.64
-3.85
-0.70
0.50
-0.61
-3.71
-8.22
-13.37
-17.82
-19.19
-14.52
-1.87
17.83
39.89
57.14
63.14
55.42
36.92
14.64
-4.00
-14.72
-17.77
-16.75
-15.68
-16.53
-18.63
-19.88
-18.72
-15.37
-11.63
-9.60
-10.61
-14.50
-19.71
-24.11
-26.02
-24.89
-21.46
-17.68
-15.47
-16.08
-19.29
-23.46
-26.55
-27.32
-26.23
-25.13
-25.75
-27.70
-28.12
-22.50
-7.23
17.92
49.29
80.76
106.89
124.51
133.14
133.27
124.78
106.73
79.01
44.50
9.82
-16.72
-29.05
-26.44
-14.34
-1.72
3.33
-3.10
-18.77
-37.13
-50.57
-53.92
-46.48
-31.67
-14.67
0.29
11.33
18.52
22.32
21.65
14.27
-1.59
-25.25
-52.76
-77.79
-94.39
-99.01
-91.38
-73.77
-49.47
-21.75
5.95
29.97
46.85
53.81
51.11
41.42
28.31
14.59
1.34
-11.40
-23.44
-33.33
-38.51
-36.74
-27.66
-13.60
1.36
13.44
20.38
22.94
24.07
27.51
36.03
50.07
67.54
84.62
97.10
101.38
95.94
82.06
64.02
48.11
40.97
46.75
64.91
89.78
112.25
123.31
117.54
95.49
63.64
31.70
9.32
2.89
13.90
39.26
73.41
110.74
147.03
180.46
210.41
235.98
254.91
263.70
258.45
237.04
200.91
155.17
106.78
64.14
35.00
22.74
24.49
31.87
35.22
28.30
10.96
-11.56
-34.58
-54.54
-70.12
-82.37
-93.32
-103.47
-110.55
-111.07
-102.94
-92.63
-87.31
-91.02
-104.64
-127.56
-157.79
-191.66
-224.97
-253.84
-283.86
-317.38
-350.80
-378.81
-400.13
-417.67
-435.29
-454.92
-474.94
-501.59
-533.53
-561.12
-574.34
-571.12
-556.69
-538.11
-519.89
-438.24
-278.34
-79.41
103.36
241.81
334.67
391.61
424.50
443.45
455.54
452.22
429.37
391.46
347.30
303.18
262.17
226.09
195.93
181.32
174.08
164.01
146.28
122.18
95.62
71.39
54.27
47.15
49.77
52.59
49.15
39.63
28.63
20.31
16.44
16.70
19.54
23.47
23.97
19.32
11.66
4.45
-0.08
-1.66
-1.21
0.05
1.24
0.51
-2.44
-6.36
-9.61
-11.34
-11.78
-11.72
-11.94
-12.71
-14.25
-16.20
-17.85
-18.80
-18.88
-18.47
-18.33
-19.34
-22.31
-27.53
-33.94
-39.11
-39.80
-33.30
-18.85
1.55
23.79
43.38
56.77
62.36
60.17
51.09
36.48
18.14
-1.20
-18.32
-29.65
-33.30
-29.84
-22.16
-14.12
-8.81
-7.64
-10.25
-15.44
-21.79
-27.94
-32.39
-33.47
-29.73
-21.02
-8.91
3.77
13.79
19.02
19.05
15.13
9.27
3.21
-2.25
-7.17
-12.01
-17.10
-22.33
-27.40
-32.14
-36.66
-41.29
-46.42
-52.24
-58.70
-65.55
-72.24
-78.35
-83.68
-88.12
-91.50
-93.59
-93.94
-91.83
-86.57
-77.50
-64.01
-46.13
-24.32
0.45
27.02
54.11
80.52
104.43
125.20
142.40
155.71
165.10
170.77
173.18
172.93
171.27
168.44
165.02
161.37
157.59
153.55
149.01
143.57
136.83
128.89
118.93
106.66
91.98
74.87
55.57
34.46
12.14
-10.72
-33.75
-55.78
-75.94
-93.63
-108.57
-120.67
-130.08
-137.08
-142.06
-145.64
-148.19
-150.06
-151.42
-152.43
-153.04
-153.03
-152.03
-149.62
-145.24
-138.37
-128.72
-115.79
-99.52
-80.09
-58.07
-34.22
-9.55
14.86
37.94
57.98
74.45
87.04
95.75
100.80
102.65
101.87
99.08
94.90
90.32
85.44
80.43
75.45
70.63
66.04
61.71
57.64
53.75
49.95
46.21
42.55
39.02
35.71
32.70
30.04
27.70
25.57
23.51
21.40
19.23
17.15
15.37
14.13
13.55
13.54
13.84
14.06
13.87
13.24
12.41
11.88
12.20
13.62
16.02
18.86
21.43
23.07
23.69
23.70
23.98
25.41
28.52
33.08
38.28
43.03
46.44
48.26
48.94
49.41
50.66
53.52
58.47
65.63
74.43
83.06
88.45
86.84
75.28
53.21
23.53
-8.81
-37.98
-59.66
-72.59
-78.40
-80.21
-80.71
-81.13
-81.25
-80.36
-78.16
-75.13
-72.15
-69.74
-67.65
-64.97
-60.63
-54.02
-45.39
-35.72
-26.39
-18.50
-12.56
-8.30
-4.93
-1.53
2.53
7.40
12.58
17.39
21.28
24.03
25.78
27.03
28.28
29.99
32.43
35.21
37.93
40.26
41.94
42.95
43.47
43.89
44.79
46.86
49.99
54.06
58.75
63.46
67.59
70.71
72.77
74.18
75.80
77.60
79.61
81.46
82.33
81.07
76.55
67.64
52.98
37.11
21.66
7.53
-5.13
-16.68
-27.83
-39.53
-53.03
-69.64
-90.15
-114.53
-139.87
-160.81
-171.27
-167.09
-148.14
-118.84
-86.64
-58.99
-41.51
-35.90
-40.70
-53.07
-70.22
-89.83
-109.49
-125.97
-135.49
-135.58
-126.07
-109.86
-92.03
-77.74
-69.98
-68.46
-70.12
-70.87
-67.88
-60.40
-49.54
-37.06
-24.24
-11.38
1.98
16.25
31.29
46.17
59.58
70.47
78.56
84.86
91.51
100.98
114.72
132.05
150.06
164.80
173.23
174.76
171.34
166.11
161.29
156.97
151.54
143.49
133.11
122.99
116.75
116.89
123.45
134.04
145.16
153.87
158.42
158.16
152.77
141.90
125.49
104.49
80.90
57.33
35.91
17.39
1.10
-14.72
-32.16
-53.37
-80.19
-113.56
-152.67
-194.50
-234.27
-266.83
-288.62
-298.83
-299.00
-291.55
-278.06
-258.77
-233.42
-202.81
-169.67
-137.93
-111.05
-90.61
-76.20
-66.57
-60.72
-58.29
-58.79
-60.71
-61.87
-61.07
-59.93
-63.16
-76.49
-103.30
-142.07
-186.44
-227.88
-259.54
-279.01
-288.43
-292.15
-293.60
-293.51
-289.87
-279.65
-261.16
-234.80
-202.74
-167.58
-131.22
-94.25
-56.15
-15.92
26.77
70.54
111.61
144.31
162.89
163.94
148.80
124.15
99.97
85.11
83.23
91.19
101.12
105.02
98.76
83.88
65.59
49.33
37.72
31.19
30.47
38.47
58.80
92.31
134.02
173.73
200.39
206.86
194.06
170.39
148.29
138.16
144.17
163.81
190.42
217.07
238.48
253.68
265.35
279.27
299.77
326.25
352.60
369.69
369.67
348.19
307.16
251.85
189.66
124.53
55.90
-19.49
-103.77
-184.33
-241.96
-263.38
-253.04
-224.02
-190.45
-161.84
-142.57
-132.02
-125.74
-126.40
-127.35
-125.99
-120.63
-113.50
-108.38
-109.11
-118.17
-136.78
-168.04
-206.46
-252.39
-290.57
-307.97
-295.97
-254.26
-190.05
-114.78
-41.53
19.88
62.84
88.40
100.39
103.92
102.69
98.45
91.95
83.41
74.73
67.27
63.52
63.46
65.31
66.43
64.53
58.90
49.96
39.59
29.30
21.21
16.11
14.09
15.51
20.64
29.99
41.60
51.02
52.08
40.91
17.18
-15.60
-50.15
-78.23
-94.86
-100.38
-99.53
-99.04
-103.40
-114.80
-134.60
-161.17
-189.73
-213.98
-227.13
-223.36
-200.19
-158.32
-102.86
-43.64
11.43
59.52
102.15
144.29
192.47
240.59
280.73
315.70
341.04
343.93
318.61
267.06
199.53
131.93
80.32
57.43
67.86
105.44
159.62
218.38
269.49
303.08
313.55
300.12
268.15
226.48
175.13
120.86
73.60
40.38
22.90
18.61
22.80
31.31
40.25
46.72
48.59
45.26
36.55
22.39
2.58
-24.03
-58.95
-101.20
-147.63
-192.86
-231.95
-262.04
-282.21
-292.80
-295.29
-291.45
-283.46
-273.78
-264.01
-255.04
-247.22
-240.29
-233.42
-230.51
-229.14
-226.76
-221.62
-212.41
-198.27
-178.79
-153.85
-123.76
-84.46
-39.06
7.75
51.74
90.01
120.99
144.36
160.59
170.50
175.08
174.89
170.70
163.40
154.13
144.29
135.21
127.88
122.38
118.02
113.14
106.30
96.64
84.26
70.15
55.74
42.73
30.46
17.76
2.56
-16.66
-40.21
-67.13
-95.80
-124.28
-150.73
-173.18
-188.77
-194.60
-188.60
-171.16
-145.81
-118.07
-92.70
-71.05
-51.09
-27.28
4.36
42.98
82.54
115.00
134.62
140.77
137.56
130.69
124.43
119.59
114.49
107.25
97.54
86.97
77.99
72.30
70.08
70.06
70.07
68.26
63.95
57.81
51.39
46.38
43.80
43.63
44.91
46.23
46.47
45.28
43.11
40.93
39.77
40.22
42.29
45.44
48.80
51.64
53.55
55.21
55.95
55.53
53.67
49.96
43.87
35.10
23.64
9.87
-6.03
-22.50
-38.35
-52.65
-64.71
-74.14
-80.86
-85.01
-86.99
-87.26
-86.31
-84.65
-82.59
-80.30
-77.90
-75.51
-73.32
-71.55
-70.39
-69.86
-69.95
-70.42
-70.90
-71.09
-70.88
-70.36
-69.84
-69.42
-68.95
-67.96
-65.39
-60.12
-51.31
-38.75
-22.97
-5.27
12.97
30.61
47.09
62.16
76.38
90.10
103.00
114.67
122.91
126.20
123.96
116.91
107.08
96.84
88.51
83.79
83.61
87.84
95.17
102.87
106.33
102.38
89.21
68.20
43.78
21.55
5.66
-2.91
-6.75
-9.70
-14.76
-22.91
-33.17
-43.89
-54.24
-64.53
-76.17
-90.18
-106.50
-123.90
-140.57
-153.93
-160.90
-158.41
-144.39
-119.17
-86.11
-51.02
-20.21
1.82
14.05
18.67
19.28
18.88
18.44
17.33
14.76
10.88
7.00
4.88
5.53
8.49
12.15
14.58
14.41
11.62
7.33
3.13
0.43
-0.25
0.65
2.02
2.58
1.54
-1.10
-4.72
-8.38
-11.28
-13.09
-14.03
-14.69
-15.72
-17.57
-20.25
-23.51
-26.93
-30.18
-33.14
-35.87
-38.57
-41.38
-44.29
-46.99
-49.01
-49.77
-48.87
-45.94
-40.86
-33.80
-25.14
-15.40
-5.18
4.93
14.40
22.77
29.69
34.94
38.42
40.18
40.39
39.33
37.35
34.85
32.21
29.69
27.43
25.44
23.55
21.67
19.66
17.57
15.57
13.87
12.61
11.84
11.38
10.82
9.84
8.29
6.35
4.53
3.39
3.32
4.48
6.51
8.65
10.20
10.84
10.88
11.21
12.80
16.28
21.84
28.72
35.62
41.47
45.81
49.06
52.41
57.19
64.41
74.81
88.54
105.15
123.59
142.04
158.18
170.05
177.35
178.29
174.36
168.40
162.44
156.06
146.12
128.37
99.97
61.34
16.27
-29.78
-71.92
-107.27
-135.14
-156.39
-172.74
-185.65
-196.30
-200.61
-195.04
-177.76
-149.41
-112.95
-72.39
-32.03
5.27
38.26
67.03
91.58
111.27
125.65
133.56
133.77
124.92
107.29
82.79
54.58
25.25
-3.76
-32.60
-59.73
-84.59
-108.22
-131.23
-153.45
-174.22
-193.59
-212.74
-233.80
-259.48
-282.04
-295.91
-298.82
-293.19
-284.14
-275.81
-268.59
-258.41
-238.98
-204.93
-156.40
-98.78
-41.13
7.44
41.09
58.22
64.12
65.31
67.52
73.36
83.91
100.15
123.96
157.46
199.21
243.69
281.28
301.26
295.19
261.83
208.36
148.11
94.86
57.57
37.94
31.17
30.01
28.41
24.07
18.10
13.25
11.11
11.38
12.48
12.50
10.46
6.20
0.26
-7.59
-17.93
-31.14
-46.16
-59.71
-67.33
-65.18
-52.04
-31.78
-11.39
2.08
4.38
-4.51
-21.00
-40.31
-58.39
-73.01
-83.38
-89.30
-90.08
-85.10
-74.39
-58.71
-39.56
-18.21
4.38
27.31
50.31
73.06
94.60
113.49
128.21
137.75
142.06
141.99
139.11
135.53
133.43
134.38
138.46
143.56
145.47
139.18
121.13
91.36
54.38
17.66
-11.43
-28.62
-34.03
-31.40
-25.63
-20.37
-16.96
-14.80
-13.08
-11.76
-11.69
-13.90
-18.55
-24.81
-31.04
-35.60
-37.54
-37.08
-35.26
-33.36
-32.25
-31.98
-32.02
-31.33
-29.01
-24.63
-18.44
-11.11
-3.37
4.43
12.52
21.20
31.10
42.71
56.12
70.93
86.37
101.57
115.82
128.71
139.53
147.95
154.00
157.81
159.62
159.75
158.71
157.22
156.17
155.59
155.61
156.28
157.38
158.41
158.10
154.84
146.46
136.85
127.04
117.52
108.42
99.66
91.06
81.96
71.86
60.63
48.65
35.50
21.22
6.12
-9.21
-23.94
-37.99
-51.01
-62.11
-69.98
-74.40
-75.55
-74.04
-70.73
-66.49
-64.51
-66.97
-73.92
-83.52
-94.24
-105.14
-115.95
-126.60
-137.12
-152.47
-175.97
-207.08
-241.75
-276.33
-308.77
-338.36
-364.70
-387.18
-412.76
-445.46
-483.02
-517.63
-542.52
-554.29
-552.79
-539.83
-518.36
-502.38
-502.84
-522.34
-555.38
-596.17
-641.41
-689.71
-740.29
-727.83
-621.90
-440.41
-235.63
-53.02
86.91
183.87
246.34
284.53
308.27
316.67
311.84
296.12
285.22
288.90
307.50
335.13
363.92
387.83
396.82
383.61
350.82
308.45
264.68
224.03
189.93
164.76
150.47
142.02
133.59
122.58
110.24
97.79
86.55
80.29
82.98
97.33
120.85
146.64
169.75
188.08
200.95
209.22
217.82
232.34
257.20
293.15
338.77
392.40
451.49
510.99
546.37
537.38
477.41
379.78
269.67
170.51
95.58
46.29
15.43
-7.22
-25.29
-40.59
-52.51
-61.38
-69.62
-80.77
-98.44
-125.14
-162.19
-208.30
-259.88
-314.79
-372.75
-433.40
-493.67
-547.05
-585.21
-601.32
-591.48
-557.49
-506.08
-446.49
-387.03
-332.80
-285.52
-244.94
-210.41
-180.87
-155.23
-132.30
-110.81
-89.74
-68.77
-48.44
-29.95
-14.81
-3.69
3.69
8.41
11.87
15.29
19.31
23.72
27.76
30.43
31.18
30.11
28.00
25.98
24.97
25.35
26.75
28.20
28.64
27.42
24.60
20.94
17.57
15.51
15.31
16.88
19.66
23.13
27.30
32.73
40.29
50.77
64.40
80.66
98.41
116.31
133.63
150.61
168.29
187.90
210.03
234.37
259.92
285.72
311.43
337.37
364.12
391.07
415.86
434.95
445.23
445.47
436.91
422.49
405.40
388.55
372.70
356.70
338.57
316.84
290.83
259.83
222.29
176.58
124.53
70.71
23.16
-7.60
-11.12
18.50
78.76
157.60
237.61
305.03
351.13
374.13
377.96
369.65
355.84
340.08
322.25
301.46
281.64
266.29
256.67
250.69
244.50
234.65
219.45
199.16
152.13
74.60
-20.13
-108.09
-170.47
-202.20
-209.07
-197.75
-180.02
-162.62
-144.30
-123.73
-102.26
-84.72
-77.63
-84.70
-106.78
-142.54
-187.57
-233.05
-271.67
-299.68
-317.22
-326.51
-329.79
-328.97
-326.28
-322.16
-314.12
-300.30
-280.98
-258.76
-237.35
-219.87
-208.53
-205.90
-212.01
-224.22
-239.57
-256.72
-276.50
-300.79
-331.40
-369.69
-418.98
-480.03
-549.83
-621.53
-685.99
-733.19
-753.93
-742.57
-699.16
-633.00
-555.31
-475.46
-398.68
-327.06
-261.37
-202.16
-150.93
-89.39
-15.09
62.25
127.90
172.79
196.07
201.39
193.48
175.77
150.79
117.93
79.04
37.20
-1.26
-30.61
-48.18
-53.66
-48.71
-35.69
-19.21
-1.72
16.70
37.81
65.11
95.31
123.78
144.80
153.61
146.56
123.94
89.65
49.93
14.46
-9.10
-16.42
-7.86
13.59
43.80
79.53
118.48
158.86
204.52
258.27
319.38
382.75
441.74
491.32
529.48
556.40
573.33
589.72
613.98
649.19
691.93
736.24
778.10
816.64
853.22
841.29
755.32
600.18
409.99
224.46
68.21
-52.31
-141.78
-208.63
-251.30
-270.81
-266.69
-241.64
-203.47
-161.52
-122.53
-89.08
-60.06
-53.00
-68.57
-99.63
-136.84
-173.46
-206.38
-234.95
-259.92
-282.73
-305.18
-322.98
-331.48
-328.84
-317.28
-300.11
-279.85
-258.08
-235.73
-213.37
-187.53
-154.52
-112.48
-64.03
-14.08
32.85
74.05
108.23
134.15
151.19
157.08
148.42
123.24
83.84
37.26
-6.99
-40.82
-60.57
-67.15
-64.90
-58.95
-52.59
-46.58
-40.28
-33.27
-26.30
-20.89
-17.92
-17.08
-16.86
-15.17
-10.14
-1.23
10.79
24.06
36.44
46.30
52.94
56.48
57.46
56.43
53.44
48.00
39.30
26.77
10.80
-7.50
-26.34
-43.66
-57.68
-67.35
-72.64
-74.50
-74.31
-73.50
-73.11
-73.45
-74.07
-74.12
-72.92
-70.29
-66.84
-63.64
-61.84
-62.26
-64.87
-68.72
-72.39
-74.75
-75.27
-74.32
-72.88
-72.06
-72.88
-76.04
-81.98
-90.57
-100.57
-109.10
-112.50
-106.61
-89.58
-63.30
-33.06
-5.50
14.16
24.23
26.66
25.41
24.10
24.30
25.44
26.03
25.24
23.50
22.18
22.54
24.94
28.90
33.50
37.82
41.66
45.38
49.49
54.16
58.92
62.52
63.44
60.48
53.16
42.18
29.12
15.83
4.04
-5.07
-11.25
-14.95
-16.86
-17.80
-18.32
-18.63
-18.84
-19.01
-19.31
-20.14
-22.02
-25.18
-29.76
-35.56
-42.25
-49.57
-57.34
-65.45
-73.87
-82.58
-91.08
-99.05
-106.12
-112.23
-117.63
-122.76
-128.22
-134.45
-141.71
-149.38
-156.82
-162.95
-166.90
-168.23
-166.70
-161.98
-153.04
-142.42
-130.56
-117.55
-102.24
-84.04
-63.51
-42.12
-21.64
-3.15
13.13
28.36
43.65
62.29
85.97
113.93
143.25
170.62
194.18
214.07
232.61
252.06
278.10
313.39
356.19
400.87
440.74
471.26
490.95
501.64
505.96
512.44
527.25
551.92
582.79
613.34
636.86
647.79
642.89
588.50
470.70
299.83
108.22
-68.11
-206.52
-301.34
-358.24
-382.92
-386.07
-369.06
-332.97
-282.56
-227.33
-178.53
-144.31
-131.99
-140.95
-165.35
-191.64
-208.35
-210.69
-201.44
-187.70
-175.97
-169.27
-166.18
-164.04
-157.54
-144.19
-125.27
-104.80
-87.10
-74.72
-67.99
-65.21
-64.57
-63.07
-59.27
-53.84
-49.02
-46.98
-47.92
-49.68
-48.43
-41.21
-27.23
-8.95
8.88
21.33
25.18
19.97
7.83
-7.05
-19.70
-25.31
-20.56
-4.90
18.83
44.91
66.67
78.72
78.84
68.14
49.78
27.21
3.20
-20.24
-41.14
-57.18
-66.23
-67.21
-60.74
-49.04
-35.09
-21.57
-10.12
-1.28
4.93
8.38
8.91
6.74
3.20
0.64
1.53
7.03
15.82
24.27
28.23
25.19
15.66
2.49
-10.88
-22.61
-33.14
-44.31
-57.46
-71.90
-84.84
-92.94
-94.21
-89.06
-79.95
-70.03
-61.48
-54.69
-48.58
-41.71
-33.69
-25.93
-21.49
-23.90
-35.32
-54.75
-77.75
-97.51
-107.61
-104.65
-89.37
-66.16
-40.69
-17.67
0.64
14.03
23.19
28.33
29.06
25.30
18.24
10.67
6.16
7.50
15.34
28.00
42.25
54.78
63.59
68.39
70.32
71.11
72.13
73.89
76.00
77.37
76.57
72.55
64.73
53.45
39.90
25.61
12.20
0.81
-7.88
-13.74
-16.72
-16.77
-13.74
-7.67
0.89
10.84
20.59
28.73
34.40
37.63
38.83
38.35
35.98
30.99
22.87
11.86
-0.54
-12.09
-20.51
-24.57
-24.48
-21.61
-18.04
-15.44
-14.86
-16.41
-19.59
-23.60
-27.69
-31.35
-34.28
-36.47
-37.91
-38.45
-37.61
-34.75
-29.38
-21.54
-11.93
-1.60
8.43
17.68
26.22
34.33
41.91
48.13
51.62
51.05
45.98
37.12
26.13
14.92
4.95
-3.19
-9.59
-14.56
-18.21
-20.27
-20.35
-18.30
-14.39
-9.29
-3.77
1.58
6.54
11.08
15.13
18.34
20.03
19.47
16.22
10.41
2.90
-4.88
-11.44
-15.61
-17.09
-16.50
-15.08
-14.12
-14.39
-15.81
-17.63
-18.94
-19.08
-18.03
-16.34
-14.77
-13.86
-13.75
-14.07
-14.35
-14.18
-13.45
-12.34
-11.16
-10.09
-8.92
-7.27
-4.71
-1.18
2.81
6.32
8.30
8.17
6.12
3.06
0.14
-1.79
-2.58
-2.87
-3.52
-5.21
-7.84
-10.61
-12.42
-12.47
-10.75
-8.00
-5.29
-3.46
-2.65
-2.44
-2.20
-1.66
-1.16
-1.39
-2.89
-5.67
-9.02
-11.86
-13.28
-12.93
-11.09
-8.37
-5.28
-2.00
1.64
6.01
11.42
18.04
25.95
35.17
45.72
57.42
69.67
81.35
90.97
97.05
98.57
95.16
87.22
75.62
61.57
46.23
30.64
15.61
1.70
-10.78
-21.74
-31.15
-39.02
-45.17
-49.38
-51.52
-51.77
-50.58
-48.62
-46.48
-44.40
-42.11
-39.09
-34.91
-29.62
-23.91
-18.73
-14.86
-12.48
-11.13
-10.00
-8.52
-6.67
-4.98
-4.10
-4.36
-5.52
-6.83
-7.57
-7.46
-6.83
-6.47
-7.11
-8.99
-11.64
-14.11
-15.34
-14.69
-12.29
-8.88
-5.52
-3.00
-1.57
-0.87
-0.20
1.00
2.87
4.95
6.54
7.03
6.40
5.14
3.99
3.51
3.69
4.03
3.79
2.67
0.95
-0.47
-0.62
0.89
3.62
6.46
8.28
8.53
7.69
6.88
7.29
9.49
12.96
16.44
18.47
18.20
15.87
12.76
10.37
9.80
11.09
13.19
14.68
14.29
11.58
6.98
1.44
-4.18
-9.49
-14.54
-19.72
-25.58
-32.87
-42.46
-55.02
-70.46
-87.53
-103.63
-115.33
-119.52
-114.38
-100.08
-78.62
-53.12
-26.97
-3.19
16.07
29.61
37.27
39.89
39.09
36.88
34.94
34.23
34.75
35.94
37.13
37.84
38.00
37.68
36.90
35.39
32.79
28.82
23.66
17.87
12.22
7.30
3.23
-0.25
-3.49
-6.52
-8.85
-9.66
-8.25
-4.39
1.41
8.06
14.25
18.97
21.87
23.21
23.59
23.62
23.54
23.17
22.11
20.04
16.98
13.45
10.16
7.77
6.52
6.12
6.02
5.64
4.85
3.78
2.85
2.38
2.35
2.42
2.10
1.12
-0.30
-1.49
-1.78
-0.74
1.43
3.87
5.48
5.44
3.63
0.73
-2.17
-4.14
-4.83
-4.72
-4.71
-5.54
-7.42
-9.75
-11.55
-11.96
-10.72
-8.26
-5.48
-3.30
-2.08
-1.69
-1.57
-1.20
-0.49
0.30
0.70
0.38
-0.54
-1.45
-1.58
-0.46
1.77
4.34
6.18
6.52
5.19
2.73
0.13
-1.73
-2.45
-2.27
-1.91
-2.09
-3.11
-4.78
-6.51
-7.68
-8.03
-7.72
-7.25
-7.16
-7.73
-8.85
-10.17
-11.22
-11.78
-11.92
-11.77
-11.41
-10.71
-9.33
-6.91
-3.46
0.61
4.31
6.46
6.16
3.23
-1.63
-7.13
-11.80
-14.68
-15.63
-15.45
-15.51
-16.80
-19.53
-22.93
-25.70
-26.73
-25.68
-23.21
-20.81
-20.14
-22.04
-26.32
-31.77
-36.73
-39.85
-40.42
-38.51
-34.73
-29.84
-24.16
-17.68
-10.16
-1.20
9.68
23.36
41.19
64.64
92.25
120.39
143.51
156.50
156.98
146.20
128.11
107.59
88.67
73.40
61.55
50.89
38.52
22.18
1.77
-19.92
-37.56
-45.49
-40.38
-23.07
1.31
25.65
43.99
53.74
55.89
53.57
49.87
46.39
43.01
38.01
29.28
14.35
-8.55
-39.58
-76.40
-114.08
-146.19
-165.33
-168.43
-156.95
-135.61
-109.78
-83.53
-58.81
-36.34
-16.77
-1.33
8.27
11.52
9.64
5.37
1.73
1.02
3.79
8.96
14.53
18.25
19.04
17.17
14.02
11.32
10.40
11.60
14.35
17.50
19.77
20.55
19.96
18.82
18.19
18.97
21.52
25.66
30.79
36.02
40.65
44.11
46.07
46.32
44.69
40.98
35.06
26.97
16.95
5.71
-5.82
-16.45
-25.11
-30.88
-33.19
-31.92
-27.38
-20.27
-11.44
-1.97
7.13
14.85
20.45
23.44
23.66
21.26
16.73
10.84
4.37
-1.89
-7.25
-11.23
-13.71
-14.76
-14.60
-13.50
-11.67
-9.39
-6.75
-3.75
-0.32
3.43
7.24
10.87
14.32
17.59
20.68
23.63
26.44
29.04
31.08
31.96
31.18
28.92
25.58
21.78
18.44
16.40
16.30
18.19
21.41
25.16
29.46
34.22
39.23
44.36
49.02
55.78
64.88
74.78
83.47
89.85
92.52
89.83
80.75
64.44
40.37
14.84
-6.24
-19.28
-23.45
-21.24
-15.89
-8.73
0.08
10.97
24.17
38.98
48.30
54.51
59.97
65.46
71.80
79.16
87.09
94.40
98.64
96.78
86.29
71.64
53.75
33.60
12.40
-8.27
-26.61
-41.10
-50.31
-52.21
-45.87
-32.41
-13.34
9.25
32.82
54.78
72.58
84.37
89.67
88.66
81.32
68.71
52.50
34.77
17.81
3.77
-5.52
-8.62
-5.25
3.15
14.44
26.20
36.20
43.21
47.15
49.01
50.34
52.42
55.40
58.46
60.06
58.36
51.96
40.20
22.84
-0.14
-29.18
-65.38
-110.19
-164.84
-230.32
-306.97
-394.31
-490.20
-589.93
-685.86
-768.28
-828.04
-859.57
-863.40
-846.24
-818.59
-790.96
-770.45
-759.47
-756.41
-757.77
-759.74
-759.21
-753.46
-739.66
-714.89
-676.80
-624.59
-559.54
-484.75
-404.36
-322.37
-241.76
-164.17
-90.14
-19.75
46.61
107.88
162.36
208.24
244.19
269.75
285.63
293.27
294.48
290.90
283.74
273.70
261.16
246.56
230.55
214.22
198.82
185.58
175.44
168.89
165.90
166.00
168.41
172.14
176.20
179.61
181.50
181.21
178.27
172.49
163.96
153.04
140.28
126.39
112.11
98.13
85.07
73.41
63.54
55.69
49.90
46.14
44.22
43.81
44.52
45.91
47.51
48.88
49.70
49.69
48.77
47.01
44.51
41.52
38.30
35.12
32.24
29.86
28.08
27.01
26.67
27.08
28.17
29.85
31.98
34.43
37.05
39.69
42.29
44.79
47.19
49.50
51.68
53.68
55.45
56.90
57.94
58.55
58.73
58.52
57.98
57.12
55.96
54.47
52.68
50.63
48.48
46.43
44.74
43.62
43.14
43.21
43.60
44.01
44.24
44.26
44.34
44.83
46.11
48.28
51.11
54.09
56.61
58.31
59.27
60.13
61.80
65.12
70.39
77.18
84.49
91.15
96.38
100.26
103.82
108.52
115.71
125.79
137.97
150.58
161.75
170.22
175.84
179.68
183.56
189.65
200.10
216.72
240.35
269.95
301.96
330.63
349.76
355.08
346.55
328.75
309.04
294.62
289.49
293.30
302.36
311.95
318.54
320.77
319.01
313.94
305.71
293.81
277.77
257.76
234.93
211.01
187.84
166.66
147.77
130.60
114.23
97.71
80.63
63.38
47.07
33.25
23.26
17.58
15.51
15.35
15.00
12.84
8.44
2.54
-3.46
-8.23
-11.35
-13.38
-15.37
-18.31
-22.48
-27.35
-32.01
-35.73
-38.39
-40.57
-43.16
-46.72
-51.17
-55.69
-59.09
-60.45
-59.45
-56.54
-52.61
-48.58
-44.83
-41.21
-37.16
-32.18
-26.32
-20.32
-15.32
-12.37
-11.83
-13.09
-14.97
-16.19
-16.06
-14.81
-12.78
-10.63
-8.85
-7.57
-6.40
-4.88
-2.86
-0.84
0.18
0.03
-0.91
-1.73
-1.37
0.86
4.89
9.79
14.03
16.17
17.10
18.30
21.07
25.79
32.01
38.77
44.93
49.44
51.68
55.81
65.05
80.04
98.29
116.22
131.18
142.18
149.51
154.14
165.43
189.55
226.33
269.22
309.94
343.02
366.88
382.62
392.42
411.45
449.75
507.31
574.33
638.52
692.03
732.87
762.65
783.98
816.05
871.28
949.30
1037.59
1120.99
1190.60
1245.24
1288.31
1216.47
979.32
595.52
146.25
-279.79
-630.20
-891.59
-1072.90
-1191.24
-1264.64
-1291.78
-1273.82
-1219.62
-1146.24
-1071.21
-1005.45
-952.45
-911.26
-879.66
-843.24
-794.36
-735.89
-680.44
-641.17
-623.65
-624.17
-633.25
-640.70
-628.44
-589.24
-527.25
-454.58
-383.71
-322.01
-271.39
-231.11
-200.18
-174.13
-150.31
-127.58
-106.34
-87.23
-69.95
-53.93
-39.13
-26.21
-14.64
-4.44
4.55
12.44
19.60
26.63
34.09
41.89
49.47
56.09
60.80
63.43
64.27
63.74
62.07
59.24
54.81
48.19
39.16
27.67
14.27
0.09
-13.46
-25.07
-33.56
-38.09
-38.45
-34.68
-27.24
-16.74
-3.96
10.01
24.03
37.21
49.04
58.81
66.41
71.66
74.79
76.17
75.66
73.27
69.63
65.91
62.64
60.96
60.92
62.40
64.97
66.51
64.59
57.33
48.57
40.01
33.99
30.65
29.63
30.51
30.73
27.76
21.15
12.54
3.69
-1.63
-2.71
0.33
7.21
14.40
17.55
14.47
5.23
-9.79
-27.81
-49.76
-77.04
-90.37
-76.88
-36.13
21.73
84.14
126.23
151.09
163.40
165.60
157.24
143.67
124.45
99.81
71.57
42.08
15.80
-6.71
-25.56
-40.51
-53.11
-65.76
-78.67
-90.21
-98.24
-99.32
-93.51
-81.98
-66.14
-48.67
-32.89
-20.33
-10.89
-3.53
4.17
12.75
22.22
32.38
42.26
50.40
56.24
60.21
63.31
67.13
72.04
77.86
84.07
89.68
93.63
95.65
96.26
96.50
97.35
98.64
99.04
96.49
88.77
74.33
53.19
27.07
-1.16
-28.61
-53.38
-75.66
-96.95
-119.24
-144.37
-174.01
-209.61
-251.89
-300.13
-351.10
-399.13
-436.60
-455.88
-451.93
-424.28
-376.67
-314.57
-242.57
-162.82
-77.18
11.67
98.34
174.56
231.22
262.05
267.03
252.68
229.15
202.73
176.70
151.26
124.65
94.51
59.27
19.26
-23.44
-66.37
-114.03
-169.10
-229.68
-289.81
-343.03
-384.76
-412.79
-426.82
-428.44
-430.91
-444.23
-470.66
-505.79
-544.12
-583.04
-622.99
-665.55
-711.95
-774.15
-854.88
-943.29
-1019.66
-1066.77
-1077.92
-1057.36
-1015.76
-883.78
-641.94
-325.87
-5.09
264.54
462.78
594.98
676.35
723.31
749.07
749.85
723.59
676.01
619.24
564.94
520.15
486.83
466.55
459.27
453.89
442.18
424.30
406.95
397.58
400.18
412.14
429.86
449.82
463.78
465.99
455.94
435.24
404.05
361.08
307.35
249.90
199.86
168.16
155.33
157.87
168.13
176.48
175.01
160.85
136.83
103.57
66.87
29.41
-7.86
-44.22
-77.96
-106.46
-127.41
-139.42
-143.79
-142.84
-140.83
-140.63
-143.01
-146.79
-149.65
-149.74
-144.55
-133.17
-115.45
-92.92
-67.05
-38.72
-8.77
21.99
51.24
77.96
101.41
121.38
137.59
149.90
158.70
164.21
166.59
166.13
163.79
160.58
157.25
156.37
157.22
159.78
163.87
168.62
171.76
169.92
159.01
135.46
99.02
54.34
9.13
-29.27
-55.67
-68.99
-71.44
-67.09
-61.07
-56.37
-51.99
-46.80
-41.34
-36.07
-31.28
-26.10
-18.83
-9.81
0.53
13.96
28.85
39.84
44.29
39.60
24.99
1.28
-32.39
-75.56
-122.91
-171.44
-220.93
-269.05
-311.89
-344.52
-344.67
-301.36
-246.50
-196.53
-150.37
-112.66
-87.14
-76.56
-82.56
-105.30
-145.38
-188.37
-212.92
-205.30
-167.11
-109.85
-48.76
3.34
39.71
58.01
61.48
58.01
52.21
43.93
32.81
19.21
4.69
-8.11
-18.34
-25.80
-29.90
-31.92
-35.00
-39.16
-43.03
-44.78
-42.61
-36.65
-27.97
-17.66
-7.47
0.78
6.69
10.64
13.07
14.74
15.59
15.54
15.05
15.07
17.01
23.07
35.60
51.97
70.94
91.14
111.63
131.99
152.56
174.21
198.50
227.07
261.03
300.63
343.08
382.14
408.90
414.31
392.68
344.49
277.00
202.01
132.59
78.22
42.74
24.66
19.48
22.30
29.38
38.00
45.44
48.87
45.81
35.88
22.05
10.08
6.31
14.44
33.68
59.05
83.98
103.00
113.72
116.57
113.06
104.16
89.83
69.96
45.93
21.09
-0.39
-15.32
-23.11
-26.16
-28.38
-33.72
-45.11
-64.37
-92.64
-130.04
-174.23
-218.86
-253.87
-268.51
-256.39
-219.82
-170.57
-125.95
-102.04
-107.64
-142.05
-197.31
-262.47
-327.49
-384.46
-426.85
-448.69
-445.22
-414.75
-360.27
-289.33
-211.42
-134.84
-63.96
1.16
62.92
123.81
184.07
241.14
290.64
328.30
351.82
361.83
361.68
356.02
348.94
342.76
337.71
332.61
325.74
315.46
300.32
278.91
249.87
212.46
167.26
116.46
63.60
12.57
-33.80
-74.71
-111.51
-147.25
-185.48
-229.09
-278.84
-332.39
-384.26
-426.98
-453.36
-459.16
-444.74
-414.71
-375.72
-333.29
-289.62
-243.68
-193.35
-138.17
-81.26
-28.91
11.85
36.26
43.89
38.65
26.89
14.82
6.40
2.39
1.26
0.96
0.53
0.64
3.11
9.14
18.19
27.62
33.80
33.82
26.96
14.96
1.29
-9.81
-14.04
-7.64
11.84
44.22
85.42
127.34
159.42
171.59
157.49
116.40
53.36
-22.40
-99.72
-167.65
-217.10
-242.06
-240.48
-214.55
-169.99
-114.04
-53.27
7.72
66.25
120.14
166.40
201.17
221.14
225.17
215.28
195.83
171.60
146.06
120.82
96.33
73.29
53.55
39.72
33.97
36.72
46.13
58.85
71.13
80.18
84.70
84.96
82.19
77.59
71.58
63.42
51.51
34.20
11.01
-16.48
-44.58
-68.71
-84.96
-91.41
-88.53
-78.41
-63.61
-46.40
-28.88
-13.45
-2.99
-0.36
-7.09
-22.18
-41.67
-59.78
-70.91
-71.84
-62.85
-47.17
-29.23
-12.50
1.53
13.12
22.87
30.63
35.28
35.62
31.68
25.14
18.79
15.10
15.11
18.11
22.37
26.24
28.79
29.79
29.21
27.07
23.43
18.54
12.85
6.74
0.18
-7.18
-15.30
-23.34
-29.57
-32.11
-29.88
-23.28
-13.91
-3.79
5.53
13.35
19.84
25.19
29.20
31.12
30.13
25.94
19.02
10.44
1.68
-5.92
-11.76
-16.17
-20.24
-25.16
-31.58
-39.40
-47.98
-56.67
-64.82
-72.57
-80.76
-90.58
-102.69
-116.59
-130.68
-143.09
-152.38
-157.00
-156.96
-154.01
-151.27
-151.87
-157.74
-169.43
-186.59
-207.34
-225.83
-235.52
-231.41
-212.39
-181.30
-143.20
-103.44
-66.53
-33.45
1.79
45.90
102.14
167.47
234.66
296.66
349.32
391.12
424.89
460.33
506.23
567.02
640.47
720.88
803.01
883.18
956.68
981.60
925.31
781.43
580.16
368.35
183.19
40.59
-53.75
-118.65
-168.24
-204.57
-225.39
-229.86
-224.57
-220.28
-226.27
-246.95
-282.28
-325.68
-364.45
-387.19
-388.07
-371.39
-347.25
-326.36
-316.18
-321.06
-340.94
-371.92
-409.68
-437.69
-442.92
-417.72
-363.50
-289.46
-208.88
-133.59
-70.92
-23.26
11.74
36.66
54.08
64.86
68.74
65.38
56.31
45.23
36.92
35.61
41.55
52.68
65.09
74.71
80.30
83.28
86.64
93.63
106.81
126.41
152.00
181.76
213.42
244.33
271.28
290.40
297.99
292.45
271.20
240.43
209.39
187.00
175.11
172.08
174.50
178.74
182.46
184.62
185.51
184.48
179.83
171.05
158.36
142.72
124.70
104.52
81.76
55.70
24.60
-13.73
-60.69
-116.63
-180.08
-249.33
-321.32
-392.08
-456.87
-512.34
-557.77
-594.11
-623.09
-644.12
-654.89
-650.65
-625.99
-577.20
-504.54
-412.59
-308.37
-200.80
-98.46
-11.53
50.90
83.15
85.10
62.42
24.61
-17.41
-55.95
-72.21
-54.58
-3.08
70.12
148.76
220.97
276.36
317.35
344.37
356.20
349.55
322.46
276.39
215.69
146.01
75.60
13.19
-35.95
-70.47
-94.69
-114.81
-135.07
-155.48
-171.53
-176.11
-162.45
-128.74
-78.80
-22.67
27.33
61.82
77.56
78.09
70.85
62.99
57.72
55.20
54.04
52.76
53.17
57.53
66.05
76.07
83.15
83.54
76.86
66.71
58.29
54.29
54.47
56.39
57.79
58.72
61.64
69.56
83.23
99.50
111.75
113.37
101.48
78.55
50.65
24.37
3.66
-11.25
-22.56
-32.63
-42.26
-50.55
-55.84
-57.30
-55.60
-52.57
-50.63
-51.49
-55.52
-61.76
-68.47
-73.95
-77.37
-78.93
-79.54
-80.22
-81.48
-83.00
-83.64
-82.57
-78.30
-70.26
-58.91
-45.33
-31.02
-17.37
-5.49
3.83
10.09
12.89
11.70
6.05
-4.01
-18.04
-35.02
-53.52
-71.89
-88.55
-102.24
-112.26
-118.44
-120.60
-118.90
-113.72
-105.65
-95.49
-84.23
-73.04
-63.16
-55.65
-50.63
-47.75
-46.15
-44.74
-42.53
-38.88
-33.49
-26.22
-19.55
-14.24
-10.07
-5.96
-0.50
7.50
18.43
31.80
46.51
61.28
75.79
90.37
105.97
123.85
145.25
171.04
201.27
234.81
268.84
299.27
320.88
328.61
319.01
291.36
247.82
192.52
130.09
64.24
-2.60
-68.96
-133.15
-192.15
-241.45
-276.16
-292.75
-290.78
-273.50
-246.89
-217.86
-192.04
-172.29
-158.80
-149.90
-143.52
-138.11
-132.72
-126.60
-118.76
-107.86
-92.49
-71.93
-46.51
-17.69
12.33
41.41
68.34
93.22
117.41
142.60
169.55
197.16
222.36
241.01
249.46
245.94
231.13
207.85
180.13
152.10
127.38
108.75
98.00
95.71
100.86
110.42
119.64
123.11
116.59
98.73
71.82
41.16
13.34
-6.15
-14.58
-12.47
-2.79
10.60
24.42
36.65
46.34
53.09
56.62
56.95
54.73
51.54
49.63
51.30
57.97
69.57
84.44
99.73
112.21
118.94
117.73
107.36
87.95
61.16
30.37
0.29
-24.05
-38.57
-41.33
-32.93
-16.04
5.62
28.35
49.22
66.27
78.55
85.94
88.84
88.00
84.37
78.76
71.91
64.36
56.42
47.88
37.78
24.64
7.06
-15.19
-40.38
-64.60
-82.89
-91.02
-87.42
-74.08
-56.04
-39.58
-29.98
-29.75
-38.14
-51.99
-67.29
-80.75
-90.61
-96.51
-98.82
-98.19
-95.31
-91.12
-86.99
-84.46
-84.51
-86.97
-90.48
-93.09
-93.26
-90.42
-84.95
-77.46
-68.21
-57.01
-43.82
-29.22
-14.52
-1.19
9.95
19.12
27.24
35.07
42.65
49.36
54.67
58.98
63.82
70.98
81.26
93.43
104.31
109.73
106.17
92.10
68.35
37.73
3.81
-30.28
-62.75
-93.29
-122.88
-153.24
-186.14
-222.51
-261.46
-299.74
-331.94
-351.70
-353.64
-335.29
-298.14
-247.19
-189.45
-131.83
-79.61
-35.78
-1.24
24.54
43.17
56.95
68.60
80.71
94.94
111.27
127.90
141.79
149.57
148.83
139.17
122.53
102.84
84.96
72.90
68.50
70.87
76.94
83.14
87.15
88.78
89.35
90.14
91.16
91.11
88.71
84.06
78.99
75.76
75.05
74.94
71.68
62.17
46.32
27.58
11.38
2.41
2.29
9.25
19.45
28.91
34.90
36.16
32.55
24.63
13.80
2.05
-8.60
-16.88
-22.82
-27.68
-33.03
-39.87
-48.13
-56.97
-65.31
-72.32
-77.42
-80.11
-79.83
-76.15
-69.24
-60.16
-50.70
-42.75
-37.58
-35.25
-34.74
-34.45
-32.80
-28.90
-22.75
-15.24
-7.82
-1.95
1.47
2.49
2.00
1.33
1.59
3.20
5.85
8.78
11.25
12.82
13.37
12.75
10.70
6.86
1.16
-5.86
-12.96
-18.51
-21.00
-19.51
-13.91
-4.66
7.20
20.35
33.23
44.32
52.45
57.17
58.88
58.54
57.16
55.22
52.46
48.16
41.64
32.80
22.32
11.39
1.31
-7.03
-13.31
-17.81
-21.02
-23.37
-25.01
-25.78
-25.43
-23.83
-21.13
-17.73
-14.08
-10.56
-7.30
-4.28
-1.35
1.69
5.14
9.46
15.13
22.46
31.27
40.82
49.96
57.48
62.57
64.98
65.08
63.54
61.19
58.89
57.52
57.79
59.85
62.97
65.51
65.46
61.53
54.03
45.20
38.18
35.40
37.06
40.69
42.20
37.91
26.43
9.20
-10.44
-29.22
-45.51
-59.60
-72.59
-84.88
-95.37
-101.72
-101.59
-93.74
-78.24
-55.95
-28.03
4.24
38.87
72.88
102.55
124.24
135.56
135.89
126.23
108.50
84.78
57.10
27.40
-2.21
-29.68
-53.30
-71.99
-85.40
-93.68
-97.38
-97.25
-94.30
-89.51
-83.61
-76.75
-68.56
-58.69
-47.41
-35.98
-26.51
-21.25
-21.85
-28.84
-41.52
-58.20
-76.72
-94.83
-110.42
-121.76
-127.54
-126.99
-120.02
-107.27
-90.05
-70.20
-49.72
-30.42
-13.65
-0.28
9.31
15.08
17.25
16.32
13.07
8.57
4.02
0.53
-1.21
-1.05
0.52
2.63
4.25
4.74
4.10
3.01
2.53
3.45
5.81
8.76
11.01
11.52
10.12
7.68
5.71
5.47
7.43
10.92
14.57
16.77
16.25
12.17
4.10
-7.71
-21.77
-34.72
-41.24
-35.29
-12.35
28.17
81.73
139.61
191.60
229.31
248.38
248.78
233.37
205.78
169.16
126.19
79.68
33.16
-9.49
-45.13
-72.43
-92.03
-105.87
-116.00
-123.59
-128.82
-131.23
-130.48
-126.83
-121.10
-114.22
-106.58
-97.73
-86.26
-70.33
-48.39
-19.86
14.41
52.17
90.17
124.80
152.76
171.38
178.84
174.07
156.78
127.62
88.31
41.75
-8.11
-56.69
-99.49
-132.92
-155.11
-166.26
-168.58
-165.55
-160.93
-157.66
-157.13
-158.78
-160.38
-158.59
-149.70
-130.64
-99.73
-57.40
-6.41
48.36
100.83
145.05
176.66
193.91
197.79
191.44
178.88
163.78
148.59
134.29
120.75
107.39
93.58
78.91
63.21
46.62
29.70
13.53
-0.42
-10.63
-16.12
-16.82
-13.83
-8.93
-3.94
-0.14
2.12
3.14
3.51
3.57
3.28
2.19
-0.15
-4.06
-9.54
-16.22
-23.37
-29.92
-34.47
-35.71
-32.81
-25.89
-16.10
-5.31
4.50
12.03
16.94
19.86
21.73
23.39
25.14
26.82
28.08
28.66
28.58
27.99
27.07
25.87
24.40
22.79
21.40
20.76
21.35
23.30
26.19
29.15
31.11
31.30
29.57
26.41
22.67
19.06
15.81
12.61
8.84
4.00
-2.08
-9.20
-17.07
-25.45
-34.34
-43.78
-53.65
-63.59
-73.01
-81.28
-87.88
-92.50
-94.92
-95.03
-92.83
-88.41
-82.10
-74.36
-65.69
-56.60
-47.73
-39.88
-34.13
-31.65
-33.17
-38.42
-45.80
-52.59
-55.76
-53.10
-44.05
-29.99
-13.73
1.56
13.25
19.97
21.62
19.02
13.36
5.76
-3.00
-12.50
-22.49
-32.74
-42.84
-52.29
-60.66
-67.77
-73.68
-78.55
-82.31
-84.47
-84.19
-80.73
-73.83
-63.92
-51.89
-38.64
-24.70
-9.99
5.95
23.63
43.24
64.43
86.21
107.15
125.62
140.12
149.64
153.80
152.81
147.33
138.18
126.05
111.27
93.67
72.51
46.74
15.80
-19.41
-55.84
-88.46
-111.58
-120.81
-114.61
-95.02
-66.74
-35.34
-5.41
20.52
42.01
59.90
75.38
89.48
103.12
117.18
132.46
149.01
165.26
177.62
181.06
170.85
144.91
105.42
58.54
12.21
-27.03
-56.35
-76.75
-91.16
-101.62
-107.71
-106.84
-96.18
-74.68
-43.87
-6.90
32.95
73.29
112.38
148.19
177.56
196.83
203.38
197.21
181.26
160.52
139.87
122.26
107.97
95.07
80.78
62.81
40.06
12.62
-18.63
-52.47
-87.60
-122.66
-156.14
-186.37
-211.80
-231.27
-244.37
-251.37
-252.88
-249.22
-239.99
-224.08
-200.31
-168.60
-130.72
-90.37
-52.38
-21.09
0.87
13.32
18.25
18.94
18.83
20.70
26.24
35.89
48.97
63.77
77.99
89.27
95.94
97.50
94.90
90.13
85.62
83.37
84.34
88.19
93.40
97.69
98.63
94.36
84.01
67.90
47.43
24.43
0.70
-22.51
-44.54
-65.12
-84.01
-100.78
-114.75
-125.11
-131.16
-132.44
-128.88
-120.92
-109.41
-95.65
-81.20
-67.81
-57.02
-49.98
-47.09
-47.85
-51.01
-54.88
-58.19
-60.64
-63.15
-67.31
-74.40
-84.16
-94.63
-102.67
-105.29
-101.06
-90.78
-77.51
-65.57
-59.35
-61.84
-73.69
-92.78
-114.51
-132.81
-141.73
-137.13
-118.03
-86.89
-48.69
-9.39
25.87
54.03
74.26
87.57
95.81
101.10
105.69
111.79
121.53
136.17
155.27
175.93
193.10
201.16
195.96
176.69
146.31
110.49
75.63
46.75
26.32
14.24
8.72
7.39
8.35
10.39
12.98
15.89
18.76
20.82
21.15
18.97
14.08
7.15
-0.56
-7.65
-13.20
-17.03
-19.45
-20.87
-21.45
-21.12
-19.93
-18.33
-17.06
-16.63
-16.84
-16.79
-15.63
-13.66
-13.07
-17.60
-31.08
-55.62
-90.31
-131.25
-172.44
-207.34
-230.18
-237.02
-226.44
-199.80
-161.30
-117.37
-75.46
-42.25
-21.89
-14.89
-18.04
-25.48
-30.57
-27.80
-14.37
9.29
40.01
73.24
104.54
130.85
150.90
164.87
173.69
178.46
180.14
179.61
177.69
175.09
172.28
169.34
165.91
161.37
155.02
146.36
135.37
122.62
109.14
96.21
84.97
75.92
68.79
62.59
55.82
46.82
34.24
17.53
-2.76
-24.97
-46.83
-66.23
-82.03
-94.36
-104.20
-112.63
-119.97
-125.69
-128.91
-129.17
-126.93
-123.34
-119.62
-116.36
-113.46
-110.47
-107.10
-103.45
-99.71
-95.81
-91.28
-85.43
-77.66
-67.67
-55.34
-40.49
-22.97
-2.94
18.66
39.92
58.39
72.01
79.89
82.65
82.09
80.45
79.59
80.59
83.56
87.88
92.34
95.56
96.28
93.68
87.68
78.84
68.28
57.21
46.68
37.27
29.15
22.22
16.29
11.32
7.33
4.29
2.04
0.30
-1.19
-2.51
-3.42
-3.60
-2.98
-1.95
-1.35
-2.05
-4.39
-7.78
-10.86
-12.08
-10.48
-6.31
-0.94
3.72
6.14
5.90
3.84
1.49
0.10
-0.13
-0.25
-1.89
-6.33
-13.56
-22.29
-30.53
-36.59
-39.87
-40.94
-40.85
-40.40
-39.64
-37.96
-34.74
-29.90
-24.16
-18.66
-14.54
-12.34
-11.85
-12.33
-12.85
-12.77
-11.85
-10.26
-8.26
-6.06
-3.62
-0.71
2.90
7.35
12.52
18.05
23.42
28.12
31.70
33.83
34.25
32.89
29.95
26.06
22.13
19.15
17.75
17.88
18.78
19.35
18.64
16.46
13.48
10.98
10.31
12.34
17.25
24.59
33.57
43.25
52.73
61.03
67.36
71.42
73.65
75.30
77.96
82.75
89.56
97.02
103.15
106.37
106.27
103.61
99.71
95.65
91.59
86.67
79.37
68.10
52.06
31.61
8.54
-14.45
-34.57
-50.02
-60.74
-68.39
-75.57
-84.50
-95.91
-108.71
-120.53
-128.94
-132.37
-130.59
-124.46
-115.49
-105.12
-94.47
-84.23
-74.83
-66.66
-60.17
-55.80
-53.62
-53.17
-53.40
-53.01
-51.04
-47.33
-42.63
-38.25
-35.44
-34.83
-36.33
-39.34
-43.13
-47.14
-50.91
-53.94
-55.41
-54.31
-49.77
-41.43
-29.54
-14.93
1.25
17.55
32.41
44.32
52.23
56.14
57.32
58.14
61.40
69.24
82.62
101.07
122.99
146.32
168.96
189.11
205.53
217.88
226.84
233.87
240.54
247.36
253.15
254.97
249.01
232.01
202.59
161.59
111.75
56.72
0.01
-55.61
-108.28
-157.03
-201.52
-241.85
-278.34
-311.23
-340.59
-366.33
-388.14
-405.49
-417.40
-422.24
-417.81
-401.82
-372.54
-329.59
-274.31
-209.60
-139.43
-68.17
-0.01
61.39
113.18
153.66
182.54
200.78
210.32
213.23
211.23
205.40
196.39
184.87
171.81
158.48
146.10
135.52
127.01
120.30
114.80
109.77
104.43
97.97
89.67
78.90
65.38
49.25
31.11
11.91
-7.32
-25.67
-42.55
-57.55
-70.44
-80.94
-88.69
-93.19
-93.87
-90.17
-81.68
-68.30
-50.43
-29.06
-5.71
17.71
39.21
57.10
70.22
78.07
80.70
78.54
72.13
61.98
48.46
31.74
11.95
-10.64
-35.39
-61.27
-86.94
-111.09
-132.75
-151.38
-166.89
-179.43
-189.15
-196.00
-199.72
-199.91
-196.26
-188.60
-177.05
-161.93
-143.75
-123.01
-100.19
-75.65
-49.82
-23.29
3.07
28.31
51.53
72.05
89.39
103.03
112.25
116.25
114.47
107.04
95.06
80.44
65.49
52.26
42.01
35.21
31.71
31.14
33.15
37.43
43.61
51.14
59.28
67.27
74.46
80.38
84.67
86.98
86.92
84.22
78.86
71.25
62.21
52.73
43.63
35.38
28.04
21.38
15.13
9.14
3.45
-1.80
-6.44
-10.38
-13.59
-15.96
-17.30
-17.33
-15.79
-12.67
-8.31
-3.37
1.38
5.15
7.34
7.55
5.50
1.05
-5.59
-13.76
-22.35
-30.30
-36.97
-42.33
-46.47
-48.96
-48.63
-44.03
-34.56
-21.33
-7.15
4.72
12.23
15.72
17.70
21.41
29.13
41.23
56.44
72.92
89.29
104.91
119.34
131.71
140.57
144.22
141.46
132.33
118.18
101.43
84.86
70.78
60.41
53.61
48.96
44.43
38.13
29.04
17.31
4.10
-9.03
-20.84
-30.94
-39.87
-48.82
-58.83
-70.20
-82.17
-93.00
-100.70
-103.78
-101.87
-95.90
-87.79
-79.71
-73.42
-69.90
-69.30
-71.18
-74.83
-79.48
-84.39
-88.80
-91.93
-93.05
-91.66
-87.54
-80.91
-72.35
-62.75
-53.12
-44.39
-37.29
-32.23
-29.35
-28.43
-28.97
-30.15
-30.85
-29.76
-25.64
-17.58
-5.34
10.41
28.09
45.48
60.32
70.93
76.58
77.52
74.66
69.07
61.57
52.65
42.65
32.15
22.25
14.43
10.30
10.95
16.47
25.80
36.82
46.99
53.99
56.44
54.15
48.17
40.34
32.78
27.36
25.28
26.78
31.09
36.59
41.18
42.89
40.35
33.29
22.55
9.79
-2.97
-13.97
-22.08
-26.97
-28.99
-28.95
-27.83
-26.48
-25.57
-25.51
-26.52
-28.67
-31.90
-35.98
-40.60
-45.29
-49.48
-52.52
-53.76
-52.63
-48.80
-42.35
-33.81
-24.14
-14.50
-5.96
0.68
5.12
7.42
7.95
7.18
5.55
3.41
1.08
-1.23
-3.31
-4.99
-6.16
-6.73
-6.80
-6.54
-6.27
-6.33
-6.96
-8.30
-10.33
-12.88
-15.61
-17.96
-19.27
-18.83
-16.17
-11.21
-4.39
3.35
10.92
17.36
22.06
24.87
25.97
25.72
24.48
22.63
20.48
18.30
16.32
14.69
13.46
12.63
12.07
11.58
10.84
9.53
7.32
4.03
-0.33
-5.52
-11.09
-16.35
-20.55
-22.94
-22.97
-20.55
-16.09
-10.42
-4.51
0.78
4.94
7.83
9.52
10.13
9.72
8.35
6.19
3.59
0.95
-1.43
-3.44
-5.21
-7.00
-8.95
-11.04
-13.10
-15.02
-16.77
-18.55
-20.50
-22.53
-24.15
-24.54
-22.82
-18.44
-11.43
-2.47
7.32
16.79
24.97
31.29
35.54
37.70
37.91
36.41
33.57
29.84
25.75
21.76
18.16
15.08
12.42
10.00
7.62
5.12
2.46
-0.38
-3.37
-6.54
-9.89
-13.38
-16.71
-19.41
-20.81
-20.33
-17.67
-13.07
-7.23
-1.11
4.35
8.58
11.43
13.08
13.78
13.64
12.66
10.78
8.09
4.90
1.66
-1.18
-3.33
-4.80
-5.80
-6.59
-7.38
-8.29
-9.41
-10.90
-12.86
-15.36
-18.21
-20.94
-22.78
-22.96
-20.93
-16.59
-10.41
-3.23
3.98
10.41
15.52
19.09
21.09
21.61
20.81
18.95
16.40
13.63
11.08
9.06
7.66
6.73
5.91
4.81
3.13
0.71
-2.32
-5.72
-9.20
-12.54
-15.60
-18.28
-20.33
-21.25
-20.41
-17.28
-11.74
-4.26
4.11
12.11
18.64
23.09
25.45
26.05
25.41
23.89
21.67
18.90
15.75
12.52
9.62
7.41
5.98
5.18
4.61
3.83
2.52
0.60
-1.84
-4.60
-7.51
-10.36
-12.86
-14.48
-14.59
-12.60
-8.25
-1.84
5.71
13.19
19.35
23.42
25.19
24.95
23.21
20.39
16.76
12.42
7.58
2.64
-1.80
-5.15
-7.10
-7.78
-7.68
-7.38
-7.32
-7.61
-8.21
-9.04
-10.19
-11.78
-13.73
-15.65
-16.77
-16.27
-13.64
-8.96
-2.85
3.65
9.49
13.89
16.46
17.13
16.10
13.69
10.33
6.45
2.53
-1.00
-3.81
-5.73
-6.77
-7.14
-7.20
-7.33
-7.86
-8.97
-10.69
-12.94
-15.60
-18.45
-21.23
-23.56
-25.02
-25.19
-23.84
-20.97
-16.88
-12.12
-7.29
-2.99
0.36
2.52
3.46
3.28
2.18
0.43
-1.67
-3.79
-5.63
-6.96
-7.63
-7.65
-7.10
-6.08
-4.70
-3.05
-1.26
0.53
2.10
3.33
4.13
4.57
4.88
5.47
6.77
9.16
12.80
17.56
22.95
28.17
32.35
34.72
34.89
32.85
28.98
23.83
17.93
11.80
5.78
0.24
-4.55
-8.30
-10.89
-12.37
-13.01
-13.23
-13.45
-13.93
-14.69
-15.56
-16.29
-16.58
-16.17
-14.79
-12.18
-8.15
-2.65
4.07
11.42
18.54
24.56
28.80
30.96
31.18
29.91
27.71
25.13
22.58
20.28
18.37
16.81
15.57
14.56
13.67
12.78
11.68
10.14
7.92
4.89
1.04
-3.39
-8.05
-12.53
-16.52
-19.68
-21.74
-22.37
-21.31
-18.43
-13.91
-8.24
-2.08
3.96
9.52
14.56
19.21
23.67
28.00
32.12
35.77
38.64
40.43
40.84
39.71
37.02
32.96
27.85
22.06
15.77
9.02
1.72
-6.13
-14.26
-22.12
-29.12
-34.92
-39.78
-44.50
-50.21
-57.92
-68.10
-80.44
-93.93
-107.23
-119.11
-128.69
-135.68
-140.18
-142.66
-143.69
-143.74
-143.14
-141.88
-139.53
-135.33
-128.46
-118.33
-105.04
-89.49
-73.11
-57.32
-43.01
-30.28
-18.68
-7.74
2.61
11.97
19.78
25.75
30.17
33.74
37.18
40.82
44.39
47.28
48.94
49.26
48.71
48.11
48.30
49.80
52.58
56.15
59.69
62.36
63.51
62.84
60.43
56.58
51.79
46.55
41.32
36.51
32.49
29.55
27.88
27.49
28.19
29.62
31.33
32.85
33.90
34.37
34.26
33.66
32.71
31.53
30.21
28.78
27.07
24.89
22.03
18.46
14.43
10.50
7.24
5.17
4.53
5.34
7.50
10.91
15.49
21.08
27.41
33.98
40.22
45.51
49.22
50.76
49.61
45.54
38.84
30.34
21.28
12.87
5.96
0.75
-3.03
-5.82
-7.84
-9.01
-9.01
-7.62
-4.89
-1.10
3.30
8.06
13.08
18.34
23.74
28.96
33.56
37.23
39.97
42.13
44.25
46.69
49.32
51.55
52.58
51.90
49.76
47.18
45.65
46.56
50.62
57.51
66.20
75.31
83.73
90.88
96.68
101.30
104.93
107.80
110.25
112.85
116.18
120.66
126.20
132.21
137.81
142.28
145.46
147.81
150.23
153.49
157.81
162.60
166.54
167.99
165.53
158.34
146.40
130.32
110.95
89.11
65.42
40.26
13.96
-13.24
-41.20
-69.83
-98.83
-127.51
-154.70
-178.86
-198.56
-212.95
-222.04
-226.59
-227.70
-226.32
-222.98
-217.75
-210.39
-200.64
-188.37
-173.86
-157.90
-141.82
-127.30
-115.91
-108.62
-105.63
-106.44
-110.17
-115.77
-122.16
-128.27
-133.15
-136.26
-137.64
-137.95
-137.95
-137.83
-136.75
-133.15
-125.46
-113.00
-96.45
-77.55
-58.35
-40.46
-24.80
-11.71
-1.37
6.13
10.87
13.33
14.43
15.25
16.65
18.96
21.97
25.12
27.77
29.36
29.35
27.41
23.44
17.66
10.72
3.45
-3.44
-9.73
-15.86
-22.83
-31.74
-43.22
-56.95
-71.60
-85.16
-95.65
-101.68
-102.89
-99.86
-93.72
-85.66
-76.66
-67.44
-58.60
-50.70
-44.17
-39.12
-35.17
-31.42
-26.72
-20.08
-11.00
0.40
13.47
27.33
41.00
53.63
64.65
73.71
80.70
85.73
89.09
91.31
92.93
94.47
96.23
98.25
100.23
101.59
101.61
99.48
94.60
86.67
75.95
63.29
50.10
37.95
28.27
22.02
19.52
20.49
24.29
30.11
37.10
44.50
51.60
57.91
63.12
67.12
70.07
72.23
73.97
75.78
78.15
81.40
85.54
90.02
93.91
96.26
96.39
94.27
90.42
85.59
80.41
75.23
70.26
65.76
62.15
59.65
58.14
56.99
55.32
52.56
48.88
45.21
42.86
42.83
45.35
49.89
55.54
61.36
66.51
69.88
69.67
63.54
49.23
25.61
-6.39
-43.70
-81.98
-116.95
-145.73
-167.42
-182.91
-194.09
-202.93
-210.79
-217.96
-223.60
-225.83
-222.32
-211.19
-191.88
-165.88
-136.51
-108.02
-84.23
-67.35
-57.54
-53.25
-52.09
-51.70
-50.30
-46.68
-40.21
-30.74
-18.71
-5.12
8.52
20.53
29.51
34.76
36.33
34.98
31.68
27.30
22.41
17.25
11.92
6.62
1.75
-2.19
-4.74
-5.85
-6.02
-6.38
-8.38
-13.28
-21.69
-33.21
-46.58
-59.99
-71.71
-80.49
-85.78
-87.70
-87.09
-85.44
-84.89
-87.70
-95.41
-107.85
-122.81
-136.62
-145.64
-147.71
-142.81
-132.35
-117.90
-99.97
-78.01
-51.32
-20.47
12.32
43.94
71.81
95.08
114.46
131.12
145.28
155.64
160.07
157.00
146.56
130.78
112.77
95.36
79.93
65.98
51.56
33.93
10.59
-19.86
-56.63
-95.97
-131.30
-154.36
-157.83
-138.22
-97.93
-45.28
7.94
50.37
74.97
81.07
73.96
62.26
54.43
55.94
68.07
88.36
112.25
134.93
152.84
164.42
169.88
170.61
168.40
164.82
160.92
157.35
154.62
153.28
153.95
156.94
161.92
167.71
172.63
175.14
174.67
171.97
168.73
166.55
165.69
164.38
159.14
146.00
122.04
86.57
41.39
-9.59
-61.36
-108.80
-147.50
-174.39
-188.08
-189.37
-181.49
-169.88
-160.80
-159.16
-166.26
-178.73
-189.52
-190.74
-177.28
-149.37
-112.68
-75.93
-47.22
-31.07
-27.25
-32.12
-40.99
-50.34
-58.52
-65.26
-70.53
-73.81
-74.05
-70.36
-62.90
-53.17
-43.87
-37.96
-37.47
-42.68
-52.00
-62.46
-70.82
-74.65
-73.16
-67.32
-59.28
-51.48
-45.66
-42.46
-41.49
-41.80
-42.50
-42.90
-42.38
-40.01
-34.51
-24.66
-10.13
7.86
26.66
42.98
54.25
59.61
60.22
58.49
56.99
57.39
60.03
64.07
68.05
70.58
70.67
67.89
62.20
53.73
42.72
29.41
14.20
-2.29
-19.05
-34.75
-47.99
-57.61
-63.08
-64.59
-62.94
-59.16
-54.20
-48.74
-43.26
-38.15
-33.74
-30.23
-27.53
-25.21
-22.69
-19.48
-15.53
-11.14
-6.76
-2.53
1.88
7.24
14.29
23.16
33.21
43.14
51.49
57.26
60.15
60.58
59.23
56.64
52.91
47.69
40.51
31.16
20.01
7.84
-4.31
-15.69
-26.03
-35.62
-45.10
-54.87
-64.74
-73.72
-80.26
-82.66
-79.79
-71.44
-58.48
-42.62
-25.89
-10.15
3.32
13.87
21.55
26.69
29.74
31.02
30.67
28.79
25.53
21.28
16.49
11.69
7.12
2.73
-1.74
-6.66
-12.29
-18.75
-25.95
-33.54
-40.92
-47.23
-51.42
-52.47
-49.67
-42.84
-32.43
-19.44
-5.14
9.19
22.32
33.23
41.07
45.23
45.49
42.04
35.56
27.09
17.86
9.00
1.31
-4.82
-9.43
-12.78
-15.22
-17.14
-18.96
-21.23
-24.53
-29.12
-34.68
-40.19
-44.10
-44.90
-41.74
-34.83
-25.40
-15.30
-6.35
0.14
3.44
3.35
0.00
-6.28
-14.94
-25.13
-35.79
-45.58
-53.23
-57.75
-58.75
-56.56
-52.15
-46.93
-42.36
-39.73
-39.83
-42.75
-47.76
-53.40
-57.75
-58.86
-55.33
-46.84
-34.26
-19.37
-4.15
9.77
21.54
30.91
37.75
41.80
42.62
39.88
33.89
25.90
17.91
12.18
10.35
12.89
18.91
26.53
33.44
37.69
37.99
34.11
26.82
17.99
10.41
7.12
10.34
20.31
34.60
48.79
58.07
59.41
52.87
41.53
30.02
22.37
20.33
23.06
28.01
32.36
34.27
33.29
30.21
26.43
23.60
23.39
27.38
36.67
51.46
70.63
91.45
110.26
123.72
130.37
131.48
130.59
131.79
137.71
147.98
159.46
167.68
168.94
161.66
146.63
126.03
102.25
77.05
51.47
26.12
1.53
-21.71
-43.14
-62.43
-79.15
-92.45
-100.98
-103.36
-99.10
-89.29
-76.82
-65.58
-59.05
-58.92
-64.47
-73.11
-81.52
-87.07
-88.59
-86.39
-81.55
-75.20
-68.13
-60.98
-54.51
-49.76
-47.85
-49.44
-54.36
-61.46
-68.87
-74.56
-76.96
-75.41
-70.34
-63.07
-55.40
-49.07
-45.22
-43.99
-44.43
-44.68
-42.43
-35.46
-22.16
-2.00
24.15
53.99
83.98
109.96
128.10
135.78
132.39
119.51
100.55
79.91
61.86
49.72
45.06
47.48
54.68
62.98
68.43
67.89
60.14
46.21
29.13
12.82
0.97
-3.88
-0.78
9.69
25.92
45.69
66.65
86.75
104.55
119.56
132.06
142.54
150.56
154.19
150.38
136.30
111.21
77.63
41.18
8.62
-14.63
-26.65
-29.24
-26.63
-22.98
-20.57
-19.19
-17.07
-12.34
-4.28
6.55
18.98
31.95
45.14
58.85
73.41
88.63
103.52
116.48
125.86
130.60
130.54
126.44
119.69
111.61
103.06
94.07
84.07
72.26
57.98
41.08
21.77
0.43
-22.69
-47.39
-73.27
-99.31
-123.74
-144.16
-158.25
-164.44
-162.47
-153.55
-139.90
-124.06
-108.30
-94.22
-82.71
-74.26
-69.08
-67.19
-68.25
-71.44
-75.59
-79.40
-81.90
-82.73
-82.24
-81.29
-80.88
-81.87
-84.67
-89.18
-94.66
-99.78
-102.81
-102.01
-96.14
-84.99
-69.39
-51.07
-32.06
-14.05
1.87
15.24
25.82
33.31
37.31
37.61
34.59
29.31
23.37
18.34
15.18
13.93
13.77
13.33
11.29
6.67
-0.93
-11.40
-24.03
-37.60
-50.40
-60.38
-65.59
-64.83
-58.07
-46.68
-32.99
-19.69
-8.97
-2.05
0.75
-0.31
-4.92
-12.93
-24.22
-38.29
-54.09
-70.04
-84.66
-97.09
-107.44
-116.39
-124.53
-131.53
-135.93
-135.60
-128.64
-114.24
-92.96
-66.40
-36.60
-5.36
25.96
56.35
85.03
111.41
135.27
156.97
177.25
196.86
216.02
234.04
249.30
259.62
263.13
258.97
247.88
232.01
213.95
195.38
175.90
153.19
124.52
89.24
50.60
15.70
-6.76
-10.14
7.23
41.06
82.81
122.99
154.21
172.62
177.49
170.05
152.38
127.35
98.80
71.41
49.64
36.19
30.61
29.41
27.48
20.10
5.00
-17.15
-43.29
-69.51
-92.55
-110.70
-123.78
-132.51
-137.93
-141.04
-142.76
-144.06
-145.92
-149.14
-153.83
-159.18
-163.45
-164.67
-161.30
-153.02
-140.92
-126.99
-113.39
-101.48
-91.42
-82.32
-72.98
-62.60
-51.28
-39.98
-29.92
-22.04
-16.54
-12.93
-10.38
-8.25
-6.23
-4.41
-2.98
-2.16
-2.10
-3.00
-5.14
-8.74
-13.73
-19.53
-25.10
-29.23
-30.90
-29.61
-25.59
-19.58
-12.68
-6.09
-0.85
2.22
2.61
0.07
-5.39
-13.63
-24.42
-37.67
-53.38
-71.46
-91.59
-112.99
-134.35
-154.04
-170.49
-182.64
-190.25
-193.77
-193.82
-190.60
-183.49
-171.11
-151.86
-124.69
-89.81
-48.79
-4.28
40.79
83.95
123.77
159.91
192.73
222.69
249.69
272.96
291.27
303.41
308.69
307.10
299.20
285.85
267.91
246.18
221.43
194.53
166.52
138.68
112.47
89.33
70.30
55.72
45.08
37.18
30.66
24.56
18.71
13.51
9.50
6.74
4.58
1.85
-2.65
-9.64
-19.03
-29.89
-40.68
-49.72
-55.51
-57.26
-55.07
-49.95
-43.40
-36.98
-31.85
-28.58
-27.35
-28.26
-31.47
-37.02
-44.58
-53.21
-61.47
-67.86
-71.49
-72.43
-71.84
-71.35
-72.42
-75.65
-80.51
-85.53
-88.85
-88.87
-84.76
-76.58
-65.22
-52.00
-38.20
-24.67
-11.53
1.76
16.13
32.31
50.32
69.23
87.37
103.06
115.19
123.57
128.56
130.86
131.04
129.66
127.52
125.62
124.83
125.26
125.95
125.10
120.97
112.85
101.35
88.09
74.81
62.43
50.91
39.64
28.05
16.06
3.99
-7.92
-19.75
-31.85
-44.47
-57.20
-68.71
-76.95
-79.87
-76.12
-65.73
-50.05
-31.45
-12.59
4.16
17.22
25.88
30.17
30.64
27.98
22.77
15.37
5.98
-5.10
-17.19
-29.20
-39.82
-48.02
-53.36
-56.20
-57.50
-58.32
-59.50
-61.46
-64.44
-68.72
-74.73
-82.91
-93.24
-104.89
-116.10
-124.40
-127.41
-123.64
-113.07
-97.12
-78.15
-58.60
-40.26
-23.96
-9.77
2.60
13.39
22.67
30.44
36.82
42.12
46.70
50.73
54.00
56.06
56.41
54.80
51.27
46.11
39.72
32.44
24.56
16.29
7.85
-0.60
-8.76
-16.23
-22.35
-26.31
-27.28
-24.81
-19.04
-10.82
-1.54
7.38
14.87
20.56
24.68
27.67
29.82
31.04
30.98
29.42
26.66
23.71
22.01
22.86
26.81
33.47
41.67
50.02
57.46
63.62
68.66
72.96
76.87
80.15
81.94
80.97
75.94
65.99
51.38
33.60
15.11
-1.28
-13.18
-19.02
-18.30
-11.68
-1.05
10.59
19.46
22.05
16.30
2.56
-16.44
-36.63
-54.24
-67.23
-75.71
-81.35
-86.14
-91.33
-97.15
-103.09
-108.59
-113.48
-117.82
-121.64
-124.70
-126.33
-125.57
-121.63
-114.09
-103.13
-89.40
-73.82
-57.38
-41.10
-25.94
-12.77
-2.35
4.77
8.20
7.71
3.28
-4.81
-15.74
-28.02
-39.59
-48.19
-51.85
-49.49
-41.05
-27.51
-10.45
8.45
27.91
47.31
66.64
86.14
105.82
125.17
143.09
158.26
169.73
177.22
181.11
182.05
180.37
175.82
167.65
155.00
137.40
115.11
89.00
60.34
30.55
0.96
-27.08
-52.18
-73.01
-88.61
-98.78
-104.24
-106.42
-106.95
-107.11
-107.35
-107.39
-106.50
-103.79
-98.49
-89.99
-77.93
-62.32
-43.88
-24.08
-4.97
11.35
23.46
30.99
34.62
35.63
35.20
34.14
32.74
31.01
28.91
26.53
24.05
21.69
19.63
18.08
17.20
17.09
17.72
18.75
19.53
19.28
17.36
13.60
8.45
2.78
-2.57
-7.09
-10.94
-14.74
-19.07
-24.01
-28.84
-32.30
-33.11
-30.70
-25.40
-18.31
-10.84
-4.11
1.25
5.10
7.50
8.56
8.40
7.35
6.16
5.91
7.72
12.23
19.24
27.66
35.80
41.94
44.79
43.80
39.15
31.47
21.45
9.62
-3.67
-17.97
-32.45
-45.72
-56.10
-62.21
-63.53
-60.85
-56.04
-51.36
-48.60
-48.48
-50.54
-53.60
-56.43
-58.34
-59.32
-59.86
-60.54
-61.64
-62.97
-64.00
-64.07
-62.81
-60.28
-57.09
-54.17
-52.53
-53.00
-56.08
-61.67
-69.08
-76.95
-83.43
-86.54
-84.77
-77.62
-65.81
-51.23
-36.40
-23.69
-14.69
-9.80
-8.19
-8.21
-8.06
-6.42
-2.87
2.11
7.64
13.15
18.93
26.16
36.35
50.33
67.60
86.19
103.10
115.36
120.76
118.51
109.30
95.31
79.73
66.27
58.24
57.65
64.39
75.82
87.32
93.67
90.86
77.70
56.73
33.60
15.24
7.21
11.13
23.69
37.97
46.47
44.33
31.41
12.15
-6.58
-18.05
-18.48
-7.99
10.45
32.66
54.56
72.99
85.99
92.65
93.66
90.24
83.54
74.81
64.98
54.45
43.01
29.98
14.22
-5.10
-29.67
-61.94
-103.31
-153.35
-209.47
-267.32
-322.04
-369.74
-407.95
-431.04
-435.32
-418.12
-378.70
-319.36
-245.12
-162.60
-83.92
-13.63
44.51
85.29
103.90
97.87
68.81
23.90
-25.90
-67.60
-88.71
-82.34
-49.85
-0.58
50.23
85.89
93.91
70.45
21.97
-36.67
-89.01
-122.73
-132.65
-120.94
-94.09
-58.74
-18.94
23.85
68.84
112.13
146.52
164.07
160.09
136.15
100.22
63.58
36.23
23.03
22.21
27.19
30.71
28.50
20.97
12.36
8.05
11.53
22.63
37.41
50.03
55.25
50.53
36.82
17.61
-2.73
-20.61
-34.05
-42.62
-46.70
-46.81
-43.37
-36.84
-28.10
-18.44
-9.36
-2.00
3.32
7.26
11.19
16.52
24.14
33.88
44.63
54.63
62.20
66.22
66.51
63.74
59.12
53.97
49.42
46.15
44.48
44.43
45.85
48.53
52.29
56.95
62.24
67.65
72.52
75.99
77.33
76.27
73.27
69.62
67.23
68.10
73.70
84.39
99.10
115.38
129.87
138.98
139.71
130.38
110.96
82.87
48.52
10.51
-29.00
-68.35
-105.95
-139.70
-166.69
-183.70
-188.23
-179.68
-159.87
-132.64
-102.75
-74.44
-50.59
-32.44
-19.89
-12.03
-7.50
-4.74
-2.21
1.31
6.42
12.85
19.66
25.63
29.75
31.49
30.97
28.87
26.21
24.17
23.77
25.80
30.64
38.21
48.07
59.35
70.90
81.41
89.63
94.71
96.46
95.38
92.27
87.84
82.28
75.39
66.87
56.79
45.79
34.93
25.26
17.28
10.84
5.19
-0.59
-7.26
-15.22
-24.51
-34.88
-45.97
-57.43
-69.04
-80.84
-93.08
-106.20
-120.50
-135.89
-151.68
-166.58
-178.88
-186.81
-188.93
-184.56
-173.84
-157.85
-138.20
-116.62
-94.42
-72.10
-49.51
-26.17
-1.91
22.77
46.59
68.09
86.12
100.30
111.08
119.25
125.49
130.02
133.11
135.43
138.17
142.45
148.37
154.41
157.88
156.17
148.11
134.68
118.47
102.26
87.74
75.05
63.37
51.99
41.09
31.66
24.77
20.83
19.17
18.53
17.70
16.01
13.38
10.25
7.21
4.78
3.28
2.72
2.97
3.79
5.04
6.73
9.06
12.24
16.37
21.31
26.65
31.88
36.46
40.09
42.70
44.43
45.52
46.26
47.01
48.25
50.58
54.52
60.37
67.97
76.68
85.56
93.61
100.12
104.72
107.32
107.66
105.15
98.73
87.26
70.09
47.51
21.04
-6.92
-33.54
-56.31
-73.41
-83.92
-87.76
-85.47
-78.03
-66.76
-53.38
-39.98
-28.76
-21.53
-19.04
-20.50
-23.69
-25.75
-24.31
-18.54
-9.44
0.78
9.84
16.45
20.59
23.15
25.00
26.52
27.48
27.56
26.79
25.67
24.94
25.09
26.13
27.58
28.99
30.15
31.22
32.44
33.64
34.13
32.66
27.91
19.20
6.96
-7.15
-20.63
-30.96
-36.34
-36.01
-30.47
-21.16
-9.89
1.71
12.36
21.17
27.50
30.93
31.66
30.19
27.28
23.74
20.26
17.29
15.07
13.79
13.56
14.79
17.53
21.22
24.52
25.51
22.31
13.71
-0.23
-20.37
-44.98
-70.22
-91.29
-104.22
-107.46
-101.98
-90.20
-74.56
-56.58
-36.90
-15.82
5.99
27.12
45.80
60.58
70.96
77.57
82.58
87.44
92.87
98.36
102.08
101.43
94.25
79.76
59.07
34.96
10.14
-13.11
-34.13
-54.26
-76.08
-102.48
-135.85
-177.88
-225.14
-274.54
-321.93
-362.18
-390.02
-401.69
-397.00
-380.39
-360.20
-345.39
-342.20
-350.37
-363.26
-370.97
-365.13
-342.44
-305.61
-261.26
-216.50
-176.67
-143.89
-118.10
-98.56
-84.99
-77.41
-75.22
-76.33
-77.31
-74.68
-65.90
-50.36
-29.44
-5.66
18.49
41.56
63.48
85.17
107.67
131.55
156.50
181.42
204.90
225.85
244.12
261.06
279.39
302.20
331.01
364.14
395.92
417.88
421.85
403.16
362.39
304.94
238.85
172.41
112.85
66.26
37.87
31.70
49.16
87.68
140.50
198.16
251.02
291.71
316.24
323.86
316.30
296.99
270.40
241.41
214.52
192.81
177.49
168.06
163.27
162.10
163.85
168.03
173.63
178.94
181.88
180.60
174.09
162.39
146.36
127.24
106.14
83.71
59.98
34.74
7.81
-20.54
-49.48
-77.73
-104.27
-128.52
-150.86
-172.52
-195.27
-221.08
-251.88
-289.31
-334.12
-385.40
-439.80
-491.59
-533.74
-559.69
-565.16
-549.19
-514.20
-465.18
-408.47
-350.48
-296.62
-250.57
-213.75
-185.45
-163.36
-144.32
-125.15
-103.10
-76.18
-43.56
-6.08
33.41
70.21
99.18
116.60
121.88
118.11
110.94
106.31
108.18
117.27
131.30
146.38
158.86
166.64
169.49
168.39
164.24
156.94
145.31
127.97
104.84
77.90
51.05
28.70
13.95
7.36
7.02
9.72
12.64
14.53
15.95
18.44
23.25
30.32
38.10
44.12
46.16
43.13
35.47
24.59
11.96
-1.58
-15.72
-29.91
-42.57
-51.14
-53.12
-47.73
-36.94
-25.09
-17.19
-16.69
-24.05
-36.90
-51.40
-64.11
-73.20
-78.59
-81.23
-82.28
-82.63
-82.85
-83.39
-84.60
-86.56
-88.93
-91.00
-91.98
-91.38
-89.34
-86.77
-85.12
-85.96
-90.40
-98.56
-109.43
-121.09
-131.45
-139.03
-143.64
-146.54
-149.94
-155.91
-165.23
-176.72
-187.31
-192.92
-189.81
-175.80
-150.66
-116.03
-74.52
-28.72
19.45
69.09
120.31
173.99
231.10
291.35
352.00
407.03
448.02
466.62
457.96
423.07
368.92
306.00
244.43
190.70
146.70
111.22
82.46
59.91
44.34
36.17
33.96
33.93
31.15
21.25
1.96
-26.66
-62.24
-100.73
-136.95
-165.25
-180.63
-179.94
-162.89
-132.22
-93.15
-52.15
-15.79
9.90
19.69
9.39
-23.08
-76.04
-142.85
-212.12
-269.99
-304.16
-307.47
-279.75
-227.09
-159.53
-88.12
-23.11
27.21
57.23
64.74
51.78
25.15
-5.22
-29.07
-39.33
-34.57
-18.95
0.16
15.61
23.10
22.12
14.93
4.64
-6.38
-17.28
-28.37
-40.31
-53.22
-66.28
-78.13
-87.66
-94.59
-99.29
-102.00
-102.00
-97.37
-85.72
-65.63
-37.73
-5.20
27.06
54.02
71.99
79.75
78.67
72.03
63.92
58.18
57.58
63.56
76.43
95.58
119.86
147.56
176.43
203.77
226.81
243.31
252.21
254.02
250.66
244.89
239.38
235.74
233.94
232.21
227.49
216.47
196.73
167.72
131.08
90.17
49.01
10.99
-22.02
-49.90
-73.74
-95.02
-114.81
-133.27
-149.83
-163.47
-173.16
-178.26
-178.52
-174.10
-165.41
-153.13
-138.18
-121.79
-105.36
-90.19
-77.20
-66.74
-58.49
-51.71
-45.57
-39.46
-33.20
-27.06
-21.55
-17.28
-14.65
-13.85
-14.77
-17.11
-20.45
-24.36
-28.55
-32.79
-36.86
-40.41
-42.87
-43.50
-41.61
-36.80
-29.21
-19.47
-8.64
2.05
11.51
18.98
24.07
26.87
27.78
27.33
26.06
24.40
22.54
20.61
18.65
16.71
14.85
13.12
11.49
9.85
8.10
6.12
3.91
1.50
-1.16
-4.19
-7.75
-11.82
-16.00
-19.47
-21.21
-20.33
-16.42
-9.80
-1.44
7.39
15.49
22.00
26.51
28.91
29.30
27.93
25.19
21.63
17.93
14.63
12.11
10.36
9.09
7.94
6.61
5.01
3.24
1.38
-0.60
-2.90
-5.81
-9.55
-14.08
-18.99
-23.54
-26.70
-27.49
-25.25
-19.88
-11.99
-2.73
6.55
14.71
21.12
25.63
28.49
29.92
30.08
28.93
26.54
23.15
19.20
15.26
11.84
9.17
7.24
5.83
4.58
3.23
1.63
-0.25
-2.40
-4.90
-7.88
-11.45
-15.49
-19.54
-22.71
-23.93
-22.33
-17.59
-10.19
-1.24
7.89
15.99
22.25
26.37
28.41
28.55
27.09
24.45
21.13
17.75
14.87
12.79
11.47
10.58
9.69
8.54
7.12
5.61
4.18
2.79
1.15
-1.13
-4.36
-8.58
-13.41
-18.10
-21.72
-23.29
-22.11
-17.86
-10.80
-1.77
8.00
17.18
24.61
29.54
31.73
31.38
29.00
25.36
21.27
17.35
14.01
11.34
9.22
7.47
5.97
4.77
3.89
3.28
2.76
2.03
0.80
-1.09
-3.75
-7.23
-11.48
-16.24
-20.78
-24.02
-24.73
-22.11
-16.08
-7.44
2.42
11.94
19.86
25.43
28.43
29.01
27.54
24.56
20.63
16.35
12.26
8.73
6.02
4.26
3.36
3.04
2.86
2.26
0.87
-1.43
-4.47
-7.99
-11.82
-15.93
-20.26
-24.41
-27.59
-28.70
-26.81
-21.67
-13.86
-4.63
4.48
12.27
18.10
21.84
23.74
24.05
23.00
20.77
17.60
13.82
9.83
5.96
2.48
-0.41
-2.65
-4.33
-5.69
-7.05
-8.76
-11.00
-13.83
-17.19
-20.94
-24.89
-28.72
-31.77
-33.15
-31.98
-27.65
-20.24
-10.65
-0.22
9.58
17.63
23.40
26.83
28.09
27.43
25.07
21.27
16.52
11.45
6.82
3.28
1.09
0.10
-0.16
-0.35
-1.00
-2.39
-4.55
-7.33
-10.61
-14.46
-18.96
-23.98
-29.00
-32.98
-34.68
-33.11
-27.95
-19.72
-9.68
0.66
9.99
17.48
22.85
26.28
28.06
28.46
27.66
25.80
23.10
19.89
16.53
13.39
10.72
8.55
6.74
5.04
3.23
1.18
-1.19
-3.92
-7.10
-10.86
-15.27
-20.14
-24.89
-28.62
-30.30
-29.08
-24.60
-17.17
-7.75
2.32
11.70
19.36
24.77
27.97
29.33
29.32
28.31
26.46
23.81
20.47
16.71
12.90
9.45
6.61
4.39
2.56
0.87
-0.87
-2.79
-5.00
-7.66
-11.03
-15.30
-20.35
-25.55
-29.73
-31.56
-30.01
-24.73
-16.30
-6.00
4.59
14.10
21.66
26.96
30.06
31.21
30.71
28.79
25.76
22.01
17.98
14.18
10.97
8.59
7.02
6.01
5.15
4.05
2.47
0.36
-2.20
-5.10
-8.37
-12.15
-16.56
-21.41
-26.00
-29.21
-29.75
-26.69
-19.87
-10.10
1.09
11.92
20.92
27.26
30.81
31.82
30.77
28.07
24.22
19.81
15.60
12.21
10.00
8.83
8.20
7.55
6.47
4.90
3.03
1.14
-0.69
-2.52
-4.58
-7.08
-10.13
-13.69
-17.52
-21.13
-23.76
-24.51
-22.57
-17.62
-10.03
-0.85
8.46
16.54
22.43
25.76
26.75
25.85
23.63
20.62
17.28
14.05
11.24
9.03
7.37
6.10
4.94
3.71
2.28
0.65
-1.14
-3.08
-5.18
-7.60
-10.44
-13.82
-17.59
-21.31
-24.15
-25.07
-23.16
-18.06
-10.28
-1.01
8.08
15.55
20.46
22.62
22.40
20.40
17.17
13.15
8.74
4.33
0.43
-2.51
-4.20
-4.69
-4.36
-3.82
-3.67
-4.34
-5.93
-8.30
-11.17
-14.34
-17.77
-21.43
-25.17
-28.44
-30.36
-29.89
-26.32
-19.67
-10.81
-1.27
7.36
13.89
17.88
19.62
19.82
19.16
17.99
16.34
14.05
11.09
7.69
4.29
1.35
-0.82
-2.24
-3.17
-3.98
-4.98
-6.44
-8.50
-11.37
-15.27
-20.24
-25.96
-31.57
-35.78
-37.24
-35.07
-29.19
-20.43
-10.24
-0.10
8.84
16.04
21.35
24.89
26.86
27.42
26.81
25.32
23.24
20.81
18.09
15.07
11.67
8.04
4.42
1.16
-1.49
-3.45
-4.90
-6.22
-7.81
-10.07
-13.22
-17.24
-21.75
-26.01
-29.03
-29.76
-27.52
-22.16
-14.29
-5.04
4.26
12.49
19.07
23.88
27.09
28.83
29.13
28.01
25.60
22.39
18.99
16.00
13.64
11.74
9.89
7.69
5.06
2.16
-0.66
-3.11
-5.16
-7.00
-9.00
-11.54
-14.86
-18.90
-23.24
-27.01
-29.12
-28.54
-24.71
-17.84
-8.85
0.87
10.00
17.60
23.33
27.19
29.36
29.89
28.75
26.05
22.20
18.03
14.50
12.36
11.69
11.90
11.99
11.07
8.85
5.76
2.63
0.20
-1.31
-2.25
-3.31
-5.06
-7.74
-11.16
-14.94
-18.62
-21.80
-23.98
-24.61
-23.13
-19.25
-13.15
-5.56
2.40
9.66
15.43
19.41
21.75
22.80
22.85
22.11
20.66
18.59
16.14
13.70
11.67
10.29
9.60
9.28
8.88
7.95
6.26
3.92
1.29
-1.19
-3.28
-5.01
-6.75
-9.03
-12.26
-16.49
-21.23
-25.54
-28.31
-28.62
-26.04
-20.80
-13.66
-5.68
2.09
8.89
14.26
18.00
20.06
20.45
19.26
16.78
13.56
10.31
7.75
6.28
5.87
6.03
6.15
5.67
4.41
2.54
0.43
-1.68
-3.77
-6.07
-8.89
-12.33
-16.30
-20.45
-24.26
-27.19
-28.76
-28.57
-26.40
-22.24
-16.36
-9.36
-1.97
5.03
10.99
15.48
18.32
19.48
19.05
17.30
14.68
11.69
8.81
6.32
4.24
2.46
0.86
-0.65
-2.01
-3.25
-4.50
-5.93
-7.76
-10.04
-12.67
-15.45
-18.29
-21.13
-23.91
-26.35
-27.89
-27.76
-25.30
-20.25
-13.07
-4.73
3.53
10.61
15.88
19.20
20.74
20.70
19.29
16.68
13.17
9.30
5.69
2.89
1.11
0.18
-0.41
-1.12
-2.23
-3.70
-5.22
-6.55
-7.67
-8.78
-10.32
-12.64
-15.87
-19.76
-23.76
-27.06
-28.91
-28.70
-26.11
-21.22
-14.49
-6.68
1.30
8.53
14.38
18.46
20.73
21.37
20.64
18.85
16.38
13.59
10.86
8.46
6.52
5.01
3.84
2.85
1.88
0.88
-0.21
-1.41
-2.77
-4.39
-6.30
-8.57
-11.22
-14.29
-17.65
-20.96
-23.56
-24.55
-23.20
-19.16
-12.77
-4.90
3.26
10.67
16.62
20.81
23.23
23.93
23.06
20.89
17.91
14.72
11.88
9.68
8.05
6.76
5.50
4.09
2.53
0.92
-0.70
-2.33
-4.06
-5.99
-8.18
-10.68
-13.55
-16.70
-19.95
-22.85
-24.73
-24.93
-22.93
-18.66
-12.55
-5.44
1.62
7.70
12.23
15.06
16.41
16.59
15.92
14.63
12.88
10.87
8.84
7.06
5.71
4.84
4.32
3.92
3.42
2.64
1.55
0.14
-1.56
-3.54
-5.85
-8.56
-11.71
-15.27
-19.02
-22.45
-24.86
-25.50
-23.75
-19.52
-13.23
-5.75
1.80
8.40
13.45
16.70
18.30
18.54
17.69
15.95
13.50
10.63
7.77
5.38
3.80
3.09
2.99
2.99
2.58
1.50
-0.19
-2.15
-4.01
-5.59
-7.01
-8.64
-10.88
-13.88
-17.33
-20.49
-22.41
-22.18
-19.31
-13.88
-6.55
1.55
9.19
15.30
19.27
20.98
20.79
19.21
16.82
14.04
11.20
8.60
6.48
4.99
4.13
3.67
3.30
2.70
1.72
0.38
-1.09
-2.52
-3.88
-5.34
-7.13
-9.57
-12.71
-16.27
-19.58
-21.73
-21.86
-19.51
-14.86
-8.68
-2.03
4.08
8.99
12.43
14.44
15.14
14.71
13.33
11.25
8.80
6.30
4.01
1.99
0.19
-1.47
-3.09
-4.68
-6.23
-7.78
-9.37
-11.06
-12.96
-15.17
-17.84
-21.02
-24.52
-27.78
-29.91
-29.91
-27.13
-21.55
-13.89
-5.41
2.56
9.02
13.52
16.14
17.24
17.19
16.27
14.62
12.37
9.68
6.84
4.13
1.82
0.06
-1.15
-2.03
-2.91
-4.11
-5.84
-8.08
-10.67
-13.39
-16.23
-19.28
-22.64
-26.15
-29.21
-30.86
-30.14
-26.55
-20.28
-12.22
-3.59
4.49
11.29
16.46
19.86
21.49
21.42
19.84
17.19
14.06
11.12
8.83
7.35
6.43
5.68
4.62
3.04
0.96
-1.36
-3.58
-5.52
-7.30
-9.31
-12.07
-15.94
-20.79
-25.93
-30.27
-32.60
-32.07
-28.42
-22.08
-14.02
-5.40
2.76
9.81
15.48
19.74
22.63
24.11
24.15
22.82
20.44
17.46
14.45
11.87
9.94
8.56
7.49
6.39
5.13
3.74
2.34
1.01
-0.37
-2.09
-4.60
-8.15
-12.78
-18.07
-23.24
-27.27
-29.17
-28.26
-24.33
-17.75
-9.35
-0.15
8.79
16.71
23.10
27.68
30.28
30.82
29.44
26.56
22.90
19.32
16.50
14.73
13.80
13.19
12.28
10.74
8.62
6.24
3.99
2.12
0.59
-0.85
-2.57
-4.97
-8.35
-12.78
-17.96
-23.16
-27.28
-29.14
-27.93
-23.52
-16.54
-8.15
0.52
8.64
15.85
22.02
26.98
30.42
31.99
31.59
29.54
26.54
23.41
20.78
18.89
17.60
16.56
15.40
13.86
11.85
9.38
6.61
3.79
1.17
-1.09
-3.02
-4.86
-7.02
-9.97
-14.00
-19.02
-24.52
-29.56
-33.05
-34.01
-31.87
-26.69
-19.13
-10.19
-1.03
7.43
14.59
20.16
24.10
26.45
27.33
26.93
25.56
23.64
21.61
19.87
18.68
18.11
17.97
17.94
17.55
16.46
14.47
11.65
8.30
4.82
1.52
-1.50
-4.32
-7.14
-10.16
-13.52
-17.30
-21.41
-25.64
-29.48
-32.18
-32.85
-30.81
-25.84
-18.38
-9.44
-0.26
8.10
14.97
20.16
23.73
25.80
26.43
25.64
23.63
20.77
17.72
15.12
13.43
12.77
12.85
13.11
12.97
12.02
10.13
7.54
4.62
1.82
-0.63
-2.67
-4.53
-6.52
-8.91
-11.90
-15.52
-19.61
-23.84
-27.60
-30.17
-30.75
-28.81
-24.23
-17.46
-9.37
-0.95
6.87
13.52
18.74
22.47
24.74
25.62
25.20
23.72
21.52
19.07
16.90
15.33
14.50
14.16
13.86
13.05
11.40
8.92
5.93
2.91
0.18
-2.13
-4.18
-6.18
-8.38
-10.93
-13.94
-17.51
-21.58
-25.78
-29.31
-31.13
-30.29
-26.38
-19.73
-11.34
-2.49
5.68
12.44
17.55
20.97
22.80
23.10
22.02
19.88
17.22
14.71
12.92
12.13
12.25
12.82
13.24
12.93
11.55
9.14
6.03
2.66
-0.62
-3.62
-6.35
-8.95
-11.59
-14.41
-17.46
-20.67
-23.72
-26.02
-26.77
-25.22
-20.96
-14.23
-5.93
2.70
10.48
16.61
20.83
23.18
23.83
22.96
20.78
17.63
14.04
10.61
7.85
5.99
4.93
4.30
3.63
2.59
1.02
-1.04
-3.39
-5.75
-7.89
-9.76
-11.55
-13.65
-16.44
-20.12
-24.40
-28.52
-31.40
-32.04
-29.85
-24.81
-17.52
-9.05
-0.54
6.94
12.73
16.51
18.33
18.48
17.34
15.30
12.79
10.19
7.87
6.08
4.89
4.14
3.50
2.58
1.10
-0.95
-3.29
-5.55
-7.43
-8.88
-10.17
-11.72
-13.94
-16.97
-20.54
-23.96
-26.39
-27.03
-25.40
-21.48
-15.65
-8.60
-1.14
5.98
12.14
16.88
19.94
21.25
20.98
19.49
17.29
14.95
12.90
11.38
10.33
9.52
8.56
7.18
5.30
3.08
0.82
-1.16
-2.68
-3.81
-4.82
-6.15
-8.17
-11.04
-14.60
-18.39
-21.68
-23.57
-23.32
-20.46
-15.10
-7.85
0.32
8.31
15.26
20.60
24.18
25.98
26.09
24.69
22.06
18.68
15.13
11.97
9.50
7.72
6.40
5.28
4.13
2.93
1.72
0.55
-0.59
-1.80
-3.28
-5.21
-7.78
-11.11
-15.09
-19.34
-23.14
-25.66
-26.11
-24.10
-19.66
-13.31
-5.94
1.44
7.92
12.79
15.73
16.74
16.12
14.30
11.79
9.07
6.54
4.55
3.35
3.05
3.54
4.40
5.05
4.93
3.70
1.38
-1.69
-5.09
-8.45
-11.69
-14.90
-18.21
-21.54
-24.48
-26.34
-26.33
-23.92
-19.00
-12.10
-4.15
3.67
10.29
14.98
17.43
17.74
16.30
13.62
10.26
6.83
3.80
1.50
0.03
-0.73
-1.01
-1.12
-1.33
-1.84
-2.73
-3.99
-5.58
-7.45
-9.57
-11.96
-14.76
-18.05
-21.72
-25.32
-27.98
-28.70
-26.65
-21.71
-14.46
-6.12
2.00
8.87
13.98
17.28
18.95
19.22
18.18
16.01
13.02
9.74
6.72
4.34
2.71
1.60
0.71
-0.24
-1.34
-2.54
-3.74
-4.97
-6.41
-8.37
-11.14
-14.84
-19.36
-24.18
-28.53
-31.46
-32.06
-29.75
-24.40
-16.49
-6.97
2.89
11.81
18.80
23.28
25.20
24.98
23.25
20.76
18.13
15.71
13.58
11.67
9.85
8.14
6.65
5.44
4.44
3.41
2.05
0.25
-1.95
-4.33
-6.70
-9.14
-11.94
-15.36
-19.30
-23.08
-25.54
-25.58
-22.58
-16.66
-8.75
-0.12
7.94
14.49
19.00
21.42
22.00
21.14
19.35
17.09
14.74
12.54
10.67
9.23
8.32
7.88
7.68
7.31
6.33
4.44
1.68
-1.59
-4.89
-7.86
-10.55
-13.31
-16.58
-20.52
-24.68
-28.08
-29.48
-27.95
-23.24
-15.87
-6.95
2.29
10.78
17.84
23.14
26.53
27.99
27.61
25.67
22.71
19.38
16.34
13.99
12.39
11.30
10.31
9.02
7.24
5.02
2.61
0.35
-1.57
-3.24
-5.02
-7.39
-10.75
-15.15
-20.21
-25.10
-28.78
-30.23
-28.79
-24.34
-17.31
-8.67
0.45
8.93
15.91
20.88
23.64
24.24
22.95
20.25
16.77
13.21
10.20
8.13
7.02
6.63
6.49
6.10
5.12
3.38
1.03
-1.62
-4.09
-6.00
-7.27
-8.29
-9.74
-12.28
-16.11
-20.62
-24.56
-26.46
-25.22
-20.58
-13.24
-4.48
4.28
11.93
17.88
21.97
24.22
24.70
23.60
21.21
18.09
14.94
12.42
10.86
10.17
9.88
9.37
8.15
6.09
3.36
0.38
-2.46
-4.94
-7.10
-9.26
-11.86
-15.31
-19.72
-24.77
-29.65
-33.28
-34.63
-33.04
-28.52
-21.68
-13.46
-4.89
3.22
10.31
16.06
20.24
22.75
23.56
22.85
21.04
18.80
16.77
15.44
14.96
15.08
15.30
15.09
14.10
12.31
10.02
7.59
5.28
3.10
0.82
-1.88
-5.29
-9.51
-14.38
-19.47
-24.05
-27.21
-28.06
-25.94
-20.78
-13.10
-4.02
5.09
13.04
19.08
22.95
24.83
25.00
23.79
21.51
18.53
15.33
12.46
10.36
9.12
8.54
8.16
7.48
6.27
4.59
2.72
1.00
-0.45
-1.78
-3.37
-5.72
-9.23
-13.97
-19.64
-25.55
-30.73
-34.19
-35.12
-33.06
-28.03
-20.51
-11.36
-1.67
7.50
15.27
21.11
24.91
26.88
27.41
26.91
25.73
24.08
22.14
20.08
18.09
16.31
14.79
13.43
12.07
10.58
8.92
7.16
5.37
3.59
1.72
-0.43
-3.13
-6.56
-10.79
-15.66
-20.74
-25.35
-28.55
-29.42
-27.35
-22.23
-14.64
-5.75
3.14
10.94
17.05
21.38
24.11
25.39
25.28
23.86
21.39
18.44
15.77
13.94
13.12
12.92
12.70
11.93
10.40
8.34
6.14
4.11
2.27
0.36
-1.88
-4.64
-7.90
-11.60
-15.72
-20.15
-24.67
-28.69
-31.31
-31.53
-28.65
-22.66
-14.28
-4.78
4.46
12.31
18.16
21.82
23.44
23.32
21.81
19.36
16.48
13.66
11.33
9.66
8.58
7.79
6.94
5.75
4.18
2.34
0.44
-1.28
-2.76
-4.05
-5.33
-6.87
-8.95
-11.77
-15.43
-19.71
-24.09
-27.63
-29.28
-28.19
-24.03
-17.23
-8.74
0.09
8.12
14.49
18.82
21.11
21.58
20.57
18.49
15.84
13.13
10.87
9.41
8.83
8.88
9.06
8.81
7.69
5.61
2.80
-0.26
-3.13
-5.61
-7.82
-10.17
-13.09
-16.80
-21.08
-25.28
-28.50
-29.83
-28.68
-24.88
-18.76
-11.04
-2.64
5.53
12.70
18.34
22.14
23.99
23.92
22.12
18.92
14.86
10.66
7.10
4.80
3.99
4.37
5.19
5.63
5.15
3.74
1.85
0.06
-1.27
-2.23
-3.31
-5.13
-8.16
-12.47
-17.71
-23.17
-27.87
-30.78
-31.01
-28.05
-22.07
-13.85
-4.70
3.95
10.98
15.76
18.26
18.78
17.78
15.68
12.91
9.91
7.21
5.29
4.39
4.33
4.61
4.56
3.68
1.93
-0.35
-2.63
-4.52
-5.97
-7.31
-9.03
-11.58
-15.07
-19.26
-23.56
-27.14
-29.03
-28.44
-24.98
-18.78
-10.62
-1.68
6.78
13.71
18.54
21.22
21.96
21.23
19.51
17.21
14.69
12.16
9.74
7.42
5.27
3.30
1.63
0.34
-0.63
-1.42
-2.27
-3.36
-4.76
-6.51
-8.64
-11.29
-14.60
-18.60
-22.95
-26.90
-29.37
-29.29
-26.03
-19.65
-11.01
-1.50
7.31
14.22
18.60
20.46
20.26
18.59
16.00
12.91
9.74
6.92
4.89
3.88
3.75
4.04
4.08
3.35
1.70
-0.64
-3.25
-5.74
-7.98
-10.15
-12.59
-15.66
-19.42
-23.55
-27.36
-29.77
-29.82
-26.89
-21.11
-13.24
-4.49
3.89
10.94
16.10
19.21
20.34
19.73
17.78
15.09
12.23
9.73
7.80
6.39
5.29
4.20
3.03
1.75
0.44
-0.91
-2.36
-4.03
-5.99
-8.31
-11.11
-14.53
-18.63
-23.22
-27.67
-30.92
-31.77
-29.36
-23.53
-15.03
-5.26
4.18
12.00
17.50
20.61
21.64
21.07
19.38
17.05
14.57
12.39
10.80
9.90
9.53
9.42
9.18
8.49
7.15
5.09
2.45
-0.53
-3.55
-6.46
-9.26
-12.23
-15.65
-19.64
-23.90
-27.61
-29.74
-29.25
-25.68
-19.23
-10.84
-1.83
6.51
13.17
17.72
20.13
20.76
20.07
18.56
16.63
14.67
12.98
11.78
11.09
10.72
10.34
9.59
8.21
6.17
3.68
1.12
-1.13
-2.86
-4.22
-5.64
-7.77
-11.06
-15.43
-20.16
-24.01
-25.65
-24.13
-19.29
-11.78
-2.87
6.08
13.91
19.87
23.65
25.23
24.86
22.97
20.15
17.00
14.07
11.68
9.89
8.61
7.63
6.79
6.00
5.22
4.33
3.17
1.54
-0.73
-3.69
-7.31
-11.51
-16.20
-21.20
-26.18
-30.47
-33.17
-33.33
-30.39
-24.45
-16.33
-7.28
1.46
9.07
15.21
19.85
22.96
24.35
23.85
21.54
17.92
13.91
10.47
8.21
7.17
6.86
6.63
5.96
4.74
3.12
1.40
-0.23
-1.76
-3.42
-5.54
-8.48
-12.40
-17.19
-22.29
-26.71
-29.28
-28.99
-25.37
-18.71
-9.96
-0.41
8.64
16.24
21.86
25.29
26.59
25.93
23.60
20.08
15.99
11.99
8.65
6.25
4.69
3.54
2.26
0.42
-2.06
-4.94
-7.77
-10.22
-12.23
-14.12
-16.38
-19.45
-23.44
-28.04
-32.58
-36.16
-37.88
-37.02
-33.28
-26.79
-18.24
-8.62
0.89
9.27
15.84
20.32
22.72
23.25
22.15
19.77
16.56
13.11
9.99
7.59
5.95
4.78
3.60
1.97
-0.25
-2.97
-5.93
-8.93
-11.92
-15.04
-18.59
-22.84
-27.99
-34.02
-40.56
-46.86
-51.80
-54.13
-52.87
-47.53
-38.33
-26.13
-12.26
1.78
14.50
24.62
31.30
34.20
33.59
30.30
25.49
20.28
15.56
11.77
8.89
6.52
3.99
0.55
-4.37
-10.90
-18.65
-26.76
-34.30
-40.70
-45.97
-50.75
-55.85
-61.89
-68.87
-76.26
-83.21
-88.97
-93.08
-95.22
-95.20
-92.65
-87.19
-78.82
-68.23
-56.71
-45.80
-36.67
-29.64
-24.39
-20.35
-16.98
-13.71
-9.30
-1.47
12.88
36.30
69.20
108.69
148.97
183.30
206.45
216.51
214.97
205.43
191.58
175.92
159.50
142.47
125.08
107.97
92.28
79.10
69.13
62.51
58.87
57.63
58.23
60.34
63.69
68.02
72.81
77.14
79.92
80.23
77.82
73.13
67.00
59.93
51.72
41.51
28.48
12.60
-5.01
-22.25
-36.85
-47.06
-52.16
-52.31
-48.28
-41.22
-32.48
-23.79
-17.25
-15.02
-18.57
-28.04
-41.88
-57.14
-70.29
-78.36
-79.78
-74.74
-64.94
-52.79
-40.56
-29.86
-21.44
-15.38
-11.42
-9.16
-8.25
-8.32
-9.00
-9.80
-10.32
-10.20
-9.32
-7.81
-6.02
-4.47
-3.62
-3.77
-4.93
-6.85
-9.12
-11.48
-13.98
-16.91
-20.65
-25.28
-30.35
-34.89
-37.72
-37.88
-35.08
-29.74
-22.82
-15.42
-8.47
-2.51
2.22
5.63
7.70
8.42
7.90
6.48
4.69
3.14
2.20
1.91
1.96
1.86
1.22
-0.05
-1.78
-3.65
-5.40
-6.96
-8.44
-10.02
-11.83
-13.98
-16.47
-19.26
-22.18
-24.81
-26.48
-26.46
-24.23
-19.70
-13.31
-5.94
1.41
7.88
12.97
16.55
18.73
19.65
19.47
18.39
16.67
14.67
12.81
11.41
10.54
10.06
9.64
8.91
7.68
5.98
4.00
1.95
-0.02
-1.97
-4.05
-6.45
-9.27
-12.56
-16.16
-19.78
-22.95
-24.97
-25.13
-22.90
-18.18
-11.44
-3.62
4.16
10.99
16.30
19.96
21.99
22.47
21.51
19.30
16.30
13.16
10.60
9.02
8.41
8.31
8.15
7.52
6.28
4.61
2.78
0.98
-0.75
-2.53
-4.52
-6.91
-9.86
-13.42
-17.44
-21.41
-24.48
-25.68
-24.22
-19.83
-12.94
-4.60
3.93
11.48
17.27
21.01
22.73
22.69
21.16
18.51
15.17
11.68
8.61
6.39
5.11
4.53
4.16
3.48
2.24
0.48
-1.52
-3.49
-5.33
-7.12
-9.05
-11.36
-14.13
-17.29
-20.58
-23.59
-25.73
-26.38
-24.92
-21.08
-15.00
-7.33
0.90
8.54
14.63
18.58
20.23
19.85
17.91
15.00
11.66
8.36
5.36
2.79
0.63
-1.21
-2.84
-4.32
-5.60
-6.62
-7.38
-7.96
-8.59
-9.57
-11.15
-13.52
-16.68
-20.49
-24.54
-28.20
-30.68
-31.13
-28.96
-24.01
-16.74
-8.12
0.59
8.20
13.82
17.07
18.05
17.17
15.09
12.45
9.76
7.37
5.47
4.10
3.21
2.65
2.17
1.51
0.46
-1.07
-2.98
-5.04
-7.03
-8.88
-10.79
-13.14
-16.36
-20.60
-25.61
-30.59
-34.45
-36.11
-34.95
-31.05
-25.12
-18.33
-11.84
-6.54
-2.87
-0.97
-0.77
-2.15
-4.95
-8.88
-13.59
-18.61
-23.54
-28.09
-32.20
-35.96
-39.51
-43.00
-46.51
-50.02
-53.45
-56.59
-59.10
-60.53
-60.50
-58.81
-55.47
-50.68
-44.48
-36.38
-25.42
-10.41
9.37
33.58
60.48
87.42
111.53
130.61
143.52
150.08
150.57
145.45
135.32
121.22
104.82
88.27
73.51
61.77
53.16
46.96
42.21
38.27
34.91
32.14
29.68
26.78
22.59
16.62
9.23
1.64
-4.61
-8.41
-9.45
-8.39
-6.36
-4.46
-3.36
-3.29
-4.14
-5.72
-7.85
-10.44
-13.39
-16.66
-20.24
-24.14
-28.24
-32.26
-35.62
-37.60
-37.55
-35.05
-30.01
-22.69
-13.63
-3.53
6.81
16.63
25.22
32.00
36.51
38.47
37.75
34.53
29.30
22.94
16.60
11.42
8.26
7.42
8.57
10.95
13.67
15.94
17.32
17.67
17.04
15.48
13.11
10.00
6.25
2.08
-2.27
-6.55
-10.54
-14.15
-17.40
-20.42
-23.40
-26.49
-29.61
-32.56
-35.04
-36.87
-38.14
-39.20
-40.53
-42.45
-44.87
-47.32
-49.15
-49.78
-48.88
-46.48
-42.86
-38.48
-33.92
-29.82
-26.76
-25.14
-25.06
-26.25
-28.29
-30.71
-33.23
-35.85
-38.66
-41.78
-45.13
-48.45
-51.42
-53.73
-55.24
-55.98
-56.15
-55.90
-55.35
-54.54
-53.61
-52.85
-52.58
-52.97
-53.72
-54.05
-52.92
-49.48
-43.49
-35.43
-26.24
-16.86
-7.79
1.02
9.97
19.47
29.62
40.20
50.84
61.33
71.67
81.97
92.42
103.05
113.82
124.68
135.51
146.15
156.20
165.15
172.38
177.52
180.57
181.82
181.73
180.52
178.02
173.65
166.72
156.48
142.32
123.68
100.27
72.47
41.58
9.80
-20.32
-46.72
-68.53
-86.20
-100.91
-113.65
-124.54
-132.86
-137.63
-138.42
-135.67
-130.53
-124.29
-117.82
-111.41
-104.91
-98.21
-91.42
-84.98
-79.50
-75.52
-73.33
-72.78
-73.28
-73.76
-72.96
-69.76
-63.69
-55.11
-45.17
-35.37
-26.93
-20.46
-15.96
-13.16
-11.93
-12.38
-14.77
-19.10
-24.84
-30.87
-35.83
-38.62
-38.72
-36.37
-32.39
-27.86
-23.73
-20.68
-19.00
-18.67
-19.57
-21.59
-24.75
-29.12
-34.63
-40.76
-46.46
-50.21
-50.46
-46.18
-37.22
-24.36
-9.03
7.14
22.72
36.59
47.92
56.07
60.65
61.62
59.47
55.17
49.87
44.62
40.05
36.37
33.50
31.24
29.41
27.87
26.56
25.46
24.59
23.89
23.21
22.23
20.60
18.24
15.58
13.70
14.04
17.82
25.45
36.29
48.82
61.23
72.11
80.71
86.93
90.87
92.60
91.96
88.77
83.23
76.01
68.23
61.00
54.97
50.15
45.92
41.42
36.02
29.56
22.47
15.49
9.34
4.32
0.21
-3.72
-8.37
-14.36
-21.64
-29.41
-36.23
-40.44
-40.76
-36.67
-28.74
-18.59
-8.63
-1.65
-0.14
-5.69
-18.30
-36.21
-56.17
-74.42
-87.72
-94.39
-94.62
-90.03
-82.82
-74.83
-67.10
-60.02
-53.70
-48.47
-44.84
-43.31
-43.87
-45.97
-48.71
-51.34
-53.66
-55.95
-58.54
-61.25
-63.09
-62.48
-57.89
-48.67
-35.36
-19.60
-3.52
10.97
22.58
30.83
35.83
38.03
38.02
36.57
34.40
32.19
30.38
29.07
28.04
26.89
25.28
23.02
20.23
17.20
14.25
11.59
9.24
6.94
4.27
0.67
-4.35
-10.93
-18.63
-26.31
-32.26
-34.70
-32.36
-25.01
-13.58
0.14
14.05
26.46
36.37
43.48
47.91
49.89
49.59
47.26
43.36
38.58
33.78
29.66
26.62
24.54
22.99
21.42
19.41
16.92
14.21
11.63
9.41
7.44
5.25
2.21
-2.23
-8.14
-14.89
-21.18
-25.40
-26.16
-22.70
-15.24
-4.83
7.05
18.83
29.28
37.56
43.20
45.99
45.96
43.42
39.02
33.73
28.55
24.36
21.55
19.99
19.13
18.20
16.58
14.00
10.70
7.16
3.94
1.30
-0.95
-3.37
-6.70
-11.53
-17.96
-25.45
-32.92
-38.90
-41.92
-40.88
-35.31
-25.60
-12.84
1.41
15.52
28.12
38.32
45.67
50.02
51.48
50.27
46.85
41.92
36.40
31.21
27.01
24.03
21.94
20.13
17.96
15.10
11.68
8.20
5.24
3.12
1.66
0.21
-2.06
-5.85
-11.34
-17.99
-24.66
-29.86
-32.14
-30.54
-24.83
-15.60
-4.04
8.31
20.00
29.82
37.02
41.28
42.63
41.37
38.11
33.64
28.85
24.60
21.43
19.49
18.48
17.84
16.98
15.45
13.17
10.29
7.16
4.13
1.41
-1.01
-3.37
-6.13
-9.78
-14.63
-20.54
-26.80
-32.09
-34.95
-34.09
-28.99
-20.07
-8.61
3.69
15.14
24.59
31.43
35.56
37.15
36.47
33.88
29.85
25.04
20.23
16.14
13.21
11.44
10.40
9.47
8.11
6.13
3.74
1.39
-0.54
-1.92
-3.03
-4.33
-6.32
-9.35
-13.46
-18.38
-23.51
-27.92
-30.43
-29.91
-25.68
-17.86
-7.45
3.90
14.46
22.95
28.79
31.99
32.83
31.60
28.52
23.95
18.52
13.13
8.64
5.55
3.79
2.84
1.99
0.76
-0.99
-3.08
-5.25
-7.37
-9.41
-11.49
-13.73
-16.27
-19.24
-22.76
-26.74
-30.73
-33.77
-34.54
-31.91
-25.42
-15.60
-3.95
7.64
17.44
24.45
28.42
29.68
28.73
26.01
21.91
16.84
11.43
6.39
2.38
-0.32
-1.79
-2.46
-2.84
-3.29
-3.97
-4.83
-5.77
-6.72
-7.82
-9.32
-11.54
-14.80
-19.17
-24.36
-29.55
-33.53
-34.93
-32.74
-26.73
-17.64
-6.94
3.65
12.70
19.44
23.72
25.71
25.64
23.66
19.95
14.97
9.53
4.59
0.96
-1.07
-1.77
-1.83
-1.92
-2.44
-3.40
-4.59
-5.86
-7.24
-8.99
-11.45
-14.91
-19.42
-24.68
-29.97
-34.24
-36.30
-35.11
-30.19
-21.89
-11.34
-0.15
10.05
18.10
23.42
26.00
26.14
24.27
20.85
16.41
11.52
6.75
2.62
-0.54
-2.68
-3.96
-4.68
-5.23
-5.95
-7.08
-8.73
-10.82
-13.15
-15.56
-18.06
-20.88
-24.33
-28.45
-32.83
-36.43
-37.92
-36.14
-30.59
-21.68
-10.66
0.81
11.22
19.47
25.09
28.05
28.56
26.94
23.61
19.13
14.22
9.67
6.09
3.74
2.42
1.68
0.99
0.05
-1.23
-2.70
-4.21
-5.76
-7.53
-9.81
-12.94
-17.11
-22.28
-28.05
-33.62
-37.82
-39.41
-37.39
-31.47
-22.22
-10.99
0.51
10.63
18.32
23.15
25.28
25.14
23.27
20.20
16.48
12.68
9.34
6.92
5.60
5.21
5.34
5.44
5.06
4.10
2.70
1.17
-0.27
-1.71
-3.59
-6.53
-11.10
-17.36
-24.76
-32.05
-37.63
-40.05
-38.37
-32.58
-23.48
-12.44
-1.03
9.42
18.01
24.30
28.12
29.51
28.62
25.79
21.56
16.70
12.01
8.12
5.35
3.59
2.50
1.65
0.77
-0.23
-1.23
-2.10
-2.81
-3.49
-4.54
-6.43
-9.64
-14.34
-20.24
-26.48
-31.71
-34.49
-33.71
-28.95
-20.59
-9.78
1.98
13.19
22.63
29.50
33.41
34.36
32.70
29.06
24.33
19.47
15.25
12.15
10.16
8.93
7.96
6.80
5.31
3.58
1.90
0.49
-0.66
-1.80
-3.33
-5.67
-9.13
-13.74
-19.27
-25.11
-30.36
-33.88
-34.52
-31.50
-24.70
-14.80
-3.15
8.53
18.74
26.48
31.35
33.46
33.10
30.62
26.41
21.05
15.29
10.02
5.98
3.49
2.38
2.01
1.67
0.87
-0.50
-2.23
-3.92
-5.30
-6.41
-7.57
-9.31
-12.20
-16.58
-22.34
-28.77
-34.61
-38.26
-38.32
-34.08
-25.89
-15.06
-3.48
7.06
15.30
20.76
23.54
24.03
22.68
19.88
16.09
11.93
8.08
5.12
3.37
2.74
2.88
3.30
3.54
3.34
2.62
1.44
-0.13
-2.07
-4.53
-7.72
-11.89
-17.08
-22.95
-28.68
-33.05
-34.72
-32.68
-26.63
-17.21
-5.83
5.78
16.03
23.88
28.94
31.32
31.37
29.48
26.06
21.63
16.82
12.35
8.78
6.31
4.76
3.67
2.56
1.12
-0.76
-3.01
-5.51
-8.23
-11.16
-14.42
-18.11
-22.30
-26.98
-31.90
-36.49
-39.82
-40.74
-38.28
-32.04
-22.43
-10.66
1.65
12.88
21.94
28.35
32.16
33.71
33.33
31.32
28.03
23.99
19.87
16.36
13.88
12.45
11.67
10.92
9.72
7.88
5.52
2.93
0.30
-2.35
-5.17
-8.45
-12.47
-17.38
-23.12
-29.26
-34.87
-38.65
-39.25
-35.71
-27.88
-16.67
-3.78
8.85
19.64
27.69
32.80
35.21
35.27
33.34
29.86
25.44
20.88
16.98
14.22
12.61
11.68
10.83
9.61
7.88
5.84
3.78
1.90
0.20
-1.50
-3.51
-6.18
-9.84
-14.73
-20.79
-27.42
-33.44
-37.26
-37.40
-33.06
-24.52
-13.04
-0.54
11.16
20.79
27.82
32.31
34.52
34.64
32.80
29.26
24.60
19.70
15.51
12.63
11.12
10.44
9.78
8.50
6.34
3.57
0.72
-1.77
-3.74
-5.40
-7.17
-9.48
-12.68
-16.92
-22.07
-27.59
-32.49
-35.50
-35.30
-31.12
-23.01
-12.03
0.10
11.63
21.17
28.07
32.22
33.80
33.04
30.24
25.89
20.75
15.76
11.76
9.17
7.89
7.34
6.79
5.70
3.92
1.63
-0.74
-2.88
-4.70
-6.36
-8.28
-10.93
-14.74
-19.76
-25.61
-31.31
-35.53
-36.92
-34.57
-28.38
-19.18
-8.42
2.36
11.88
19.41
24.62
27.40
27.75
25.84
22.11
17.36
12.55
8.46
5.47
3.50
2.18
1.16
0.23
-0.66
-1.50
-2.38
-3.49
-4.98
-6.96
-9.51
-12.72
-16.70
-21.48
-26.75
-31.74
-35.26
-36.05
-33.21
-26.63
-17.10
-6.04
4.91
14.37
21.51
26.01
27.97
27.64
25.28
21.32
16.29
10.98
6.20
2.62
0.42
-0.72
-1.45
-2.46
-4.14
-6.43
-8.95
-11.30
-13.32
-15.21
-17.44
-20.50
-24.62
-29.51
-34.34
-37.91
-38.96
-36.58
-30.56
-21.49
-10.57
0.65
10.79
18.81
24.27
27.21
27.93
26.86
24.42
21.08
17.30
13.58
10.32
7.69
5.62
3.80
1.87
-0.45
-3.13
-5.92
-8.48
-10.55
-12.20
-13.86
-16.18
-19.74
-24.78
-30.88
-36.96
-41.47
-42.80
-39.89
-32.57
-21.72
-8.92
3.94
15.33
24.34
30.69
34.56
36.25
36.08
34.36
31.48
27.86
23.98
20.21
16.69
13.43
10.34
7.36
4.49
1.83
-0.61
-2.90
-5.16
-7.60
-10.45
-13.96
-18.35
-23.65
-29.53
-35.12
-39.11
-40.09
-37.05
-29.86
-19.42
-7.32
4.63
15.02
23.15
28.93
32.63
34.47
34.54
32.90
29.76
25.65
21.27
17.28
14.00
11.38
9.06
6.73
4.30
1.97
0.03
-1.37
-2.43
-3.64
-5.58
-8.73
-13.22
-18.84
-25.00
-30.84
-35.23
-37.00
-35.26
-29.69
-20.86
-10.03
1.16
11.22
19.24
24.95
28.54
30.35
30.58
29.35
26.79
23.20
19.16
15.36
12.41
10.59
9.75
9.36
8.73
7.39
5.26
2.65
0.07
-2.15
-4.09
-6.15
-8.95
-12.92
-18.09
-23.95
-29.63
-33.95
-35.85
-34.51
-29.61
-21.48
-11.09
0.18
10.93
20.00
26.74
30.93
32.69
32.24
29.93
26.26
21.84
17.44
13.69
11.00
9.37
8.49
7.86
7.05
5.89
4.44
2.89
1.41
0.06
-1.30
-2.97
-5.33
-8.75
-13.35
-18.89
-24.70
-29.68
-32.60
-32.40
-28.64
-21.60
-12.25
-1.94
7.99
16.51
22.97
27.07
28.81
28.33
25.98
22.29
17.95
13.68
10.06
7.39
5.64
4.58
3.83
3.05
1.99
0.53
-1.31
-3.39
-5.53
-7.59
-9.56
-11.69
-14.32
-17.74
-21.91
-26.28
-29.77
-31.15
-29.42
-24.23
-16.11
-6.29
3.64
12.22
18.42
21.86
22.64
21.18
18.09
14.05
9.77
5.89
2.88
0.90
-0.16
-0.70
-1.16
-1.88
-3.01
-4.49
-6.14
-7.85
-9.58
-11.47
-13.79
-16.84
-20.80
-25.55
-30.42
-34.28
-35.83
-34.01
-28.49
-19.87
-9.46
1.14
10.53
17.91
23.01
25.85
26.55
25.27
22.28
18.15
13.65
9.54
6.29
3.95
2.21
0.65
-1.03
-2.87
-4.75
-6.52
-8.14
-9.72
-11.48
-13.62
-16.36
-19.80
-23.87
-28.23
-32.11
-34.47
-34.22
-30.64
-23.71
-14.23
-3.52
6.90
15.84
22.65
27.15
29.40
29.59
27.97
24.92
21.01
16.94
13.34
10.58
8.61
7.09
5.64
3.95
1.99
-0.14
-2.27
-4.36
-6.41
-8.56
-10.97
-13.85
-17.40
-21.68
-26.46
-31.04
-34.37
-35.23
-32.72
-26.61
-17.47
-6.57
4.57
14.58
22.48
27.79
30.45
30.64
28.73
25.25
20.89
16.39
12.41
9.41
7.51
6.53
6.07
5.61
4.78
3.36
1.43
-0.82
-3.16
-5.48
-7.90
-10.69
-14.18
-18.44
-23.14
-27.43
-30.12
-30.11
-26.75
-20.15
-11.13
-0.92
9.12
17.87
24.55
28.71
30.21
29.24
26.34
22.43
18.48
15.33
13.34
12.40
12.03
11.71
11.01
9.76
8.06
6.05
3.95
1.86
-0.25
-2.51
-5.17
-8.51
-12.77
-17.93
-23.58
-28.87
-32.64
-33.71
-31.28
-25.27
-16.45
-6.23
3.83
12.47
19.06
23.51
26.04
26.84
26.04
23.74
20.31
16.39
12.74
10.01
8.43
7.76
7.48
7.11
6.36
5.24
3.91
2.48
0.96
-0.76
-2.94
-5.87
-9.79
-14.70
-20.29
-25.77
-30.03
-31.84
-30.32
-25.20
-17.09
-7.15
3.11
12.30
19.39
23.77
25.31
24.22
21.05
16.63
11.93
7.79
4.69
2.71
1.56
0.83
0.21
-0.47
-1.21
-1.99
-2.84
-3.90
-5.32
-7.28
-9.94
-13.36
-17.53
-22.18
-26.71
-30.23
-31.71
-30.26
-25.51
-17.78
-8.05
2.25
11.64
18.94
23.50
25.20
24.33
21.47
17.34
12.68
8.18
4.34
1.41
-0.68
-2.24
-3.60
-5.04
-6.60
-8.12
-9.41
-10.40
-11.23
-12.25
-13.91
-16.63
-20.63
-25.71
-31.19
-35.92
-38.48
-37.69
-32.96
-24.60
-13.70
-1.86
9.32
18.69
25.65
30.11
32.25
32.38
30.83
27.97
24.27
20.29
16.58
13.50
11.16
9.38
7.83
6.14
4.08
1.64
-1.07
-3.83
-6.54
-9.26
-12.30
-16.03
-20.70
-26.18
-31.77
-36.24
-38.09
-36.16
-29.98
-20.12
-8.05
4.36
15.45
24.16
30.15
33.63
34.98
34.53
32.51
29.17
24.92
20.38
16.16
12.72
10.19
8.31
6.65
4.81
2.58
0.08
-2.42
-4.68
-6.66
-8.60
-10.89
-13.94
-17.88
-22.44
-26.87
-30.12
-31.06
-28.85
-23.30
-14.90
-4.78
5.64
14.99
22.32
27.15
29.53
29.78
28.31
25.54
21.98
18.13
14.56
11.77
9.99
9.12
8.80
8.50
7.79
6.54
4.83
2.89
0.90
-1.13
-3.35
-6.01
-9.41
-13.69
-18.78
-24.20
-29.02
-31.98
-31.83
-27.79
-19.90
-9.17
2.72
13.90
22.85
28.79
31.62
31.79
29.87
26.49
22.21
17.57
13.14
9.46
6.87
5.44
4.89
4.70
4.36
3.51
2.09
0.31
-1.56
-3.30
-5.03
-7.04
-9.75
-13.49
-18.27
-23.67
-28.75
-32.27
-32.98
-30.10
-23.58
-14.18
-3.30
7.45
16.68
23.51
27.64
29.23
28.65
26.35
22.86
18.69
14.46
10.69
7.75
5.73
4.50
3.72
3.07
2.29
1.30
0.14
-1.08
-2.34
-3.73
-5.50
-7.96
-11.36
-15.72
-20.75
-25.67
-29.42
-30.89
-29.26
-24.34
-16.62
-7.18
2.67
11.68
18.91
23.84
26.33
26.53
24.74
21.43
17.18
12.66
8.54
5.34
3.25
2.14
1.61
1.17
0.42
-0.79
-2.33
-3.96
-5.47
-6.85
-8.36
-10.31
-12.99
-16.46
-20.42
-24.22
-26.92
-27.50
-25.24
-19.98
-12.21
-3.06
6.14
14.21
20.35
24.27
26.03
25.88
24.15
21.22
17.64
14.09
11.19
9.27
8.29
7.86
7.50
6.87
5.87
4.62
3.24
1.75
0.01
-2.18
-4.97
-8.35
-12.25
-16.52
-20.84
-24.69
-27.27
-27.69
-25.20
-19.59
-11.36
-1.64
8.08
16.44
22.49
25.82
26.49
24.86
21.43
16.83
11.79
7.05
3.24
0.70
-0.61
-1.07
-1.18
-1.40
-2.00
-3.03
-4.39
-5.92
-7.55
-9.30
-11.36
-14.02
-17.44
-21.53
-25.75
-29.14
-30.55
-29.09
-24.46
-17.15
-8.30
0.71
8.64
14.68
18.47
20.03
19.55
17.38
14.03
10.15
6.51
3.67
1.95
1.22
1.09
1.11
0.94
0.50
-0.21
-1.18
-2.58
-4.56
-7.34
-10.95
-15.31
-20.13
-24.96
-29.14
-31.83
-32.12
-29.31
-23.23
-14.47
-4.27
5.81
14.30
20.28
23.57
24.55
23.94
22.37
20.23
17.72
14.88
11.87
8.91
6.30
4.28
2.87
1.87
0.93
-0.23
-1.82
-3.84
-6.23
-8.95
-12.05
-15.66
-19.84
-24.42
-28.86
-32.28
-33.67
-32.17
-27.47
-19.90
-10.42
-0.34
9.14
17.12
23.20
27.28
29.48
29.91
28.74
26.26
22.91
19.27
15.93
13.30
11.44
10.17
9.03
7.63
5.73
3.35
0.72
-1.88
-4.28
-6.50
-8.85
-11.78
-15.63
-20.41
-25.53
-29.84
-32.01
-30.96
-26.32
-18.53
-8.76
1.59
11.28
19.45
25.68
29.78
31.67
31.42
29.33
25.96
22.15
18.70
16.09
14.32
13.02
11.56
9.51
6.76
3.64
0.66
-1.78
-3.60
-5.04
-6.52
-8.48
-11.18
-14.71
-18.93
-23.46
-27.64
-30.50
-31.02
-28.43
-22.54
-14.00
-4.06
5.79
14.31
20.81
25.13
27.44
27.96
26.88
24.46
21.07
17.29
13.77
10.99
9.08
7.79
6.70
5.39
3.70
1.78
-0.07
-1.56
-2.65
-3.56
-4.78
-6.76
-9.82
-13.96
-18.82
-23.73
-27.77
-29.94
-29.39
-25.66
-18.90
-9.84
0.34
10.28
18.86
25.34
29.43
31.19
30.83
28.75
25.42
21.41
17.36
13.81
11.10
9.31
8.20
7.42
6.61
5.56
4.23
2.69
1.02
-0.80
-2.81
-5.15
-7.99
-11.55
-15.93
-20.97
-26.07
-30.20
-32.18
-31.05
-26.50
-19.07
-9.93
-0.45
8.21
15.38
20.79
24.36
26.10
26.07
24.46
21.75
18.64
15.80
13.71
12.48
11.83
11.27
10.34
8.72
6.39
3.57
0.66
-1.96
-4.04
-5.67
-7.20
-9.17
-12.07
-16.05
-20.78
-25.45
-28.92
-30.08
-28.24
-23.32
-15.89
-7.01
2.19
10.69
17.77
23.03
26.23
27.32
26.36
23.69
19.90
15.78
12.13
9.46
7.87
7.09
6.62
5.99
4.92
3.39
1.59
-0.25
-1.96
-3.60
-5.31
-7.41
-10.20
-13.83
-18.23
-23.00
-27.39
-30.42
-31.09
-28.75
-23.32
-15.45
-6.30
2.81
10.73
16.77
20.71
22.65
22.76
21.26
18.44
14.79
10.93
7.55
5.14
3.81
3.34
3.31
3.28
2.93
2.18
1.07
-0.34
-2.02
-4.05
-6.63
-9.97
-14.25
-19.41
-24.96
-29.94
-33.15
-33.43
-30.16
-23.52
-14.47
-4.41
5.25
13.46
19.68
23.70
25.53
25.24
23.07
19.49
15.30
11.40
8.48
6.79
6.00
5.47
4.56
2.95
0.70
-1.82
-4.25
-6.32
-8.02
-9.57
-11.31
-13.67
-17.02
-21.47
-26.63
-31.58
-34.98
-35.46
-32.27
-25.46
-16.06
-5.60
4.34
12.65
18.79
22.72
24.69
24.97
23.87
21.72
18.97
16.16
13.75
11.96
10.72
9.68
8.39
6.58
4.22
1.60
-0.88
-2.92
-4.53
-5.94
-7.60
-9.93
-13.11
-17.01
-21.12
-24.65
-26.73
-26.62
-23.92
-18.65
-11.37
-2.97
5.53
13.18
19.26
23.35
25.28
25.15
23.31
20.31
16.82
13.48
10.77
8.83
7.51
6.51
5.51
4.34
3.01
1.68
0.48
-0.56
-1.56
-2.79
-4.61
-7.41
-11.37
-16.40
-21.88
-26.80
-29.93
-30.20
-27.13
-21.03
-12.90
-4.07
4.15
10.96
16.01
19.31
20.98
21.14
19.91
17.46
14.28
11.02
8.35
6.69
6.08
6.12
6.20
5.80
4.66
2.84
0.56
-1.89
-4.39
-6.99
-9.85
-13.11
-16.78
-20.67
-24.36
-27.20
-28.48
-27.58
-24.14
-18.26
-10.57
-2.03
6.28
13.51
19.11
22.81
24.63
24.67
23.16
20.49
17.24
14.06
11.52
9.84
8.85
8.12
7.17
5.74
3.90
1.98
0.37
-0.77
-1.56
-2.40
-3.80
-6.16
-9.68
-14.22
-19.30
-24.15
-27.78
-29.17
-27.58
-22.78
-15.23
-5.99
3.54
11.98
18.31
22.05
23.24
22.29
19.76
16.28
12.47
8.83
5.75
3.39
1.68
0.45
-0.60
-1.65
-2.82
-4.13
-5.54
-7.01
-8.53
-10.09
-11.78
-13.82
-16.47
-19.86
-23.77
-27.48
-29.92
-29.96
-26.84
-20.63
-12.15
-2.75
6.18
13.58
18.90
22.04
23.08
22.22
19.73
16.04
11.79
7.79
4.68
2.80
1.97
1.73
1.50
0.92
-0.07
-1.35
-2.79
-4.41
-6.37
-8.96
-12.39
-16.74
-21.86
-27.32
-32.38
-36.02
-37.16
-34.95
-29.17
-20.43
-10.05
0.26
9.02
15.32
18.99
20.38
20.04
18.52
16.23
13.60
11.03
8.91
7.47
6.62
6.01
5.19
3.86
2.04
-0.03
-2.03
-3.78
-5.32
-6.97
-9.10
-12.05
-15.97
-20.69
-25.66
-29.94
-32.38
-31.92
-28.05
-20.95
-11.60
-1.45
7.98
15.56
20.72
23.48
24.17
23.30
21.41
18.99
16.45
14.11
12.13
10.46
8.97
7.47
5.89
4.31
2.89
1.73
0.76
-0.29
-1.74
-3.86
-6.79
-10.48
-14.80
-19.44
-23.97
-27.67
-29.60
-28.84
-24.81
-17.63
-8.17
2.13
11.75
19.55
24.95
27.97
28.87
28.01
25.73
22.49
18.89
15.66
13.40
12.29
12.04
12.04
11.62
10.43
8.53
6.23
3.95
1.87
-0.08
-2.21
-4.95
-8.66
-13.44
-18.95
-24.40
-28.65
-30.52
-29.19
-24.47
-16.96
-7.79
1.71
10.37
17.47
22.72
26.06
27.56
27.30
25.40
22.18
18.09
13.71
9.53
5.84
2.60
-0.40
-3.35
-6.34
-9.24
-11.84
-13.95
-15.59
-16.86
-18.00
-19.21
-20.66
-22.46
-24.58
-26.79
-28.49
-28.85
-26.94
-22.19
-14.69
-5.29
4.64
13.70
20.81
25.52
27.90
28.30
27.13
24.75
21.55
18.06
14.86
12.44
10.99
10.27
9.82
9.10
7.83
6.01
3.85
1.65
-0.46
-2.55
-4.85
-7.70
-11.37
-15.94
-21.13
-26.24
-30.24
-32.00
-30.72
-26.20
-18.94
-9.94
-0.31
8.95
17.10
23.58
27.99
30.08
29.90
27.87
24.69
21.20
18.07
15.58
13.64
11.91
10.08
7.99
5.67
3.31
1.10
-0.84
-2.60
-4.39
-6.49
-9.24
-12.89
-17.51
-22.87
-28.35
-33.02
-35.77
-35.63
-32.11
-25.41
-16.39
-6.27
3.71
12.67
20.13
25.86
29.82
31.91
32.06
30.41
27.39
23.66
20.00
17.02
15.00
13.84
13.13
12.42
11.37
9.90
8.16
6.37
4.68
3.02
1.11
-1.47
-5.06
-9.82
-15.53
-21.64
-27.22
-31.15
-32.37
-30.16
-24.50
-16.02
-5.95
4.29
13.47
20.80
26.01
29.19
30.58
30.45
29.05
26.73
23.97
21.31
19.18
17.83
17.06
16.46
15.46
13.66
11.04
7.93
4.86
2.21
0.13
-1.70
-3.74
-6.48
-10.18
-14.80
-19.94
-24.96
-29.02
-31.17
-30.62
-26.98
-20.42
-11.79
-2.34
6.68
14.28
19.99
23.72
25.62
25.88
24.69
22.34
19.34
16.31
13.86
12.32
11.61
11.34
10.95
10.03
8.45
6.40
4.15
1.94
-0.21
-2.43
-4.93
-7.85
-11.27
-15.17
-19.40
-23.68
-27.45
-29.90
-30.13
-27.41
-21.61
-13.34
-3.82
5.43
13.14
18.61
21.71
22.68
21.94
19.90
16.98
13.71
10.60
8.12
6.43
5.30
4.28
2.94
1.15
-0.86
-2.68
-3.99
-4.79
-5.38
-6.29
-8.00
-10.79
-14.66
-19.37
-24.41
-29.06
-32.40
-33.44
-31.50
-26.40
-18.64
-9.35
0.09
8.45
14.91
19.18
21.39
21.91
21.15
19.53
17.41
15.13
13.02
11.25
9.84
8.68
7.55
6.29
4.85
3.29
1.69
0.15
-1.32
-2.84
-4.61
-6.95
-10.09
-14.15
-18.98
-24.12
-28.74
-31.76
-32.26
-29.65
-24.04
-16.12
-6.98
2.22
10.53
17.36
22.43
25.63
26.94
26.43
24.35
21.16
17.56
14.29
11.89
10.56
10.11
10.05
9.80
8.92
7.27
5.01
2.48
0.01
-2.25
-4.44
-6.88
-10.00
-14.03
-18.84
-23.83
-28.00
-30.29
-29.79
-26.18
-19.78
-11.44
-2.30
6.55
14.22
20.19
24.12
25.97
25.81
23.93
20.81
17.09
13.42
10.33
8.10
6.77
6.16
5.97
5.89
5.59
4.79
3.33
1.29
-1.05
-3.35
-5.39
-7.26
-9.40
-12.36
-16.45
-21.39
-26.23
-29.63
-30.39
-27.92
-22.46
-14.95
-6.58
1.57
8.82
14.85
19.50
22.63
24.03
23.62
21.53
18.29
14.65
11.36
8.95
7.56
6.96
6.74
6.46
5.86
4.89
3.64
2.25
0.77
-0.82
-2.68
-4.99
-7.88
-11.45
-15.59
-19.97
-23.95
-26.65
-27.17
-24.81
-19.46
-11.67
-2.56
6.51
14.36
20.23
23.90
25.46
25.18
23.40
20.44
16.80
13.08
9.87
7.52
6.05
5.13
4.28
3.17
1.73
0.14
-1.31
-2.49
-3.48
-4.56
-6.06
-8.26
-11.31
-15.13
-19.46
-23.76
-27.27
-29.10
-28.44
-24.91
-18.71
-10.67
-2.07
5.77
11.80
15.48
16.83
16.24
14.30
11.60
8.64
5.83
3.43
1.65
0.52
-0.09
-0.45
-0.88
-1.59
-2.62
-3.87
-5.22
-6.62
-8.23
-10.27
-13.01
-16.57
-20.80
-25.21
-28.93
-30.99
-30.48
-26.96
-20.61
-12.26
-3.14
5.47
12.59
17.70
20.65
21.57
20.74
18.53
15.46
12.08
8.87
6.14
3.93
2.09
0.40
-1.27
-2.97
-4.64
-6.18
-7.56
-8.80
-10.00
-11.42
-13.43
-16.33
-20.23
-24.81
-29.24
-32.35
-33.01
-30.51
-24.84
-16.80
-7.64
1.28
8.88
14.61
18.43
20.58
21.35
20.94
19.48
17.19
14.46
11.79
9.63
8.12
7.11
6.24
5.16
3.74
2.15
0.67
-0.53
-1.52
-2.68
-4.52
-7.47
-11.65
-16.82
-22.27
-27.01
-29.93
-30.10
-27.10
-21.15
-13.09
-4.14
4.43
11.68
17.16
20.85
22.95
23.63
23.00
21.16
18.35
15.01
11.65
8.69
6.22
4.10
2.05
-0.08
-2.13
-3.72
-4.56
-4.66
-4.44
-4.63
-5.86
-8.52
-12.48
-17.21
-21.86
-25.46
-27.13
-26.24
-22.63
-16.60
-8.91
-0.51
7.63
14.78
20.46
24.40
26.52
26.81
25.48
22.89
19.56
16.05
12.79
10.01
7.78
6.06
4.77
3.84
3.08
2.27
1.14
-0.45
-2.48
-4.79
-7.25
-9.93
-13.07
-16.83
-21.08
-25.10
-27.74
-27.77
-24.46
-17.95
-9.29
-0.04
8.33
14.83
19.08
21.16
21.32
19.86
17.13
13.64
10.04
6.99
4.95
3.97
3.72
3.69
3.39
2.66
1.52
0.21
-1.10
-2.39
-3.80
-5.61
-8.13
-11.54
-15.74
-20.29
-24.31
-26.82
-26.92
-24.11
-18.50
-10.72
-1.82
7.06
14.85
20.75
24.27
25.29
23.97
20.85
16.59
11.99
7.73
4.23
1.65
-0.10
-1.26
-2.11
-2.84
-3.60
-4.43
-5.35
-6.33
-7.42
-8.76
-10.61
-13.22
-16.72
-20.93
-25.26
-28.74
-30.23
-28.80
-24.07
-16.43
-6.92
3.01
11.96
18.92
23.44
25.58
25.73
24.43
22.19
19.47
16.68
14.10
11.90
10.12
8.62
7.26
5.90
4.51
3.06
1.53
-0.12
-1.95
-4.08
-6.65
-9.83
-13.74
-18.34
-23.24
-27.60
-30.26
-30.11
-26.49
-19.59
-10.45
-0.59
8.47
15.69
20.70
23.71
25.10
25.22
24.25
22.29
19.53
16.34
13.23
10.67
8.89
7.74
6.84
5.74
4.19
2.20
-0.01
-2.18
-4.22
-6.32
-8.84
-12.16
-16.32
-20.99
-25.35
-28.33
-28.88
-26.36
-20.72
-12.56
-3.00
6.68
15.28
22.00
26.45
28.64
28.81
27.33
24.63
21.25
17.79
14.76
12.49
10.95
9.84
8.67
7.11
5.11
2.92
0.93
-0.63
-1.89
-3.24
-5.25
-8.32
-12.51
-17.39
-22.18
-25.81
-27.26
-25.81
-21.28
-14.13
-5.36
3.74
11.96
18.46
22.83
25.12
25.58
24.54
22.35
19.46
16.39
13.68
11.69
10.43
9.62
8.77
7.52
5.72
3.56
1.36
-0.61
-2.26
-3.77
-5.47
-7.76
-10.99
-15.20
-20.06
-24.82
-28.40
-29.68
-27.89
-22.86
-15.20
-6.08
3.14
11.23
17.42
21.39
23.21
23.06
21.29
18.26
14.44
10.41
6.76
3.92
2.09
1.18
0.85
0.71
0.43
-0.16
-1.11
-2.38
-3.95
-5.84
-8.12
-10.87
-14.04
-17.42
-20.56
-22.83
-23.51
-22.02
-18.16
-12.25
-4.96
2.72
9.85
15.64
19.62
21.53
21.38
19.36
15.93
11.83
7.87
4.77
2.85
1.89
1.23
0.13
-1.93
-5.02
-8.86
-12.99
-17.11
-21.15
-25.30
-29.76
-34.66
-39.88
-45.07
-49.64
-52.84
-53.84
-51.94
-46.85
-38.87
-28.84
-17.95
-7.36
2.17
10.29
17.01
22.39
26.35
28.69
29.16
27.79
24.98
21.42
17.86
14.87
12.59
10.76
8.86
6.35
3.00
-1.07
-5.45
-9.56
-12.95
-15.44
-17.14
-18.28
-18.96
-18.99
-17.85
-14.83
-9.41
-1.51
8.32
19.03
29.33
38.10
44.63
48.74
50.63
50.74
49.55
47.48
44.93
42.14
39.34
36.66
34.15
31.79
29.51
27.14
24.50
21.50
18.11
14.49
10.91
7.64
4.78
2.22
-0.32
-3.08
-5.99
-8.54
-9.95
-9.45
-6.59
-1.43
5.46
13.22
20.98
28.05
33.92
38.21
40.70
41.31
40.21
37.83
34.72
31.40
28.19
25.13
22.05
18.77
15.21
11.46
7.76
4.40
1.54
-0.72
-2.46
-3.84
-5.12
-6.63
-8.70
-11.49
-14.89
-18.43
-21.32
-22.74
-22.06
-19.14
-14.31
-8.30
-1.93
4.14
9.48
13.87
17.18
19.23
19.86
19.00
16.80
13.75
10.53
7.89
6.34
5.89
6.13
6.30
5.64
3.73
0.64
-3.18
-7.12
-10.69
-13.78
-16.69
-19.89
-23.81
-28.42
-33.20
-37.28
-39.73
-39.99
-38.09
-34.64
-30.44
-26.35
-22.88
-20.32
-18.83
-18.60
-19.79
-22.43
-26.20
-30.44
-34.26
-36.82
-37.54
-36.23
-33.05
-28.40
-22.85
-17.01
-11.47
-6.72
-3.03
-0.43
1.23
2.23
2.87
3.42
4.19
5.53
7.84
11.47
16.55
22.84
29.72
36.33
41.79
45.38
46.72
45.71
42.54
37.67
31.75
25.63
20.18
16.04
13.52
12.46
12.38
12.69
12.94
12.76
12.03
10.71
8.89
6.69
4.29
1.83
-0.69
-3.35
-6.16
-8.91
-11.09
-12.03
-11.19
-8.48
-4.31
0.43
4.79
8.01
9.66
9.65
8.05
5.01
0.76
-4.38
-9.83
-14.89
-18.89
-21.42
-22.47
-22.48
-22.05
-21.75
-21.94
-22.65
-23.69
-24.85
-26.04
-27.27
-28.60
-29.96
-31.06
-31.38
-30.41
-27.79
-23.55
-18.09
-12.14
-6.53
-1.94
1.15
2.53
2.25
0.57
-2.17
-5.50
-9.01
-12.34
-15.23
-17.55
-19.26
-20.36
-20.85
-20.76
-20.12
-19.07
-17.81
-16.73
-16.28
-16.87
-18.73
-21.66
-25.07
-28.01
-29.46
-28.63
-25.20
-19.41
-12.02
-4.10
3.24
9.08
12.90
14.54
14.20
12.27
9.25
5.64
1.91
-1.55
-4.47
-6.69
-8.23
-9.27
-10.01
-10.66
-11.31
-11.99
-12.70
-13.57
-14.76
-16.47
-18.70
-21.11
-23.01
-23.49
-21.78
-17.58
-11.20
-3.56
4.23
11.15
16.63
20.53
22.95
24.02
23.80
22.27
19.59
16.14
12.47
9.19
6.67
4.97
3.86
3.01
2.16
1.17
-0.04
-1.55
-3.53
-6.19
-9.64
-13.75
-18.04
-21.68
-23.66
-23.02
-19.30
-12.75
-4.35
4.47
12.30
18.18
21.77
23.32
23.36
22.35
20.54
18.04
14.96
11.64
8.56
6.15
4.61
3.76
3.06
1.94
0.05
-2.61
-5.76
-9.10
-12.53
-16.17
-20.10
-24.02
-27.16
-28.37
-26.67
-21.69
-13.93
-4.66
4.60
12.59
18.64
22.67
24.91
25.63
24.98
23.00
19.77
15.59
11.02
6.77
3.46
1.40
0.49
0.27
0.15
-0.38
-1.53
-3.33
-5.67
-8.49
-11.81
-15.56
-19.37
-22.51
-24.00
-22.94
-18.93
-12.22
-3.78
5.10
13.14
19.47
23.68
25.82
26.10
24.78
22.20
18.72
14.87
11.19
8.14
5.93
4.42
3.25
2.00
0.43
-1.48
-3.59
-5.76
-8.02
-10.54
-13.53
-16.94
-20.34
-22.93
-23.77
-22.13
-17.76
-11.04
-2.85
5.75
13.72
20.34
25.16
28.00
28.84
27.81
25.25
21.69
17.78
14.19
11.37
