1537878403.00
64.000000
-0.00
-0.00
-0.00
-0.00
-0.00
-0.00
-0.00
-0.00
-0.00
-0.00
0.00
0.01
0.01
-0.00
-0.03
-0.05
-0.05
0.00
0.13
0.36
0.66
1.01
1.37
1.72
2.06
2.40
2.79
3.24
3.80
4.42
5.06
5.68
6.23
6.73
7.25
7.85
8.59
9.58
10.72
11.92
13.05
14.06
15.00
16.02
17.35
19.13
21.59
24.53
27.68
30.74
33.56
36.19
38.98
42.35
46.65
52.25
58.82
65.84
72.72
79.10
85.08
91.14
98.03
106.30
116.50
128.14
140.43
152.46
163.65
174.06
184.34
195.88
207.43
221.31
238.11
257.95
279.58
300.05
315.03
319.93
311.42
288.72
254.27
211.91
165.96
119.56
74.18
30.01
-13.04
-54.67
-93.98
-129.50
-160.45
-186.46
-207.48
-223.82
-235.49
-242.28
-243.81
-240.01
-231.16
-218.41
-203.22
-187.08
-171.18
-156.10
-141.94
-128.44
-115.42
-102.34
-89.24
-76.47
-64.48
-53.74
-44.46
-36.68
-30.27
-25.02
-20.78
-17.63
-15.75
-15.41
-16.82
-20.11
-25.17
-31.65
-38.98
-46.46
-53.40
-59.20
-63.51
-66.29
-67.89
-68.90
-70.03
-72.07
-75.47
-80.35
-86.43
-93.26
-100.37
-107.93
-116.75
-128.08
-142.82
-160.77
-180.14
-197.63
-208.86
-209.24
-195.15
-165.49
-122.53
-72.27
-23.31
15.47
37.46
40.03
24.69
-3.74
-38.37
-71.36
-95.20
-104.04
-95.69
-73.03
-44.00
-19.53
-9.13
-16.80
-39.62
-69.76
-97.96
-117.17
-123.55
-115.82
-94.05
-59.58
-16.01
30.00
69.71
95.29
103.05
95.02
78.03
60.44
48.52
44.53
47.05
52.98
59.61
65.50
70.23
73.83
75.96
76.17
73.90
68.88
61.32
51.82
41.12
30.06
19.38
9.41
0.18
-8.46
-16.75
-24.79
-32.38
-38.78
-42.96
-43.81
-40.78
-33.95
-24.16
-12.95
-2.16
6.74
13.13
17.41
20.65
23.56
26.41
28.94
29.92
27.51
19.36
2.72
-25.12
-65.74
-118.74
-180.19
-242.64
-297.95
-340.34
-368.79
-387.49
-403.98
-422.18
-444.59
-470.43
-495.90
-517.12
-531.78
-539.34
-540.16
-534.21
-520.32
-497.10
-466.64
-429.24
-385.52
-336.81
-284.85
-231.30
-177.32
-123.60
-70.93
-19.87
29.58
76.86
120.64
159.41
191.91
217.57
236.83
250.96
262.06
272.93
285.50
300.59
317.96
337.21
358.59
383.50
413.40
448.39
486.17
521.81
549.98
567.73
575.87
577.78
576.55
572.73
564.11
547.96
523.69
493.74
462.26
432.37
404.36
376.09
345.63
313.32
282.24
256.54
238.32
225.98
214.87
199.44
175.09
140.16
96.60
50.36
11.19
-9.91
-4.59
29.31
86.18
154.04
220.15
276.09
316.64
343.08
359.21
367.47
367.03
354.99
328.44
288.22
238.66
185.21
132.08
80.22
28.03
-26.65
-81.61
-136.30
-189.11
-238.34
-283.48
-325.82
-369.04
-418.39
-477.27
-544.87
-616.09
-680.53
-725.18
-738.67
-714.97
-655.53
-568.61
-469.00
-368.64
-277.16
-200.68
-142.14
-101.35
-74.99
-57.03
-40.48
-18.91
11.53
49.97
92.48
133.99
170.47
199.65
220.83
233.94
239.32
237.80
230.21
217.90
202.08
184.09
164.83
145.52
125.77
105.12
83.64
61.79
40.63
21.28
4.90
-7.68
-16.37
-21.78
-24.90
-27.00
-29.17
-32.50
-38.97
-50.90
-70.46
-98.60
-134.17
-173.99
-213.83
-249.97
-277.04
-293.56
-300.95
-302.03
-299.60
-295.28
-289.99
-284.24
-278.25
-271.87
-264.94
-256.66
-245.87
-233.53
-219.44
-203.39
-184.91
-163.18
-137.51
-108.13
-76.02
-43.08
-11.60
16.75
41.18
62.39
82.48
104.13
129.26
156.85
184.56
209.01
227.26
237.82
241.55
241.84
243.72
252.26
270.82
299.31
332.97
362.95
378.09
368.13
327.76
259.16
172.17
82.17
5.83
-44.24
-63.39
-56.06
-33.49
-9.27
5.20
3.36
-15.96
-49.69
-92.15
-136.08
-173.58
-197.46
-202.34
-186.39
-151.93
-104.22
-50.37
1.64
43.65
68.55
71.65
54.48
26.32
2.48
-1.11
24.17
74.46
134.71
186.09
214.61
218.27
206.07
187.55
169.74
153.78
136.29
114.37
94.30
82.23
82.55
95.24
115.77
135.59
149.57
157.74
163.73
170.55
176.26
174.76
159.42
128.11
86.54
46.42
19.01
9.06
12.53
18.87
18.58
8.92
-4.67
-12.12
-5.54
14.36
36.91
45.79
26.51
-25.77
-103.57
-190.26
-267.32
-321.63
-349.60
-355.93
-348.59
-333.24
-310.45
-277.15
-231.19
-175.44
-118.46
-71.41
-42.76
-34.14
-39.58
-47.99
-48.31
-33.68
-3.45
37.59
82.51
125.32
162.77
194.45
221.24
243.40
260.02
269.44
270.10
261.93
247.41
228.47
206.38
181.42
153.02
120.62
84.62
46.68
10.10
-21.51
-45.79
-62.35
-73.06
-81.14
-89.51
-97.53
-103.36
-104.15
-97.61
-83.63
-64.73
-45.63
-32.36
-30.23
-42.59
-69.54
-106.58
-144.68
-172.07
-177.51
-154.69
-106.41
-44.51
12.03
43.75
38.30
-4.43
-72.43
-146.07
-206.11
-240.69
-246.43
-228.08
-193.82
-151.29
-106.46
-64.59
-31.23
-12.00
-11.05
-27.32
-56.09
-90.44
-124.16
-154.18
-180.79
-205.84
-226.91
-248.28
-267.65
-283.21
-293.64
-298.15
-296.15
-287.25
-271.72
-250.98
-228.00
-204.55
-182.19
-160.93
-139.76
-117.60
-94.17
-70.09
-46.28
-23.62
-0.59
25.27
56.90
96.14
142.39
192.71
242.97
289.80
330.80
365.02
390.99
406.74
410.93
404.63
392.00
378.69
368.86
361.93
353.25
336.71
309.17
272.85
234.29
200.27
172.49
148.13
121.17
86.94
45.36
1.81
-35.62
-60.73
-72.57
-75.83
-78.29
-86.77
-103.63
-125.81
-146.46
-157.81
-154.44
-135.20
-102.98
-62.70
-19.11
24.92
67.96
108.70
144.46
170.87
182.83
176.65
153.71
119.08
81.66
51.52
36.40
38.64
54.07
73.85
87.96
89.38
76.35
52.42
23.70
-4.47
-29.50
-51.46
-71.50
-90.12
-106.44
-118.96
-126.63
-129.78
-130.16
-130.36
-132.52
-137.61
-145.16
-153.73
-161.84
-168.59
-174.11
-179.36
-185.57
-193.32
-202.33
-211.56
-219.40
-224.40
-225.60
-222.84
-216.55
-208.01
-197.87
-186.37
-173.40
-158.78
-142.57
-125.23
-107.53
-90.46
-74.83
-60.88
-48.51
-37.18
-26.35
-15.69
-5.24
4.45
12.72
19.10
23.75
27.37
31.05
35.86
42.19
49.70
57.45
64.33
69.63
73.60
77.34
82.32
89.72
99.72
111.33
122.75
131.94
137.70
140.21
140.91
142.27
147.32
158.91
179.53
210.08
248.72
290.34
327.36
352.07
359.63
350.28
329.36
304.60
283.10
268.70
261.32
258.18
256.12
253.22
248.83
242.44
233.70
220.54
200.16
170.70
132.57
88.64
43.37
0.99
-36.00
-67.70
-96.15
-124.01
-153.57
-186.22
-222.33
-261.08
-300.19
-335.53
-361.56
-372.69
-365.13
-338.67
-297.22
-247.46
-196.83
-151.41
-114.88
-88.71
-73.06
-67.19
-69.48
-76.93
-85.37
-90.58
-89.93
-83.42
-73.46
-63.60
-56.35
-51.72
-46.94
-37.55
-19.34
10.25
51.13
100.47
153.06
202.21
241.26
264.97
270.99
260.16
235.91
202.83
165.06
125.23
84.47
43.14
2.36
-35.37
-65.86
-83.71
-84.14
-64.97
-28.53
17.62
61.86
92.36
101.78
90.31
65.62
38.43
16.75
1.33
-14.33
-39.14
-77.68
-125.25
-168.44
-191.59
-185.37
-153.09
-110.12
-76.12
-64.76
-76.21
-97.45
-110.10
-101.50
-72.73
-37.88
-16.02
-19.68
-46.90
-82.59
-107.51
-109.62
-91.13
-66.42
-52.28
-57.02
-74.89
-89.45
-84.36
-53.81
-7.09
36.20
57.52
50.10
22.95
-4.17
-12.31
6.11
43.06
79.48
96.05
83.78
48.93
9.31
-15.83
-16.16
4.25
29.98
43.81
36.75
13.51
-10.63
-19.10
-4.13
27.90
59.87
73.63
60.33
25.85
-12.90
-37.85
-40.23
-25.36
-8.89
-6.48
-23.83
-52.68
-75.48
-76.29
-50.74
-9.52
26.99
40.20
23.62
-13.23
-49.46
-63.93
-46.02
-1.05
52.23
91.37
101.35
81.94
47.27
17.75
9.10
23.61
49.53
68.48
66.44
42.42
8.59
-17.81
-25.47
-16.47
-4.62
-6.02
-28.29
-64.81
-98.50
-112.62
-101.57
-75.09
-53.05
-53.44
-81.34
-125.30
-163.17
-174.43
-151.17
-101.80
-46.12
-4.55
11.75
4.89
-12.94
-27.27
-28.58
-15.46
6.93
31.85
54.88
75.65
96.38
118.85
141.94
160.65
167.62
156.63
126.19
81.79
34.58
-2.60
-20.52
-17.55
-0.00
21.18
35.89
39.68
34.85
27.28
21.18
15.85
6.13
-13.83
-45.79
-85.65
-125.41
-158.01
-181.47
-198.80
-214.24
-227.93
-233.46
-220.49
-181.41
-117.31
-39.67
33.84
87.34
113.62
116.07
105.85
95.50
93.28
101.20
116.48
134.83
153.49
171.74
189.64
206.54
220.37
228.07
227.39
218.31
202.91
184.82
167.49
152.61
138.92
123.21
100.08
65.71
20.70
-28.86
-73.02
-101.97
-110.42
-99.94
-79.00
-59.35
-50.78
-57.35
-76.69
-102.32
-127.19
-146.05
-155.95
-155.68
-145.77
-127.83
-105.45
-84.36
-70.77
-68.67
-77.71
-92.50
-104.83
-107.21
-95.88
-71.87
-39.77
-5.21
27.40
55.59
78.37
95.28
105.88
110.01
108.39
102.46
94.12
85.15
76.46
67.88
58.28
46.72
32.25
14.89
-4.23
-23.10
-39.52
-51.75
-58.88
-60.82
-58.24
-52.21
-43.77
-33.75
-22.74
-11.24
0.16
10.72
19.64
26.23
30.09
31.35
30.57
28.55
26.08
23.72
21.79
20.31
19.09
17.89
16.61
15.31
14.13
13.19
12.55
12.18
11.99
11.87
11.76
11.72
11.84
12.20
12.86
13.78
14.84
15.99
17.07
18.04
19.04
20.33
22.09
24.39
27.12
29.97
32.54
34.60
36.18
37.70
39.80
42.92
47.24
52.38
57.53
61.61
63.90
64.22
63.02
61.17
59.26
57.18
54.01
48.22
38.31
23.60
4.76
-16.22
-36.13
-52.74
-64.97
-73.19
-78.76
-83.50
-88.54
-94.42
-101.60
-109.32
-116.38
-120.34
-117.71
-105.24
-82.17
-51.82
-21.59
-0.42
5.05
-6.74
-31.60
-61.69
-89.18
-109.26
-120.86
-125.46
-124.79
-120.12
-110.89
-96.82
-78.75
-58.40
-37.64
-17.45
2.28
22.54
44.28
67.18
89.62
108.90
121.77
125.27
118.07
101.50
79.91
60.01
48.49
49.25
61.44
79.89
96.17
103.15
97.98
82.85
63.08
44.22
29.50
19.16
11.69
5.39
-0.02
-3.71
-4.76
-3.06
0.38
3.84
5.66
5.16
2.86
0.18
-1.37
-1.13
0.96
4.02
6.74
8.00
7.44
5.46
3.05
1.21
0.53
0.99
1.92
2.47
1.89
-0.10
-3.34
-7.25
-11.22
-14.89
-18.25
-21.73
-25.87
-31.20
-37.89
-45.80
-54.45
-63.36
-72.24
-81.23
-90.83
-101.65
-114.24
-128.78
-144.99
-162.19
-179.64
-196.89
-214.14
-232.10
-251.61
-273.36
-297.26
-322.03
-345.42
-364.57
-376.59
-379.17
-371.06
-350.86
-317.52
-270.27
-208.89
-134.20
-48.18
46.29
145.74
246.15
342.79
429.09
496.55
536.11
541.29
511.42
453.95
381.37
307.77
244.50
196.97
164.54
142.65
125.73
109.10
89.77
66.45
40.39
15.76
-1.16
-3.80
11.50
43.33
85.49
129.00
165.05
186.99
191.07
176.34
144.91
102.44
58.23
23.06
5.55
8.42
27.23
52.69
75.53
90.98
99.74
105.20
109.10
108.87
98.75
73.96
34.79
-12.24
-56.98
-90.35
-108.21
-112.41
-108.91
-103.77
-100.24
-98.01
-94.75
-88.49
-79.29
-69.25
-61.21
-57.05
-56.68
-58.34
-59.40
-57.85
-53.14
-46.24
-39.11
-33.64
-30.86
-30.51
-31.29
-31.65
-30.42
-27.39
-23.19
-18.96
-15.71
-13.95
-13.47
-13.59
-13.51
-12.74
-11.21
-9.28
-7.47
-6.19
-5.57
-5.43
-5.45
-5.32
-4.88
-4.18
-3.39
-2.69
-2.21
-1.97
-1.90
-1.92
-1.94
-1.94
-1.89
-1.82
-1.77
-1.71
-1.66
-1.62
-1.57
-1.53
-1.49
-1.45
-1.42
-1.39
-1.36
-1.31
-1.25
-1.18
-1.14
-1.14
-1.21
-1.33
-1.47
-1.58
-1.62
-1.56
-1.42
-1.27
-1.15
-1.12
-1.18
-1.28
-1.36
-1.34
-1.21
-1.00
-0.81
-0.75
-0.87
-1.18
-1.56
-1.85
-1.90
-1.66
-1.23
-0.85
-0.80
-1.26
-2.21
-3.35
-4.26
-4.57
-4.13
-3.19
-2.25
-1.95
-2.66
-4.33
-6.40
-8.05
-8.56
-7.64
-5.76
-3.79
-2.86
-3.61
-5.99
-9.11
-11.71
-12.81
-11.98
-9.68
-6.88
-4.68
-3.91
-5.07
-8.47
-13.99
-20.36
-24.90
-23.97
-14.36
4.55
29.93
55.91
75.76
84.60
81.29
68.40
49.97
30.80
13.20
-2.56
-17.02
-30.29
-41.58
-49.73
-54.10
-55.27
-54.60
-53.91
-54.57
-56.79
-59.72
-61.85
-61.67
-58.09
-50.91
-40.49
-27.94
-14.38
-0.64
12.77
25.73
38.25
50.20
61.07
70.09
75.98
77.49
73.81
64.86
51.51
35.47
19.05
4.56
-6.14
-12.27
-14.02
-12.19
-7.61
-0.88
7.93
18.99
31.71
46.03
61.47
77.56
93.61
108.15
118.35
120.44
111.09
89.46
58.54
24.49
-5.44
-25.78
-34.97
-35.19
-30.62
-25.00
-20.06
-15.41
-10.10
-3.74
2.92
8.51
12.08
13.91
15.04
16.73
19.81
23.88
27.64
29.49
27.99
22.78
14.53
4.63
-5.32
-14.03
-21.00
-26.40
-30.34
-33.73
-36.82
-39.44
-41.26
-41.95
-41.37
-39.82
-37.79
-35.83
-34.36
-33.60
-33.08
-32.44
-31.38
-29.73
-27.66
-25.48
-23.48
-21.93
-20.76
-19.71
-18.67
-17.40
-15.98
-14.63
-13.66
-13.29
-13.55
-14.16
-14.65
-14.66
-14.00
-12.88
-11.87
-11.59
-12.48
-14.52
-17.18
-19.59
-20.98
-21.05
-20.16
-19.25
-19.44
-21.46
-25.30
-30.10
-34.53
-37.56
-38.68
-38.31
-37.50
-37.40
-38.92
-42.68
-49.01
-57.71
-67.39
-75.17
-76.98
-69.06
-49.98
-21.89
9.68
37.96
57.59
66.75
67.26
62.98
57.49
52.57
48.18
43.47
38.17
33.01
29.29
27.74
28.05
28.90
28.75
26.47
22.11
16.70
11.64
8.13
6.43
5.96
5.55
4.03
0.87
-3.63
-8.47
-12.58
-15.26
-16.69
-17.70
-19.39
-22.59
-27.33
-32.81
-37.78
-41.19
-42.76
-43.22
-43.96
-46.33
-51.01
-57.44
-63.87
-68.13
-68.49
-64.34
-56.42
-46.37
-35.25
-23.38
-9.96
6.49
27.35
52.90
82.29
113.75
144.91
172.55
192.09
198.44
187.75
160.06
120.63
78.90
44.97
25.92
23.02
31.62
43.59
50.65
47.10
30.60
2.03
-35.84
-78.82
-122.40
-162.52
-195.68
-218.97
-229.93
-227.20
-209.58
-181.22
-149.09
-121.24
-104.03
-99.45
-104.25
-111.02
-112.47
-104.26
-86.18
-60.85
-31.77
-1.58
28.53
57.15
83.83
107.66
127.30
141.06
148.21
149.03
144.87
137.65
129.25
121.16
113.84
107.08
100.16
92.69
84.66
76.52
68.76
61.84
56.02
51.06
46.55
42.01
37.25
32.35
27.61
23.33
19.68
16.72
14.19
11.86
9.50
7.07
4.63
2.39
0.49
-1.00
-1.67
-2.02
-2.26
-2.49
-2.69
-2.84
-2.78
-2.45
-1.89
-1.17
-0.51
0.01
0.40
0.80
1.39
2.39
3.93
5.84
7.78
9.24
9.85
9.45
8.57
7.39
6.39
6.00
6.22
6.74
7.02
6.74
5.93
5.20
5.44
7.54
11.89
18.08
24.97
31.12
35.46
37.62
38.22
38.40
39.37
41.96
46.37
52.22
58.38
63.16
64.45
60.13
48.81
30.64
7.73
-16.33
-37.57
-53.29
-62.91
-67.92
-70.91
-74.19
-78.48
-82.70
-84.53
-81.99
-74.77
-64.69
-54.93
-48.57
-47.12
-48.92
-51.56
-51.94
-48.16
-40.50
-31.00
-21.97
-14.64
-8.73
-3.04
3.37
10.44
17.12
21.88
23.73
22.70
19.83
16.78
14.99
15.17
17.23
20.52
24.17
27.63
30.78
34.02
37.85
42.52
47.72
52.52
55.98
57.06
55.04
49.81
41.77
31.66
20.36
9.07
-1.81
-11.84
-20.75
-28.39
-34.60
-39.20
-42.11
-43.31
-42.91
-41.32
-39.01
-36.56
-34.50
-33.11
-32.42
-32.15
-31.82
-30.86
-29.17
-26.96
-24.80
-23.42
-23.33
-24.53
-26.48
-28.56
-29.62
-29.27
-27.88
-26.41
-26.08
-27.72
-31.38
-36.17
-40.66
-43.61
-44.42
-43.52
-42.03
-41.33
-42.51
-46.31
-52.98
-62.06
-71.85
-79.18
-79.95
-70.60
-50.04
-20.92
10.99
38.95
58.02
66.94
68.03
65.24
61.78
58.66
54.93
49.31
41.78
33.99
28.43
26.89
29.19
33.34
36.41
35.97
31.26
23.49
15.08
8.50
5.47
6.51
11.34
19.05
27.91
35.33
38.18
33.63
20.79
1.90
-17.89
-32.20
-35.82
-27.68
-10.64
10.31
30.37
46.95
59.65
69.04
75.32
77.72
74.78
65.84
51.63
34.18
16.06
-0.54
-14.69
-26.49
-36.83
-46.85
-57.07
-67.24
-76.65
-84.30
-89.54
-92.35
-92.93
-91.71
-88.90
-84.27
-77.17
-66.83
-52.71
-34.18
-12.87
9.60
31.48
51.27
68.01
81.40
91.52
98.89
104.08
107.36
109.04
109.07
107.35
103.64
97.93
89.74
78.86
65.26
49.09
30.93
11.45
-8.33
-27.16
-43.81
-57.38
-67.19
-73.01
-75.06
-73.91
-70.42
-65.47
-59.70
-53.52
-46.97
-39.88
-31.89
-22.56
-11.99
-0.50
11.45
23.39
34.85
45.29
53.99
60.48
64.69
66.28
65.43
62.89
60.11
58.81
60.68
66.45
76.13
89.20
103.54
116.64
126.56
132.26
133.74
131.70
126.61
119.20
110.24
98.58
82.58
60.57
31.02
-7.85
-53.58
-105.09
-161.41
-211.40
-246.43
-262.69
-262.57
-252.07
-237.00
-220.71
-204.76
-188.93
-172.39
-155.80
-140.59
-127.95
-118.57
-112.54
-109.47
-109.16
-110.66
-112.31
-112.78
-110.33
-103.02
-89.43
-69.33
-44.09
-16.70
9.51
31.83
47.91
56.45
57.26
50.88
38.58
22.47
5.12
-10.50
-21.92
-28.43
-31.33
-33.44
-38.17
-48.06
-62.91
-80.41
-96.47
-106.89
-108.42
-100.46
-82.97
-58.36
-31.19
-7.49
6.65
7.72
-2.89
-18.18
-26.84
-18.22
12.04
59.80
114.13
162.18
194.79
209.50
210.02
202.63
192.40
181.07
167.97
152.41
135.16
118.75
106.20
99.12
96.80
96.56
95.04
89.75
80.51
69.10
58.90
51.88
48.98
49.48
51.44
52.55
51.27
47.51
42.43
37.75
34.79
34.07
35.04
36.33
36.71
34.48
28.88
19.92
8.19
-5.83
-21.38
-37.91
-54.85
-71.41
-86.48
-98.62
-106.33
-108.28
-103.92
-93.20
-76.88
-56.33
-33.98
-11.70
8.76
26.01
40.19
50.08
55.21
55.34
50.55
41.01
27.36
10.52
-8.06
-26.31
-42.26
-53.84
-59.70
-59.28
-52.94
-41.70
-26.97
-10.80
6.17
23.30
41.21
58.42
72.82
82.07
84.00
77.29
62.59
42.23
19.55
-2.08
-20.24
-34.45
-45.55
-55.01
-64.07
-72.26
-77.64
-77.70
-70.35
-54.21
-29.84
1.10
35.43
65.95
85.78
88.50
70.76
35.11
-6.42
-42.72
-62.86
-60.88
-38.54
-4.28
30.30
55.30
62.43
52.43
30.97
4.65
-22.45
-49.02
-74.61
-98.12
-117.19
-129.03
-131.90
-126.64
-115.82
-102.66
-89.52
-76.44
-61.59
-42.42
-17.22
12.46
43.45
71.78
93.85
107.80
114.18
115.39
114.46
113.73
114.15
115.11
115.17
112.94
108.09
101.55
94.93
89.93
87.81
89.37
94.56
101.75
107.38
106.66
95.23
71.40
37.49
-0.24
-34.10
-58.00
-69.86
-71.87
-68.48
-63.87
-60.04
-56.77
-52.88
-47.73
-41.86
-36.35
-32.06
-28.68
-25.17
-20.27
-13.22
-4.53
4.22
11.03
14.21
12.87
7.41
-1.04
-11.03
-21.38
-31.32
-40.42
-48.34
-54.34
-57.42
-56.44
-50.60
-40.14
-26.46
-11.75
1.55
11.32
16.40
16.74
13.04
6.38
-1.96
-11.94
-23.61
-36.62
-50.23
-63.09
-73.55
-80.43
-83.34
-83.03
-81.10
-79.36
-79.20
-81.54
-86.80
-94.55
-103.18
-109.50
-109.32
-99.08
-77.64
-47.60
-14.83
13.82
33.31
42.35
43.26
40.01
35.77
31.57
26.50
19.42
10.37
1.24
-5.23
-6.95
-3.65
3.27
11.56
19.44
26.47
33.77
43.25
56.45
73.77
94.06
115.87
137.34
156.06
168.82
171.95
162.56
140.19
107.89
72.21
40.16
17.42
6.05
4.33
8.15
13.53
18.22
21.67
24.35
26.40
27.07
25.16
19.67
10.36
-2.24
-17.23
-33.58
-50.16
-66.30
-81.38
-94.87
-106.36
-115.75
-123.07
-128.35
-132.30
-135.23
-138.00
-141.68
-145.25
-146.09
-139.97
-122.69
-92.25
-50.76
-4.19
39.49
73.38
94.20
102.69
102.31
97.08
89.79
81.57
72.43
62.96
53.95
46.27
40.07
34.49
28.24
20.42
10.98
1.15
-7.35
-13.35
-16.51
-17.65
-18.19
-19.45
-22.00
-25.18
-27.52
-27.02
-21.89
-10.66
7.18
30.16
54.47
74.45
84.00
79.97
63.57
40.23
17.46
1.62
-4.56
-2.46
4.06
11.18
16.90
21.03
24.35
27.19
28.95
28.39
24.82
18.51
10.62
2.57
-4.85
-12.41
-22.14
-36.04
-53.96
-72.63
-86.01
-87.35
-72.71
-43.17
-4.88
33.29
62.24
76.03
72.52
53.15
22.44
-13.09
-45.55
-67.72
-75.30
-68.47
-51.64
-31.78
-15.48
-6.72
-6.28
-12.70
-23.63
-36.42
-48.45
-57.11
-60.57
-58.21
-51.29
-42.35
-33.77
-27.02
-22.29
-18.63
-14.79
-9.51
-1.52
10.37
26.97
48.40
73.50
100.63
127.50
150.54
165.51
168.49
157.26
132.94
100.60
66.86
38.60
20.06
11.77
11.09
14.30
18.22
21.06
22.31
21.42
17.78
10.65
-0.21
-14.21
-29.66
-44.84
-58.53
-70.34
-81.01
-91.91
-104.66
-119.53
-135.96
-150.62
-158.20
-153.56
-134.40
-103.09
-66.30
-32.70
-9.46
0.42
-1.16
-9.12
-18.30
-25.61
-30.59
-34.38
-38.15
-42.13
-45.51
-46.97
-45.18
-39.42
-29.51
-15.83
1.08
20.44
41.18
62.30
82.33
100.47
116.13
128.85
138.53
145.66
151.36
156.77
161.89
165.23
162.82
150.53
126.35
92.13
53.49
17.92
-8.37
-22.86
-26.96
-24.53
-19.42
-13.90
-8.47
-2.80
2.98
7.96
11.00
11.79
11.28
11.19
12.88
16.61
20.84
22.97
20.50
12.12
-1.65
-18.74
-36.58
-53.01
-66.80
-78.45
-89.10
-99.79
-111.10
-123.05
-135.09
-145.68
-152.21
-151.75
-141.21
-119.62
-89.08
-54.48
-21.94
3.43
19.27
26.12
26.24
22.00
15.06
6.57
-2.11
-9.00
-12.21
-10.87
-6.31
-1.74
-0.39
-3.86
-11.08
-18.31
-20.70
-14.50
1.74
26.73
56.47
85.21
105.86
112.01
100.47
73.37
38.94
9.23
-4.42
3.13
28.18
59.11
81.58
84.90
66.69
33.37
-4.06
-33.70
-49.17
-50.43
-42.03
-29.27
-16.19
-5.19
2.75
7.42
9.42
10.02
11.78
17.51
28.50
43.40
58.36
69.55
74.06
70.05
56.12
31.42
-3.29
-44.03
-83.16
-111.26
-121.03
-111.21
-87.57
-60.45
-39.60
-30.04
-30.92
-37.38
-44.25
-48.58
-50.61
-52.10
-54.67
-58.65
-63.32
-67.78
-71.43
-74.37
-77.15
-80.03
-82.74
-84.14
-82.67
-76.90
-66.08
-50.41
-31.05
-9.65
12.07
32.35
50.29
65.56
78.07
87.74
94.42
97.95
98.32
95.81
91.53
86.09
80.26
74.66
69.60
65.09
60.97
57.04
53.16
49.33
45.61
42.11
38.80
35.60
32.41
29.28
26.36
23.91
22.11
20.96
20.24
19.55
18.51
16.94
15.02
13.26
12.29
12.50
13.90
15.96
17.79
18.58
17.98
16.42
14.96
14.89
17.05
21.47
27.24
32.73
36.55
38.07
37.84
37.27
38.24
41.59
47.33
54.69
62.18
67.82
69.29
64.30
51.61
31.97
8.19
-15.43
-34.81
-47.72
-54.39
-57.24
-59.26
-62.52
-67.45
-72.60
-75.29
-72.87
-63.95
-49.41
-33.06
-20.37
-16.32
-22.41
-35.30
-48.23
-54.08
-49.18
-34.77
-16.06
0.88
12.20
17.26
17.52
14.68
9.13
0.17
-11.94
-25.67
-37.96
-45.37
-45.75
-39.06
-27.37
-13.84
-1.44
7.85
13.52
16.49
18.43
20.69
23.90
27.83
31.82
34.67
35.90
35.37
33.40
30.52
26.91
22.44
16.84
10.04
2.34
-5.36
-11.93
-16.33
-18.16
-18.21
-17.94
-18.85
-21.71
-26.15
-30.64
-33.18
-32.19
-27.25
-20.13
-13.42
-9.56
-9.72
-13.52
-19.31
-24.96
-28.31
-28.00
-24.81
-20.01
-15.19
-11.25
-8.26
-5.00
0.46
10.58
29.91
58.65
94.59
133.00
167.15
188.94
191.13
169.94
127.86
73.54
17.11
-31.91
-68.34
-92.87
-110.88
-128.68
-150.46
-175.42
-188.96
-179.19
-143.09
-89.50
-32.23
18.54
60.56
96.22
129.88
162.64
191.26
211.82
221.42
220.78
212.95
203.29
194.77
189.10
183.31
172.23
152.12
121.22
79.69
28.39
-23.75
-71.53
-111.09
-144.36
-174.92
-205.16
-236.71
-270.56
-306.75
-341.80
-374.86
-381.07
-349.80
-288.11
-215.03
-148.63
-97.59
-73.34
-62.68
-55.33
-46.49
-41.17
-47.17
-61.50
-81.98
-106.99
-134.02
-158.04
-177.37
-190.92
-200.02
-203.61
-197.56
-162.88
-95.44
-9.44
73.00
133.93
169.34
185.04
191.35
196.80
203.25
204.39
192.99
166.81
128.50
85.27
46.74
22.59
17.97
30.53
51.04
70.06
82.86
89.60
93.29
96.89
101.65
107.21
112.06
113.69
111.31
105.94
99.23
91.23
80.86
67.87
54.40
45.20
45.55
60.44
91.95
137.35
186.96
228.58
251.98
252.38
231.37
194.91
151.87
111.09
78.86
54.83
36.02
19.36
2.69
-11.79
-24.39
-36.48
-50.22
-67.60
-93.46
-130.09
-175.61
-224.80
-272.27
-315.94
-356.71
-397.55
-418.45
-408.64
-371.10
-319.96
-268.60
-222.97
-184.03
-150.66
-122.07
-97.79
-81.42
-75.43
-79.66
-91.08
-104.81
-115.98
-119.12
-109.07
-82.66
-44.09
-1.26
37.23
64.27
80.23
87.72
91.20
95.19
103.00
113.32
123.38
130.95
135.73
139.02
141.97
145.36
149.15
153.30
156.15
156.75
156.05
156.96
163.11
176.05
194.49
209.96
215.16
206.00
184.99
160.09
140.65
132.00
132.58
135.87
134.99
127.22
113.81
97.68
79.93
58.50
30.01
-6.90
-49.31
-90.91
-124.67
-147.02
-159.02
-165.73
-173.46
-186.73
-206.78
-231.30
-255.65
-274.99
-287.01
-293.20
-298.25
-307.62
-324.30
-347.00
-370.28
-387.21
-392.24
-383.58
-362.84
-333.75
-300.39
-266.15
-233.72
-205.25
-182.08
-164.37
-150.97
-139.48
-127.27
-112.52
-94.83
-75.22
-55.42
-37.24
-22.07
-10.66
-3.19
0.64
1.65
1.12
0.55
1.22
3.77
8.29
14.48
22.03
30.95
41.48
53.94
68.41
84.55
101.69
119.25
136.96
154.98
173.68
193.22
213.17
232.65
250.86
267.64
283.39
298.05
310.07
316.14
312.57
297.39
271.95
240.63
208.78
180.36
156.74
137.76
123.71
116.71
119.92
135.00
159.62
187.03
208.57
217.59
212.83
198.63
182.32
170.41
165.69
166.66
169.24
169.42
165.27
157.41
148.07
139.47
132.62
126.88
120.57
111.80
99.32
82.82
62.89
40.65
17.63
-4.50
-24.13
-40.09
-52.00
-60.40
-66.37
-70.96
-74.71
-77.55
-79.29
-80.10
-80.67
-81.71
-83.10
-83.37
-79.95
-70.42
-53.97
-32.25
-8.89
11.92
27.13
35.71
38.74
38.83
39.13
42.62
51.25
65.28
83.13
101.78
117.98
129.52
136.11
139.02
140.00
139.87
138.02
132.74
122.48
106.92
87.37
66.17
45.61
27.22
11.40
-2.26
-14.37
-25.45
-35.57
-44.51
-51.80
-57.13
-60.52
-62.49
-64.12
-66.68
-71.42
-79.10
-89.81
-102.76
-116.68
-129.97
-141.34
-150.10
-156.20
-160.14
-162.73
-164.85
-166.88
-168.22
-166.89
-160.16
-145.86
-123.84
-96.74
-69.16
-45.74
-29.06
-18.75
-12.34
-7.20
-2.11
2.39
4.99
4.94
2.75
-0.21
-2.66
-3.98
-4.00
-2.21
2.70
12.27
27.34
47.19
69.64
91.98
111.94
128.12
139.26
143.28
137.11
117.99
85.39
42.73
-2.88
-42.68
-69.58
-80.97
-79.51
-71.76
-65.18
-64.98
-72.19
-83.34
-91.96
-91.30
-77.36
-51.21
-19.53
7.22
18.59
8.60
-21.54
-63.78
-106.58
-139.78
-158.06
-162.08
-156.75
-148.42
-142.24
-140.87
-144.11
-149.28
-152.06
-147.74
-133.11
-107.68
-74.27
-38.13
-4.83
21.42
38.57
46.13
44.00
31.93
10.06
-20.26
-55.67
-91.61
-123.72
-149.12
-166.66
-176.27
-178.11
-172.94
-163.13
-152.64
-145.96
-146.42
-154.13
-165.55
-175.21
-178.39
-173.71
-163.84
-153.12
-144.41
-137.56
-129.55
-116.79
-97.78
-73.86
-48.75
-26.79
-9.63
4.62
19.66
38.75
62.82
90.06
118.16
144.57
165.94
181.36
192.55
201.76
211.13
222.05
234.83
250.85
270.00
287.35
299.94
308.43
314.32
319.36
324.74
330.81
341.10
358.11
377.10
395.05
412.08
427.46
440.26
450.16
457.68
468.26
485.08
500.08
506.47
502.70
488.58
466.30
440.10
385.36
291.22
203.87
141.88
94.62
57.69
26.71
-2.28
-32.76
-67.16
-101.88
-132.73
-164.90
-200.48
-236.33
-271.04
-304.53
-337.31
-369.19
-395.16
-409.41
-415.09
-414.18
-405.84
-392.23
-377.60
-367.23
-365.97
-375.18
-393.87
-425.51
-468.98
-506.83
-519.53
-493.48
-429.11
-340.11
-253.84
-180.76
-129.08
-103.09
-102.14
-121.31
-152.06
-182.38
-199.04
-191.42
-154.47
-94.17
-22.05
49.71
110.96
156.04
183.98
198.15
204.70
211.65
224.35
245.69
275.04
306.93
331.51
336.60
313.60
261.54
189.26
111.54
44.65
0.72
-18.16
-16.76
-7.06
-1.92
-8.20
-24.42
-44.88
-62.45
-75.13
-82.99
-86.00
-83.84
-75.08
-58.20
-33.71
-4.28
26.03
53.29
75.89
95.36
115.13
139.35
170.41
206.52
241.06
264.31
266.87
243.97
197.54
135.17
67.59
4.69
-47.87
-89.96
-126.04
-162.25
-202.95
-248.46
-294.67
-334.45
-360.39
-367.96
-357.36
-333.16
-302.29
-271.43
-245.93
-229.82
-226.08
-236.03
-257.95
-286.22
-311.95
-325.68
-320.34
-294.13
-250.69
-196.96
-140.02
-84.38
-32.29
15.50
58.28
96.53
131.94
167.70
207.11
252.56
305.22
363.41
422.70
475.54
514.07
530.87
521.31
485.14
427.71
359.92
293.28
235.42
186.56
142.44
97.33
49.08
1.47
-43.57
-78.19
-95.39
-87.32
-61.51
-29.36
-3.30
12.12
18.97
22.92
30.18
43.06
59.55
74.22
83.20
84.94
80.52
71.83
60.67
49.31
39.35
31.96
27.01
24.42
23.17
21.71
18.43
12.69
5.76
-0.85
-6.64
-13.52
-23.93
-39.70
-60.13
-81.66
-99.26
-108.84
-110.01
-106.77
-106.15
-114.36
-134.25
-164.41
-200.40
-236.93
-269.33
-293.80
-306.47
-302.84
-278.35
-230.93
-163.37
-84.04
-4.61
64.35
117.42
155.71
184.90
211.40
238.62
265.59
287.99
300.59
299.64
283.43
251.89
205.99
147.82
81.17
12.15
-51.44
-101.97
-134.31
-147.60
-145.44
-134.33
-121.25
-111.79
-109.04
-114.17
-127.30
-147.92
-174.59
-203.92
-230.22
-246.95
-249.66
-238.75
-220.16
-203.17
-195.56
-199.40
-209.80
-217.24
-212.28
-189.68
-150.16
-99.52
-46.31
0.34
31.83
41.15
24.11
-18.88
-81.27
-150.78
-212.16
-251.59
-260.64
-238.50
-191.09
-128.56
-61.94
-0.18
51.34
90.96
119.75
140.37
155.67
167.73
177.79
186.20
192.90
197.63
200.03
199.81
197.42
194.41
193.31
196.64
205.48
218.73
233.25
245.45
253.15
256.84
259.41
264.57
275.14
292.03
314.37
340.23
367.11
391.59
409.65
417.29
411.77
392.89
363.01
326.54
288.14
251.11
216.34
183.13
150.32
116.99
82.59
46.74
9.26
-29.74
-69.76
-110.81
-152.39
-193.15
-230.87
-263.23
-288.51
-305.88
-315.74
-319.97
-322.96
-329.35
-341.86
-359.66
-378.44
-391.72
-393.14
-378.94
-343.55
-289.58
-227.98
-172.58
-132.19
-107.21
-92.68
-83.45
-77.16
-73.70
-74.56
-79.71
-86.53
-90.98
-90.29
-84.18
-74.42
-63.66
-53.33
-44.04
-34.61
-22.11
-3.18
24.25
59.75
100.40
138.70
167.54
181.21
177.81
160.12
134.49
108.20
86.81
72.69
65.15
62.24
61.61
61.71
61.96
62.18
61.67
59.19
53.36
43.52
30.43
15.80
1.82
-9.70
-17.88
-22.99
-26.16
-28.69
-31.45
-34.36
-36.67
-37.48
-36.16
-32.64
-27.45
-21.44
-15.38
-9.80
-4.78
-0.09
4.56
9.29
13.90
17.88
20.61
21.64
20.94
19.14
17.41
17.07
19.24
24.45
32.46
42.29
52.48
61.52
68.22
72.04
73.23
72.66
71.61
71.21
72.09
74.13
76.52
78.13
78.11
76.21
73.01
69.64
67.29
66.76
68.22
71.18
74.72
77.87
79.90
80.70
81.05
82.63
87.72
98.51
116.00
139.08
164.19
185.98
198.76
198.48
184.17
158.37
126.16
93.32
64.25
40.88
22.59
7.27
-7.32
-22.59
-39.31
-58.27
-80.83
-108.25
-140.18
-173.49
-202.54
-221.48
-227.51
-222.86
-213.80
-207.54
-208.79
-218.16
-233.25
-251.49
-272.33
-297.29
-327.66
-361.65
-393.25
-413.95
-416.42
-398.26
-363.31
-319.94
-277.46
-242.19
-215.49
-194.39
-174.11
-151.02
-124.52
-96.96
-71.69
-50.85
-33.98
-18.45
-1.10
20.26
46.09
75.37
106.44
137.70
167.71
195.00
217.97
234.83
244.02
244.54
236.18
219.69
196.77
169.83
141.74
115.34
92.85
75.39
62.73
53.55
46.08
38.75
30.78
22.18
13.53
5.52
-1.52
-7.73
-13.66
-19.92
-26.95
-34.82
-43.34
-52.14
-60.83
-69.05
-76.53
-83.14
-89.05
-94.65
-100.47
-106.82
-113.25
-118.34
-119.66
-114.25
-99.47
-73.86
-37.94
5.47
51.79
95.70
132.80
160.78
179.94
192.53
201.49
209.03
215.89
221.62
225.31
226.54
225.58
223.13
219.74
215.38
209.53
201.68
191.78
180.40
168.44
156.82
146.04
136.13
126.79
117.63
108.36
98.93
89.52
80.48
72.25
65.31
59.91
56.08
53.44
51.35
49.12
46.28
42.84
39.32
36.57
35.34
35.98
38.17
41.02
43.47
44.68
44.47
43.34
42.23
42.13
43.62
46.73
50.86
54.81
56.88
55.20
47.97
34.01
13.19
-13.33
-43.35
-74.20
-103.48
-129.83
-153.11
-174.17
-193.87
-212.12
-227.26
-236.35
-236.47
-226.08
-206.11
-179.76
-151.33
-124.61
-101.72
-82.92
-67.40
-54.34
-43.55
-35.36
-29.97
-26.94
-25.15
-23.43
-21.19
-18.75
-17.25
-18.02
-21.86
-28.45
-36.33
-43.32
-47.38
-47.44
-43.73
-37.63
-30.84
-24.62
-19.24
-14.13
-8.54
-2.22
4.32
10.02
13.91
15.73
16.17
16.51
18.10
21.73
27.29
33.71
39.05
40.75
36.11
23.02
0.98
-27.96
-59.10
-86.10
-102.92
-105.95
-95.25
-74.21
-47.96
-21.35
2.42
21.95
36.91
47.12
52.27
52.27
47.81
40.62
32.96
26.89
23.43
22.41
22.83
23.51
23.69
23.32
22.95
23.34
25.03
27.99
31.59
34.83
36.80
37.12
36.17
34.96
34.69
36.35
40.32
46.28
53.34
60.37
66.31
70.60
73.33
75.23
77.33
80.41
84.52
88.87
92.18
93.43
92.45
89.98
86.95
83.68
79.18
71.32
57.69
36.65
7.77
-28.37
-70.58
-116.92
-163.80
-205.42
-234.26
-243.39
-229.48
-195.12
-148.69
-101.56
-63.98
-41.61
-34.60
-39.14
-50.25
-64.06
-78.47
-92.41
-104.68
-113.50
-116.97
-114.05
-105.20
-92.12
-77.17
-62.20
-47.84
-33.47
-17.79
0.27
20.74
42.40
63.12
80.61
93.07
99.62
100.26
95.50
86.09
72.79
56.44
37.98
18.51
-0.77
-18.73
-34.35
-46.87
-55.81
-61.00
-62.64
-61.42
-58.40
-54.86
-52.02
-50.78
-51.69
-54.97
-60.50
-67.88
-76.35
-84.93
-92.43
-97.97
-101.17
-102.42
-102.63
-102.95
-104.07
-106.06
-108.64
-111.58
-115.07
-119.46
-124.82
-130.44
-135.09
-137.65
-137.65
-135.28
-130.72
-123.21
-110.75
-90.98
-62.55
-26.41
14.11
54.72
92.18
125.57
156.11
185.47
213.90
239.35
258.29
267.33
265.12
253.04
234.81
214.82
196.54
181.29
168.15
154.66
137.98
116.09
88.53
56.47
22.22
-11.52
-42.38
-68.72
-89.60
-104.52
-113.26
-115.86
-112.94
-105.82
-96.41
-86.72
-78.23
-71.41
-65.67
-59.72
-52.17
-42.21
-29.93
-16.41
-3.37
7.28
14.13
16.60
15.09
10.86
5.54
0.78
-2.23
-2.88
-1.10
2.83
8.42
15.18
22.64
30.30
37.60
43.89
48.41
50.47
49.66
45.99
39.97
32.50
24.60
16.91
9.41
1.33
-8.59
-21.66
-38.78
-60.09
-84.93
-111.91
-139.17
-164.55
-185.76
-200.71
-208.03
-207.70
-201.22
-191.06
-179.46
-167.14
-152.65
-132.95
-104.94
-66.93
-19.33
35.75
95.46
156.80
216.65
271.22
315.85
345.64
357.08
349.49
325.62
290.67
250.60
210.28
172.66
139.02
109.65
84.62
63.98
47.44
34.01
22.07
9.81
-4.09
-19.89
-36.66
-52.55
-65.67
-74.74
-79.50
-80.68
-79.57
-77.46
-75.29
-73.54
-72.33
-71.67
-71.55
-71.95
-72.76
-73.68
-74.22
-73.80
-71.89
-68.13
-62.46
-55.13
-46.65
-37.75
-29.18
-21.56
-15.23
-10.35
-6.87
-4.66
-3.65
-3.81
-5.12
-7.43
-10.33
-13.20
-15.30
-15.96
-14.76
-11.66
-7.00
-1.38
4.52
10.11
15.01
19.02
22.11
24.29
25.50
25.60
24.49
22.19
18.96
15.29
11.78
8.90
6.90
5.72
5.18
5.06
5.30
6.01
7.28
8.98
10.56
10.94
8.74
2.74
-7.70
-22.29
-39.76
-58.23
-75.76
-90.81
-102.56
-110.96
-116.48
-119.99
-122.49
-125.03
-128.37
-132.37
-135.57
-135.16
-127.76
-110.64
-83.13
-47.10
-6.42
34.47
72.08
104.76
132.48
155.80
174.95
189.45
198.60
202.25
201.22
197.09
191.21
183.81
173.69
158.79
137.29
108.76
74.65
37.95
2.14
-29.88
-56.50
-77.30
-92.63
-102.85
-108.07
-108.23
-103.36
-94.00
-81.16
-66.11
-49.99
-33.54
-17.17
-1.10
14.39
28.80
41.48
51.82
59.45
64.39
66.93
67.59
66.88
65.24
62.95
60.13
56.79
52.87
48.34
43.27
37.90
32.64
27.97
24.31
21.91
20.80
20.80
21.58
22.80
24.16
25.58
27.12
28.91
30.90
32.55
32.83
30.36
23.92
12.93
-2.18
-20.10
-39.11
-57.72
-75.12
-91.29
-106.65
-121.58
-136.15
-150.17
-163.52
-176.33
-189.07
-202.08
-215.32
-228.14
-239.53
-248.68
-255.26
-259.21
-260.10
-256.61
-246.68
-228.23
-200.10
-162.67
-117.52
-66.48
-10.77
49.41
114.60
185.30
261.13
340.12
418.42
490.57
550.30
591.95
612.03
610.41
590.36
557.42
517.34
474.49
431.30
389.00
348.75
312.36
281.89
258.38
240.43
223.90
202.64
170.38
122.72
58.21
-21.78
-114.08
-214.62
-318.40
-418.87
-507.55
-574.91
-612.54
-615.97
-586.48
-531.08
-460.30
-384.75
-312.37
-247.27
-190.49
-141.66
-100.57
-67.91
-45.06
-33.35
-33.31
-44.19
-63.61
-87.62
-111.27
-129.34
-137.47
-133.62
-119.50
-100.76
-85.43
-80.78
-90.17
-111.54
-138.35
-162.34
-176.58
-177.07
-162.50
-133.19
-90.53
-37.52
20.38
75.25
118.69
145.10
154.25
151.73
146.28
145.87
154.43
171.00
191.32
210.37
224.63
232.96
236.04
235.13
230.89
223.20
211.52
195.71
176.67
156.49
137.94
123.53
114.66
111.03
110.81
111.23
109.47
103.49
92.29
75.74
54.18
28.16
-1.44
-32.82
-63.17
-88.97
-107.05
-115.75
-115.53
-108.55
-97.60
-84.85
-71.26
-56.96
-41.99
-26.99
-13.26
-2.21
5.29
9.21
10.22
9.14
6.64
3.09
-1.13
-5.56
-9.54
-12.46
-13.90
-13.77
-12.19
-9.47
-5.99
-2.09
1.90
5.74
9.36
12.76
16.04
19.18
22.02
24.24
25.54
25.75
25.03
23.76
22.46
21.54
21.10
20.95
20.66
19.81
18.21
15.95
13.40
10.98
9.03
7.62
6.57
5.56
4.26
2.50
0.34
-1.97
-4.08
-5.66
-6.52
-6.66
-6.26
-5.60
-4.93
-4.40
-4.06
-3.84
-3.58
-3.06
-2.09
-0.60
1.28
3.25
4.91
6.00
6.51
6.76
7.19
8.20
9.94
12.31
15.04
17.84
20.53
23.06
25.41
27.53
29.33
30.66
31.40
31.56
31.30
30.86
30.47
30.23
30.07
29.83
29.35
28.60
27.69
26.79
25.96
25.10
24.04
22.62
20.83
18.71
16.25
13.33
9.67
5.16
0.04
-4.90
-8.51
-9.61
-7.46
-1.90
6.64
17.46
29.86
43.28
57.24
71.10
84.01
94.85
102.50
106.19
105.70
101.66
95.40
88.82
84.02
82.85
86.58
95.56
109.17
125.91
143.68
160.06
172.52
178.60
176.18
163.76
140.88
108.22
67.41
20.38
-31.16
-85.75
-141.52
-195.25
-242.14
-276.61
-294.16
-293.36
-276.76
-250.12
-220.23
-192.53
-169.69
-151.88
-138.13
-127.72
-120.83
-118.02
-119.35
-123.69
-128.94
-132.86
-134.17
-132.98
-130.77
-129.63
-131.29
-136.39
-144.28
-153.32
-161.55
-167.48
-170.63
-171.77
-172.70
-175.59
-182.06
-192.37
-205.10
-217.29
-225.32
-225.93
-216.94
-197.65
-168.55
-131.03
-87.15
-39.77
7.54
50.78
86.42
112.52
129.52
140.16
148.36
157.61
169.61
183.76
197.80
209.04
215.51
216.51
212.50
204.58
193.97
181.83
169.43
158.09
149.07
143.10
140.01
138.68
137.42
134.79
130.25
124.43
118.75
114.61
112.48
111.47
109.54
104.49
95.13
82.22
68.42
57.15
50.97
49.87
50.62
47.36
33.28
2.53
-48.12
-118.33
-203.64
-295.71
-383.39
-454.91
-500.69
-516.01
-502.24
-466.11
-416.99
-363.49
-311.04
-261.09
-212.06
-161.29
-106.76
-48.37
11.84
70.01
121.43
161.72
188.14
200.60
201.60
195.29
186.05
177.15
170.20
165.45
162.47
160.69
159.64
158.65
156.72
152.43
144.16
130.44
110.23
83.36
50.77
14.70
-21.53
-54.05
-79.36
-95.49
-102.59
-103.10
-100.81
-99.46
-101.38
-106.73
-113.60
-119.16
-121.06
-118.47
-112.25
-104.37
-96.87
-91.07
-87.34
-85.03
-82.46
-77.00
-65.30
-44.28
-12.60
28.09
72.87
115.04
148.81
171.96
186.73
198.27
211.47
227.91
245.11
257.88
261.41
253.60
235.67
210.82
182.32
152.45
122.63
94.39
69.98
51.91
41.72
38.86
40.47
42.44
40.96
33.67
20.12
1.46
-20.19
-42.30
-62.44
-78.73
-90.32
-97.57
-101.72
-104.09
-105.29
-104.92
-101.92
-95.51
-85.66
-73.33
-59.93
-46.66
-34.05
-22.04
-10.41
0.86
11.39
20.58
28.00
33.66
38.06
41.94
45.95
50.30
54.74
58.70
61.61
63.12
63.23
62.18
60.31
57.87
54.97
51.66
47.95
43.81
39.17
33.92
28.01
21.61
15.10
8.97
3.63
-0.82
-4.48
-7.60
-10.29
-12.48
-14.05
-15.04
-15.76
-16.71
-18.34
-20.79
-23.90
-27.28
-30.66
-33.97
-37.34
-40.85
-44.43
-47.82
-50.73
-53.12
-55.19
-57.30
-59.75
-62.58
-65.61
-68.65
-71.77
-75.43
-80.37
-87.30
-96.48
-107.39
-118.63
-128.14
-133.67
-133.37
-126.21
-112.18
-92.14
-67.61
-40.35
-12.14
15.50
41.40
64.77
85.09
101.86
114.44
122.02
123.96
120.16
111.48
99.61
86.54
73.91
62.39
51.82
41.68
31.76
22.48
14.79
9.63
7.49
8.36
11.92
17.94
26.39
37.35
50.72
65.97
82.20
98.45
113.96
128.36
141.58
153.66
164.41
173.15
178.62
179.04
172.60
158.05
135.22
105.35
70.92
35.06
0.75
-29.79
-55.39
-75.79
-91.40
-103.03
-111.68
-118.49
-124.60
-130.96
-138.01
-145.62
-153.17
-159.89
-165.28
-169.44
-173.15
-177.60
-183.79
-191.99
-201.29
-209.58
-214.06
-211.91
-201.10
-180.87
-151.93
-116.19
-76.28
-35.10
4.74
41.23
73.18
100.18
122.45
140.46
154.65
165.34
172.86
177.74
180.80
182.95
184.83
186.49
187.43
186.90
184.46
180.22
174.81
168.89
162.67
155.71
147.10
135.95
121.89
105.22
86.72
67.26
47.49
27.72
8.14
-11.06
-29.57
-47.05
-63.29
-78.28
-92.11
-104.79
-116.15
-125.92
-133.96
-140.46
-145.87
-150.62
-154.74
-157.64
-158.33
-155.84
-149.71
-140.17
-127.98
-114.03
-99.06
-83.59
-68.01
-52.86
-38.86
-26.77
-17.20
-10.42
-6.36
-4.68
-4.89
-6.38
-8.50
-10.54
-11.89
-12.19
-11.49
-10.15
-8.68
-7.42
-6.29
-4.87
-2.42
1.76
8.08
16.55
26.70
37.79
48.78
58.71
66.78
72.64
76.51
78.97
80.72
82.12
82.96
82.55
80.23
75.81
69.97
64.00
59.18
56.15
54.50
53.07
50.53
46.12
39.83
32.11
23.35
13.58
2.71
-8.90
-20.08
-28.87
-33.18
-31.64
-24.00
-10.93
6.60
27.75
51.69
76.94
100.86
119.75
129.90
128.96
117.03
96.64
71.68
45.88
21.65
-0.19
-19.87
-37.83
-54.09
-68.20
-79.60
-88.16
-94.39
-99.45
-104.66
-110.99
-118.42
-125.83
-131.30
-132.95
-129.82
-122.49
-112.79
-102.99
-94.77
-88.57
-83.60
-78.67
-72.95
-66.53
-60.23
-54.98
-51.17
-48.45
-45.93
-42.72
-38.43
-33.22
-27.74
-22.66
-18.40
-14.84
-11.50
-7.82
-3.42
1.54
6.48
10.62
13.36
14.56
14.60
14.09
13.63
13.47
13.47
13.33
12.79
11.90
10.97
10.39
10.33
10.67
10.96
10.63
9.26
6.76
3.42
-0.25
-3.71
-6.62
-8.84
-10.45
-11.62
-12.42
-12.91
-13.04
-12.71
-11.77
-10.04
-7.48
-4.28
-0.98
1.72
3.23
3.52
3.30
3.69
5.66
9.51
14.54
19.46
23.08
24.90
25.28
25.14
25.29
26.00
26.90
27.27
26.52
24.46
21.35
17.73
14.09
10.70
7.64
4.90
2.52
0.78
0.03
0.46
1.96
4.03
5.92
6.99
7.02
6.28
5.32
4.60
4.00
2.88
0.27
-4.48
-11.36
-19.57
-27.87
-35.12
-40.75
-44.99
-48.67
-52.88
-58.66
-66.76
-77.57
-91.11
-106.97
-124.06
-140.52
-153.75
-161.11
-160.78
-152.62
-138.57
-121.89
-105.97
-92.82
-82.38
-72.76
-61.37
-46.29
-27.04
-4.58
19.49
43.72
67.22
89.52
110.03
127.77
141.43
149.83
152.43
149.50
141.96
130.96
117.52
102.31
85.79
68.35
50.56
33.05
16.42
0.92
-13.61
-27.61
-41.42
-54.97
-67.61
-78.31
-85.95
-89.94
-90.46
-88.47
-85.15
-81.13
-76.15
-69.08
-58.58
-43.95
-25.85
-6.23
12.24
27.28
37.92
44.87
50.13
56.17
65.29
78.91
97.40
119.96
144.50
167.76
185.36
192.81
187.39
170.47
147.89
127.77
116.31
113.76
113.66
105.52
80.62
37.09
-17.98
-71.93
-112.53
-133.18
-134.27
-120.49
-97.51
-69.39
-38.63
-7.10
22.29
45.34
58.04
58.69
49.62
35.87
23.24
15.56
14.02
16.63
18.97
16.07
2.07
-23.81
-57.15
-88.64
-114.64
-135.38
-152.58
-166.04
-172.89
-168.51
-148.79
-113.41
-66.85
-16.90
29.83
70.12
103.67
130.88
150.64
160.23
156.92
140.70
115.68
89.77
71.08
64.03
67.70
77.16
86.70
92.57
93.91
91.61
86.94
80.23
70.90
58.61
44.33
30.46
19.63
13.17
10.06
7.59
2.68
-6.66
-20.57
-37.57
-55.52
-72.66
-88.11
-101.66
-113.06
-121.66
-126.49
-126.92
-123.14
-116.33
-108.14
-100.08
-92.74
-85.75
-78.01
-68.56
-57.22
-44.99
-33.85
-25.93
-22.73
-24.36
-29.47
-35.62
-40.26
-41.57
-39.18
-34.48
-30.30
-30.02
-36.10
-48.66
-64.86
-79.34
-86.03
-80.42
-61.04
-29.93
8.42
48.74
86.32
117.94
142.30
160.05
173.39
185.10
196.74
206.90
210.95
202.84
178.35
138.30
89.49
42.53
7.70
-8.97
-7.53
7.03
27.80
48.62
65.27
75.02
75.77
66.03
45.76
17.66
-12.75
-38.34
-52.75
-52.73
-39.36
-17.50
5.94
24.42
33.80
33.13
24.34
10.94
-3.47
-16.59
-27.88
-38.24
-49.01
-60.90
-73.33
-84.66
-92.85
-96.49
-95.30
-90.15
-82.46
-73.62
-64.62
-55.90
-47.56
-39.54
-31.80
-24.39
-17.44
-11.28
-6.31
-3.07
-2.19
-4.19
-9.35
-17.41
-27.48
-38.15
-47.77
-54.93
-58.79
-59.37
-57.50
-54.55
-51.94
-50.56
-50.44
-50.80
-50.41
-48.23
-43.95
-38.06
-31.51
-24.99
-18.52
-11.30
-2.23
9.65
24.74
42.80
63.12
84.50
105.35
123.60
137.04
143.89
143.41
136.44
125.45
114.00
105.87
104.17
110.55
124.81
144.91
167.69
189.75
208.59
223.30
234.41
242.92
249.13
251.81
248.51
236.70
215.27
185.36
149.86
112.17
74.95
39.78
7.96
-18.46
-36.40
-42.62
-35.36
-15.85
11.48
40.14
63.49
76.50
76.71
64.03
40.11
7.70
-30.00
-70.12
-110.70
-151.21
-192.01
-233.10
-272.65
-306.28
-328.00
-332.41
-316.99
-283.56
-237.97
-188.26
-142.26
-105.88
-82.47
-73.24
-77.98
-95.23
-121.86
-152.71
-180.78
-198.52
-200.08
-183.09
-149.48
-104.81
-56.16
-9.99
29.53
60.84
84.08
99.87
108.28
108.49
98.88
77.73
44.35
0.49
-48.86
-96.05
-132.67
-152.57
-154.22
-141.17
-120.29
-98.51
-79.87
-64.21
-48.39
-29.07
-5.29
20.49
43.57
59.47
66.41
66.27
63.82
64.66
72.71
88.37
108.48
127.83
141.66
147.80
147.35
143.89
141.78
144.31
152.44
164.55
177.10
185.74
186.65
177.21
156.30
124.27
82.91
35.69
-12.33
-55.01
-86.58
-103.48
-105.87
-97.72
-85.33
-74.96
-70.46
-72.21
-77.72
-83.24
-85.76
-84.29
-80.34
-77.35
-79.71
-91.09
-112.80
-142.65
-174.76
-200.84
-212.48
-203.73
-172.89
-123.03
-61.32
2.54
58.34
97.66
115.74
112.82
93.91
67.18
41.07
21.43
9.97
4.57
1.27
-3.08
-9.14
-14.94
-17.54
-14.95
-7.48
2.43
11.73
18.44
22.64
26.43
32.70
43.89
60.99
83.48
109.51
136.27
160.29
177.81
185.65
182.65
170.76
155.31
143.71
143.09
157.38
185.39
220.68
253.10
271.71
267.88
237.73
183.16
111.42
33.25
-39.87
-98.54
-137.65
-157.11
-161.22
-156.59
-149.79
-145.34
-144.96
-147.97
-152.44
-156.41
-158.74
-159.17
-157.77
-154.67
-149.99
-143.95
-137.27
-131.16
-127.03
-125.74
-127.06
-129.58
-131.21
-130.23
-126.07
-119.74
-113.49
-109.90
-110.79
-116.58
-126.29
-138.06
-149.80
-159.66
-166.36
-169.08
-167.43
-161.37
-151.32
-138.19
-123.24
-107.91
-93.47
-80.75
-70.07
-61.30
-54.13
-48.09
-42.52
-36.59
-29.18
-18.74
-3.37
18.78
48.60
85.09
124.95
163.43
195.96
219.94
235.85
246.81
256.79
268.57
282.60
297.25
310.46
321.34
330.58
339.23
346.61
349.03
340.48
315.33
271.44
212.11
145.52
81.96
30.01
-6.20
-27.31
-37.11
-39.77
-37.99
-32.64
-23.86
-12.42
-0.26
9.96
16.08
17.34
14.47
9.11
2.87
-3.33
-9.41
-15.69
-22.40
-29.40
-36.12
-41.79
-45.70
-47.61
-47.94
-47.79
-48.56
-51.32
-56.20
-62.18
-67.36
-69.96
-69.25
-66.09
-62.63
-61.27
-63.45
-69.00
-76.39
-83.83
-90.34
-96.33
-103.17
-112.05
-123.00
-134.61
-144.59
-150.83
-152.26
-148.95
-141.47
-130.25
-115.25
-96.36
-74.03
-49.70
-25.53
-3.79
14.04
27.65
37.63
44.99
50.53
54.57
57.09
57.96
57.23
55.21
52.37
49.19
45.92
42.54
38.73
34.13
28.42
21.67
14.31
6.99
0.37
-5.18
-9.71
-13.75
-18.01
-23.10
-29.06
-35.25
-40.48
-43.43
-43.34
-40.42
-36.06
-32.33
-31.23
-34.09
-41.14
-51.80
-64.89
-78.78
-91.17
-99.17
-99.96
-92.19
-77.18
-59.29
-44.55
-38.11
-41.88
-53.44
-67.10
-76.35
-76.44
-65.66
-45.06
-17.19
15.21
49.69
84.02
115.87
142.79
162.61
173.99
176.79
171.96
161.27
146.71
130.02
112.41
94.49
76.52
58.72
41.58
25.90
12.51
1.93
-6.00
-12.24
-18.26
-25.42
-34.16
-43.39
-50.59
-52.64
-47.37
-34.80
-17.51
0.34
14.83
24.03
28.65
31.32
34.82
40.58
48.09
55.71
61.84
65.80
67.69
67.67
65.23
59.33
49.21
35.31
19.61
5.07
-5.50
-10.63
-10.58
-7.09
-2.45
1.25
2.70
1.31
-2.84
-9.17
-16.64
-23.80
-29.12
-31.45
-30.49
-27.03
-22.71
-19.34
-18.15
-19.32
-21.94
-24.38
-24.96
-22.49
-16.55
-7.42
4.11
17.04
30.35
43.10
54.51
63.96
71.07
75.57
77.27
75.94
71.35
63.57
53.20
41.51
30.17
20.63
13.43
7.95
2.59
-4.25
-13.34
-24.04
-34.59
-43.03
-48.12
-49.97
-49.77
-49.05
-48.78
-48.99
-48.88
-47.46
-44.05
-38.67
-31.86
-24.42
-16.96
-9.81
-3.13
2.90
7.86
11.07
11.84
9.73
4.84
-2.06
-9.76
-16.84
-22.13
-24.94
-25.25
-23.67
-21.23
-19.04
-18.01
-18.55
-20.58
-23.56
-26.82
-29.81
-32.27
-34.21
-35.86
-37.44
-39.14
-41.08
-43.20
-45.29
-46.83
-46.99
-44.87
-39.76
-31.49
-20.54
-7.97
4.95
17.10
27.69
36.34
42.86
47.24
49.58
50.13
49.29
47.63
45.66
43.78
42.17
40.86
39.72
38.58
37.20
35.27
32.57
28.98
24.61
19.83
15.16
11.13
8.14
6.36
5.76
6.16
7.22
8.55
9.64
9.93
8.87
6.11
1.58
-4.35
-10.95
-17.30
-22.51
-25.96
-27.46
-27.17
-25.57
-23.20
-20.54
-17.90
-15.41
-13.07
-10.83
-8.68
-6.71
-5.09
-3.95
-3.36
-3.25
-3.50
-3.99
-4.63
-5.41
-6.31
-7.28
-8.28
-9.26
-10.25
-11.36
-12.75
-14.52
-16.70
-19.18
-21.76
-24.16
-26.04
-27.09
-27.05
-25.81
-23.42
-20.08
-16.10
-11.76
-7.33
-2.98
1.14
4.92
8.23
10.94
12.91
13.99
14.12
13.36
11.91
10.10
8.30
6.76
5.61
4.79
4.07
3.22
2.02
0.44
-1.41
-3.31
-5.06
-6.52
-7.69
-8.69
-9.68
-10.78
-11.99
-13.18
-14.14
-14.64
-14.43
-13.40
-11.50
-8.78
-5.38
-1.46
2.83
7.32
11.87
16.27
20.21
23.32
25.27
25.89
25.25
23.67
21.59
19.41
17.41
15.71
14.32
13.22
12.40
11.88
11.66
11.72
12.00
12.34
12.59
12.52
11.91
10.54
8.32
5.31
1.79
-1.76
-4.83
-7.02
-8.12
-8.31
-8.01
-7.80
-8.18
-9.37
-11.15
-13.00
-14.25
-14.37
-13.22
-11.09
-8.55
-6.22
-4.44
-3.19
-2.20
-1.17
0.02
1.29
2.39
3.22
3.88
4.78
6.43
9.17
12.92
17.20
21.18
24.00
25.06
24.28
22.12
19.48
17.30
16.28
16.72
18.43
21.13
24.59
28.87
34.21
40.82
48.55
56.77
64.48
70.62
74.27
74.71
71.36
63.84
52.40
38.37
24.43
14.17
10.99
16.64
30.31
48.71
67.36
82.36
91.81
96.17
97.43
97.74
98.35
99.26
99.74
99.05
96.98
93.81
90.00
85.58
80.02
72.56
62.65
50.55
37.41
24.96
14.88
8.25
5.15
4.68
5.49
6.20
5.95
4.52
2.22
-0.48
-3.24
-6.09
-9.27
-13.13
-17.82
-23.23
-29.01
-34.71
-39.97
-44.64
-48.75
-52.54
-56.24
-60.00
-63.78
-67.35
-70.34
-72.40
-73.30
-73.06
-71.93
-70.26
-68.41
-66.56
-64.69
-62.60
-60.10
-57.14
-53.84
-50.48
-47.33
-44.56
-42.21
-40.15
-38.24
-36.42
-34.70
-33.18
-31.92
-30.91
-30.07
-29.27
-28.40
-27.46
-26.51
-25.62
-24.85
-24.23
-23.72
-23.32
-23.06
-22.98
-23.09
-23.34
-23.57
-23.64
-23.50
-23.16
-22.70
-22.25
-21.89
-21.67
-21.58
-21.61
-21.68
-21.70
-21.52
-21.01
-20.04
-18.62
-16.83
-14.88
-12.98
-11.39
-10.29
-9.75
-9.77
-10.22
-10.92
-11.66
-12.31
-12.83
-13.31
-13.89
-14.65
-15.62
-16.65
-17.50
-17.85
-17.54
-16.55
-15.07
-13.42
-11.90
-10.73
-10.00
-9.71
-9.80
-10.18
-10.74
-11.38
-12.15
-13.22
-15.03
-18.19
-23.18
-30.13
-38.58
-47.56
-55.90
-62.81
-68.19
-72.72
-77.56
-83.63
-91.19
-99.61
-107.59
-113.71
-116.98
-117.13
-114.60
-110.25
-105.00
-99.55
-94.22
-88.95
-83.31
-76.69
-68.45
-58.12
-45.66
-31.45
-16.36
-1.59
11.59
22.18
29.84
35.13
39.50
44.85
52.83
64.16
78.22
93.21
106.74
116.66
121.75
121.96
118.15
111.65
103.80
95.75
88.39
82.50
78.68
77.23
77.91
79.91
81.87
82.33
80.16
74.87
66.65
56.17
44.24
31.61
18.96
6.95
-3.68
-12.20
-18.02
-20.73
-20.26
-16.78
-10.70
-2.70
6.33
15.41
23.59
30.27
35.25
38.67
40.83
41.94
41.99
40.86
38.50
35.10
31.10
27.09
23.55
20.68
18.40
16.48
14.66
12.81
11.01
9.41
8.16
7.30
6.74
6.32
5.93
5.48
5.01
4.56
4.15
3.72
3.17
2.42
1.47
0.40
-0.67
-1.68
-2.65
-3.70
-4.93
-6.35
-7.87
-9.31
-10.49
-11.25
-11.52
-11.24
-10.37
-8.88
-6.82
-4.38
-1.89
0.28
1.88
2.89
3.54
4.12
4.80
5.42
5.57
4.69
2.45
-1.08
-5.30
-9.38
-12.51
-14.29
-14.84
-14.67
-14.46
-14.71
-15.64
-17.08
-18.68
-20.10
-21.19
-21.96
-22.55
-23.20
-24.31
-26.54
-30.82
-38.04
-48.27
-60.01
-69.87
-73.28
-66.07
-46.29
-15.12
23.68
65.60
107.00
145.76
180.55
209.54
229.75
237.85
231.75
212.08
182.27
147.09
110.67
75.11
40.68
7.14
-24.87
-53.33
-75.59
-89.60
-95.03
-93.31
-86.92
-78.41
-69.62
-61.36
-53.68
-46.41
-39.53
-33.36
-28.41
-25.18
-23.83
-24.09
-25.34
-26.78
-27.71
-27.80
-27.09
-25.92
-24.74
-23.80
-23.04
-22.11
-20.58
-18.23
-15.22
-12.06
-9.40
-7.71
-7.07
-7.14
-7.33
-7.11
-6.24
-4.82
-3.23
-1.88
-1.00
-0.51
-0.08
0.73
2.31
4.79
7.98
11.43
14.57
16.92
18.28
18.86
19.24
20.16
22.17
25.40
29.44
33.41
36.35
37.57
36.94
34.94
32.49
30.53
29.64
29.66
29.46
26.98
19.52
4.48
-19.78
-53.03
-92.71
-134.30
-172.32
-201.90
-220.15
-226.73
-223.49
-213.46
-199.61
-184.14
-168.46
-153.61
-140.63
-130.61
-124.28
-121.53
-121.16
-121.13
-119.12
-113.22
-102.46
-87.00
-68.05
-47.64
-28.33
-12.61
-2.32
2.08
1.78
-0.49
-1.31
2.38
12.00
26.86
44.38
61.24
74.67
83.67
89.12
93.13
97.73
103.87
111.19
118.54
125.01
130.49
135.60
140.89
146.08
149.67
149.49
143.80
132.20
115.93
97.38
79.03
62.61
48.64
36.76
26.30
16.94
8.90
2.78
-0.82
-1.77
-0.51
2.00
4.72
6.79
7.85
8.00
7.60
7.06
6.58
6.11
5.50
4.54
3.21
1.67
0.19
-0.93
-1.56
-1.70
-1.52
-1.20
-0.89
-0.61
-0.29
0.13
0.69
1.32
1.90
2.33
2.56
2.61
2.53
2.41
2.28
2.18
2.14
2.22
2.46
2.93
3.58
4.37
5.24
6.10
6.95
7.79
8.58
9.29
9.82
10.10
10.10
9.89
9.54
9.14
8.68
8.16
7.54
6.88
6.26
5.78
5.48
5.29
5.15
5.00
4.87
4.87
5.08
5.52
6.11
6.73
7.35
8.05
8.99
10.28
11.95
13.89
15.98
18.07
20.10
22.07
24.06
26.18
28.65
31.67
35.42
39.94
45.09
50.56
55.97
60.97
65.31
68.84
71.48
73.14
73.70
73.01
70.90
67.16
61.65
54.35
45.43
35.23
24.13
12.35
-0.15
-13.62
-28.42
-44.70
-62.18
-80.11
-97.33
-112.57
-124.77
-133.29
-138.04
-139.38
-137.89
-134.13
-128.48
-121.13
-112.26
-102.13
-91.25
-80.17
-69.35
-58.97
-48.89
-38.78
-28.41
-17.87
-7.54
2.08
10.60
17.97
24.41
30.36
36.11
41.75
47.04
51.57
54.98
57.05
57.77
57.28
55.81
53.54
50.64
47.21
43.31
38.90
33.76
27.58
20.06
11.09
0.91
-9.83
-20.14
-29.01
-35.63
-39.54
-40.70
-39.36
-35.96
-30.96
-24.79
-17.83
-10.40
-2.78
4.73
11.80
18.01
22.92
26.08
27.15
25.91
22.29
16.44
8.73
-0.21
-9.48
-18.07
-24.97
-29.46
-31.28
-30.74
-28.56
-25.71
-23.05
-21.09
-19.78
-18.65
-16.92
-13.90
-9.30
-3.35
3.26
9.55
14.64
17.94
19.22
18.61
16.40
12.97
8.59
3.52
-2.07
-7.97
-14.06
-20.16
-26.04
-31.33
-35.52
-37.98
-38.12
-35.57
-30.29
-22.71
-13.66
-4.21
4.64
12.13
17.98
22.31
25.50
27.88
29.52
30.18
29.45
27.05
23.06
18.01
12.68
7.91
4.35
2.39
2.25
3.92
7.23
11.79
17.00
22.13
26.57
29.96
32.29
33.72
34.48
34.71
34.57
34.34
34.41
35.13
36.61
38.42
39.71
39.47
36.97
32.06
25.24
17.38
9.37
1.77
-5.21
-11.67
-17.75
-23.61
-29.33
-35.10
-41.18
-47.87
-55.34
-63.42
-71.48
-78.58
-83.69
-85.99
-85.04
-80.89
-74.00
-65.19
-55.45
-45.85
-37.34
-30.57
-25.82
-22.97
-21.57
-21.06
-20.85
-20.39
-19.16
-16.60
-12.26
-5.81
2.75
13.02
24.32
35.77
46.52
55.82
63.09
67.95
70.22
69.92
67.31
62.83
56.97
50.13
42.52
34.26
25.50
16.63
8.34
1.43
-3.44
-6.11
-6.87
-6.42
-5.61
-5.16
-5.57
-7.05
-9.65
-13.26
-17.75
-22.87
-28.39
-34.07
-39.62
-44.77
-49.22
-52.76
-55.24
-56.73
-57.37
-57.34
-56.71
-55.38
-53.18
-49.97
-45.82
-41.04
-36.03
-31.23
-26.89
-23.11
-19.76
-16.69
-13.73
-10.75
-7.63
-4.20
-0.31
4.16
9.14
14.41
19.55
24.16
27.89
30.56
32.15
32.68
32.19
30.65
28.09
24.69
20.73
16.68
12.93
9.76
7.22
5.21
3.53
2.02
0.54
-1.02
-2.77
-4.74
-6.84
-8.78
-10.11
-10.37
-9.29
-6.91
-3.62
0.05
3.63
6.84
9.67
12.21
14.56
16.69
18.51
19.83
20.55
20.66
20.21
19.27
17.91
16.21
14.28
12.28
10.41
8.83
7.64
6.85
6.34
5.93
5.48
4.92
4.24
3.49
2.62
1.53
0.06
-1.88
-4.25
-6.86
-9.37
-11.47
-12.99
-13.94
-14.50
-14.95
-15.63
-16.80
-18.60
-20.97
-23.54
-25.70
-26.73
-26.02
-23.31
-18.78
-12.98
-6.66
-0.51
4.95
9.47
12.94
15.43
17.03
17.89
18.17
18.05
17.66
17.12
16.50
15.85
15.21
14.60
13.97
13.30
12.55
11.70
10.83
10.00
9.25
8.54
7.78
6.86
5.71
4.38
2.95
1.51
0.06
-1.43
-3.05
-4.80
-6.62
-8.35
-9.89
-11.16
-12.22
-13.19
-14.22
-15.37
-16.61
-17.70
-18.29
-18.02
-16.66
-14.15
-10.75
-6.88
-2.99
0.54
3.56
6.07
8.15
9.89
11.32
12.46
13.35
14.03
14.54
14.84
14.88
14.60
14.00
13.16
12.27
11.44
10.75
10.19
9.69
9.19
8.68
8.22
7.83
7.57
7.38
7.23
7.00
6.68
6.27
5.80
5.30
4.74
4.07
3.22
2.19
1.06
-0.02
-0.95
-1.75
-2.60
-3.70
-5.18
-6.93
-8.62
-9.77
-9.94
-8.92
-6.79
-3.91
-0.77
2.18
4.69
6.67
8.24
9.54
10.72
11.80
12.75
13.48
13.95
14.11
13.99
13.69
13.27
12.83
12.44
12.12
11.81
11.43
10.86
10.05
8.98
7.70
6.29
4.81
3.28
1.76
0.30
-1.02
-2.09
-2.87
-3.43
-3.85
-4.30
-4.89
-5.67
-6.59
-7.56
-8.51
-9.40
-10.27
-11.12
-11.92
-12.49
-12.58
-11.91
-10.34
-7.95
-4.97
-1.81
1.19
3.76
5.78
7.27
8.26
8.83
9.06
9.02
8.84
8.64
8.52
8.52
8.56
8.51
8.23
7.63
6.75
5.74
4.81
4.12
3.72
3.49
3.27
2.92
2.34
1.55
0.60
-0.48
-1.65
-2.86
-3.96
-4.77
-5.13
-4.99
-4.41
-3.56
-2.63
-1.76
-1.03
-0.51
-0.30
-0.52
-1.21
-2.27
-3.42
-4.30
-4.64
-4.35
-3.55
-2.54
-1.57
-0.79
-0.20
0.33
0.87
1.52
2.25
3.06
3.90
4.75
5.59
6.31
6.80
6.94
6.68
6.08
5.28
4.45
3.71
3.10
2.55
1.99
1.35
0.68
0.06
-0.37
-0.58
-0.57
-0.47
-0.38
-0.39
-0.48
-0.61
-0.66
-0.58
-0.36
-0.01
0.45
0.96
1.44
1.81
1.95
1.80
1.35
0.69
-0.03
-0.65
-1.01
-1.09
-0.91
-0.56
-0.11
0.37
0.86
1.36
1.83
2.21
2.44
2.50
2.42
2.29
2.21
2.20
2.24
2.24
2.12
1.83
1.36
0.69
-0.12
-1.03
-1.97
-2.80
-3.43
-3.80
-3.95
-3.99
-4.02
-4.07
-4.08
-3.89
-3.35
-2.41
-1.11
0.41
1.94
3.30
4.35
5.02
5.28
5.11
4.51
3.56
2.37
1.07
-0.14
-1.11
-1.71
-1.89
-1.69
-1.22
-0.62
-0.02
0.42
0.62
0.55
0.23
-0.21
-0.63
-0.96
-1.22
-1.50
-1.89
-2.44
-3.09
-3.77
-4.41
-5.09
-5.90
-6.92
-8.04
-8.96
-9.34
-8.90
-7.59
-5.60
-3.31
-1.07
0.82
2.25
3.19
3.69
3.84
3.72
3.43
3.07
2.69
2.38
2.17
2.12
2.27
2.63
3.15
3.70
4.11
4.21
3.87
3.11
2.03
0.84
-0.30
-1.26
-2.05
-2.72
-3.39
-4.16
-5.06
-6.07
-7.14
-8.18
-9.11
-9.77
-10.01
-9.63
-8.56
-6.86
-4.73
-2.49
-0.45
1.18
2.34
3.07
3.45
3.59
3.58
3.53
3.54
3.70
4.05
4.50
4.88
4.94
4.54
3.66
2.45
1.21
0.20
-0.39
-0.57
-0.48
-0.33
-0.31
-0.48
-0.78
-1.10
-1.35
-1.48
-1.56
-1.59
-1.58
-1.51
-1.40
-1.35
-1.52
-2.03
-2.85
-3.79
-4.52
-4.68
-4.09
-2.79
-1.03
0.85
2.52
3.79
4.59
4.95
4.95
4.68
4.27
3.86
3.59
3.57
3.78
4.10
4.34
4.33
4.01
3.41
2.67
1.92
1.22
0.59
-0.00
-0.55
-1.03
-1.44
-1.77
-2.08
-2.42
-2.83
-3.33
-3.94
-4.70
-5.67
-6.85
-8.18
-9.44
-10.39
-10.77
-10.48
-9.56
-8.17
-6.53
-4.83
-3.21
-1.74
-0.48
0.58
1.46
2.21
2.89
3.52
4.05
4.41
4.56
4.46
4.14
3.63
3.00
2.31
1.61
0.95
0.38
-0.07
-0.44
-0.77
-1.14
-1.59
-2.14
-2.73
-3.30
-3.72
-3.92
-3.81
-3.40
-2.66
-1.67
-0.50
0.67
1.62
2.11
1.98
1.20
-0.02
-1.35
-2.41
-2.93
-2.83
-2.21
-1.28
-0.27
0.66
1.40
1.92
2.25
2.47
2.69
2.96
3.24
3.37
3.19
2.54
1.46
0.07
-1.42
-2.77
-3.81
-4.40
-4.45
-3.88
-2.76
-1.23
0.39
1.74
2.56
2.75
2.38
1.67
0.78
-0.20
-1.23
-2.31
-3.37
-4.26
-4.81
-4.86
-4.37
-3.46
-2.37
-1.35
-0.60
-0.16
0.03
0.13
0.28
0.54
0.86
1.11
1.17
0.98
0.63
0.27
0.07
0.07
0.24
0.46
0.67
0.89
1.20
1.69
2.37
3.09
3.66
3.89
3.72
3.27
2.75
2.34
2.12
2.01
1.84
1.46
0.80
-0.11
-1.16
-2.17
-3.05
-3.71
-4.12
-4.29
-4.26
-4.07
-3.79
-3.50
-3.26
-3.13
-3.09
-3.06
-2.93
-2.58
-1.93
-0.99
0.20
1.52
2.80
3.91
4.72
5.24
5.51
5.61
5.65
5.66
5.69
5.73
5.72
5.62
5.37
4.94
4.30
3.48
2.56
1.65
0.88
0.29
-0.13
-0.44
-0.73
-1.06
-1.41
-1.74
-1.98
-2.15
-2.33
-2.60
-3.01
-3.50
-3.87
-3.90
-3.45
-2.54
-1.35
-0.17
0.79
1.42
1.77
1.96
2.05
2.04
1.86
1.52
1.03
0.55
0.20
0.04
0.08
0.23
0.40
0.62
0.91
1.31
1.83
2.40
2.89
3.22
3.29
3.09
2.68
2.15
1.61
1.12
0.75
0.47
0.22
-0.07
-0.47
-0.94
-1.45
-1.87
-2.11
-2.12
-1.95
-1.70
-1.49
-1.39
-1.39
-1.40
-1.34
-1.10
-0.73
-0.27
0.15
0.45
0.57
0.51
0.30
-0.06
-0.53
-1.06
-1.56
-1.94
-2.17
-2.22
-2.15
-2.02
-1.87
-1.68
-1.46
-1.16
-0.77
-0.31
0.18
0.64
1.00
1.21
1.24
1.11
0.92
0.75
0.66
0.65
0.64
0.55
0.34
-0.00
-0.42
-0.85
-1.23
-1.53
-1.71
-1.74
-1.58
-1.23
-0.75
-0.25
0.12
0.26
0.13
-0.20
-0.57
-0.78
-0.67
-0.16
0.71
1.80
2.90
3.82
4.37
4.46
4.04
3.17
2.01
0.78
-0.28
-1.01
-1.38
-1.49
-1.53
-1.72
-2.18
-2.93
-3.85
-4.76
-5.43
-5.71
-5.47
-4.69
-3.44
-1.87
-0.19
1.32
2.47
3.12
3.30
3.11
2.72
2.27
1.85
1.45
1.03
0.54
-0.01
-0.60
-1.19
-1.72
-2.15
-2.45
-2.60
-2.59
-2.43
-2.17
-1.88
-1.66
-1.59
-1.73
-2.03
-2.38
-2.58
-2.41
-1.73
-0.55
1.01
2.68
4.24
5.53
6.50
7.19
7.65
7.89
7.90
7.65
7.16
6.46
5.60
4.60
3.48
2.21
0.81
-0.68
-2.18
-3.59
-4.82
-5.81
-6.51
-6.85
-6.80
-6.39
-5.68
-4.81
-3.92
-3.13
-2.50
-2.02
-1.68
-1.45
-1.28
-1.16
-1.08
-1.04
-1.06
-1.14
-1.25
-1.34
-1.34
-1.19
-0.88
-0.38
0.25
0.96
1.63
2.11
2.23
1.86
1.01
-0.17
-1.46
-2.67
-3.68
-4.54
-5.28
-5.93
-6.45
-6.75
-6.78
-6.54
-6.04
-5.32
-4.33
-3.05
-1.51
0.15
1.75
3.17
4.40
5.59
6.95
8.61
10.54
12.53
14.29
15.52
16.09
16.01
15.41
14.48
13.34
12.07
10.66
9.13
7.49
5.79
4.10
2.45
0.88
-0.63
-2.08
-3.52
-5.01
-6.61
-8.36
-10.22
-12.02
-13.55
-14.63
-15.14
-15.04
-14.34
-13.02
-11.02
-8.32
-5.04
-1.43
2.07
5.06
7.33
8.90
9.96
10.78
11.52
12.21
12.80
13.21
13.44
13.62
13.87
14.25
14.75
15.28
15.73
16.02
16.13
16.09
15.91
15.58
15.06
14.26
13.09
11.49
9.48
7.18
4.81
2.67
1.02
0.04
-0.25
0.03
0.65
1.37
1.98
2.42
2.73
3.04
3.47
4.10
4.81
5.39
5.56
5.04
3.73
1.66
-1.02
-4.04
-7.14
-10.07
-12.61
-14.62
-16.03
-16.82
-17.08
-16.94
-16.54
-16.00
-15.39
-14.80
-14.28
-13.83
-13.41
-12.96
-12.43
-11.82
-11.27
-10.89
-10.75
-10.79
-10.78
-10.40
-9.47
-7.99
-6.20
-4.47
-3.14
-2.34
-1.99
-1.87
-1.76
-1.55
-1.27
-1.06
-1.07
-1.36
-1.86
-2.44
-2.95
-3.28
-3.48
-3.67
-4.06
-4.80
-5.90
-7.18
-8.31
-8.92
-8.86
-8.29
-7.71
-7.84
-9.31
-12.37
-16.75
-21.72
-26.40
-30.02
-32.33
-33.55
-34.25
-35.14
-36.80
-39.54
-43.36
-47.99
-52.97
-57.78
-62.07
-65.83
-69.43
-73.45
-78.09
-82.65
-85.34
-83.52
-74.58
-56.97
-31.07
0.61
33.86
63.86
86.55
99.72
103.58
100.38
93.40
85.80
79.56
75.31
72.62
70.66
68.64
65.85
61.49
54.50
43.91
29.27
11.21
-8.53
-27.54
-43.68
-55.72
-63.83
-69.22
-73.59
-78.32
-83.96
-89.98
-95.14
-98.19
-98.34
-95.75
-91.30
-86.11
-80.94
-75.87
-70.42
-63.95
-56.08
-46.62
-35.42
-22.14
-6.48
11.32
29.88
46.64
58.52
63.11
59.67
49.41
34.82
18.48
2.08
-13.74
-28.70
-42.08
-52.24
-57.11
-55.11
-46.11
-31.62
-14.39
2.67
17.41
28.88
37.15
42.71
45.91
46.85
45.69
43.15
40.71
40.31
43.55
50.90
61.10
71.55
79.13
81.43
77.69
68.98
57.79
47.06
39.36
36.17
37.72
43.17
51.22
60.59
70.61
81.43
94.19
110.83
133.47
163.29
199.11
236.57
268.41
286.42
284.20
259.62
215.66
159.15
98.12
39.24
-13.59
-58.82
-96.03
-124.75
-144.31
-154.50
-156.39
-152.31
-145.26
-137.77
-131.11
-125.18
-119.06
-111.82
-103.26
-94.31
-86.73
-82.49
-82.94
-88.14
-96.60
-105.70
-112.57
-115.13
-112.67
-105.96
-96.59
-86.25
-76.03
-66.22
-56.67
-47.23
-38.14
-30.02
-23.58
-19.12
-16.37
-14.50
-12.46
-9.44
-5.15
0.15
5.71
10.70
14.46
16.69
17.51
17.29
16.50
15.53
14.57
13.68
12.85
12.12
11.61
11.48
11.76
12.31
12.78
12.80
12.02
10.33
7.81
4.76
1.55
-1.35
-3.55
-4.68
-4.50
-2.94
-0.12
3.63
7.87
12.17
16.18
19.66
22.43
24.38
25.36
25.36
24.49
23.01
21.28
19.65
18.32
17.36
16.72
16.30
16.01
15.72
15.25
14.36
12.87
10.73
8.10
5.31
2.72
0.57
-1.06
-2.26
-3.20
-4.04
-4.97
-6.13
-7.62
-9.42
-11.26
-12.65
-12.92
-11.47
-8.06
-2.92
3.26
9.57
15.23
19.78
23.18
25.63
27.44
28.79
29.69
30.10
30.00
29.51
28.81
28.09
27.44
26.81
26.12
25.29
24.33
23.30
22.23
21.06
19.63
17.75
15.32
12.43
9.27
6.09
3.09
0.31
-2.40
-5.30
-8.68
-12.69
-17.23
-21.89
-26.06
-29.04
-30.22
-29.21
-26.04
-21.15
-15.32
-9.44
-4.31
-0.38
2.35
4.21
5.62
6.87
7.94
8.61
8.69
8.19
7.43
6.84
6.74
7.17
7.90
8.55
8.86
8.71
8.14
7.22
5.96
4.36
2.46
0.40
-1.59
-3.30
-4.65
-5.77
-6.96
-8.54
-10.74
-13.53
-16.63
-19.47
-21.34
-21.58
-19.77
-15.91
-10.45
-4.19
2.04
7.60
12.19
15.83
18.70
20.99
22.76
24.01
24.76
25.08
25.15
25.12
25.06
24.95
24.65
24.06
23.16
22.05
20.91
19.90
19.10
18.46
17.77
16.78
15.26
13.13
10.52
7.70
5.02
2.73
0.95
-0.44
-1.71
-3.21
-5.25
-7.97
-11.26
-14.73
-17.78
-19.72
-20.01
-18.38
-14.98
-10.30
-4.97
0.35
5.23
9.44
12.95
15.82
18.08
19.73
20.73
21.19
21.22
21.00
20.72
20.43
20.14
19.77
19.28
18.64
17.92
17.14
16.34
15.51
14.59
13.54
12.34
10.97
9.46
7.84
6.12
4.35
2.54
0.73
-1.06
-2.82
-4.58
-6.42
-8.42
-10.68
-13.20
-15.79
-18.15
-19.84
-20.39
-19.52
-17.17
-13.57
-9.18
-4.54
-0.10
3.78
6.98
9.49
11.36
12.63
13.35
13.55
13.36
12.98
12.67
12.65
13.04
13.79
14.70
15.47
15.85
15.71
15.11
14.23
13.21
12.15
10.98
9.59
7.88
5.91
3.83
1.87
0.22
-1.06
-2.00
-2.79
-3.64
-4.76
-6.30
-8.31
-10.64
-12.97
-14.84
-15.74
-15.35
-13.56
-10.61
-6.95
-3.11
0.44
3.44
5.84
7.70
9.09
10.04
10.51
10.52
10.17
9.69
9.30
9.13
9.20
9.35
9.38
9.12
8.53
7.65
6.57
5.38
4.15
2.94
1.80
0.79
-0.07
-0.84
-1.59
-2.44
-3.46
-4.69
-6.09
-7.63
-9.24
-10.90
-12.59
-14.23
-15.62
-16.48
-16.46
-15.36
-13.22
-10.30
-7.02
-3.79
-0.87
1.66
3.82
5.62
7.04
8.00
8.50
8.60
8.43
8.12
7.77
7.42
7.07
6.72
6.38
6.07
5.77
5.47
5.09
4.60
3.96
3.13
2.12
0.93
-0.39
-1.75
-3.03
-4.14
-5.07
-5.91
-6.83
-7.97
-9.42
-11.13
-12.87
-14.36
-15.27
-15.35
-14.50
-12.72
-10.13
-6.95
-3.48
-0.06
2.98
5.39
7.04
7.98
8.35
8.37
8.23
8.08
7.95
7.82
7.64
7.39
7.08
6.80
6.60
6.51
6.48
6.40
6.11
5.50
4.52
3.26
1.89
0.57
-0.55
-1.44
-2.17
-2.82
-3.51
-4.33
-5.31
-6.47
-7.78
-9.17
-10.51
-11.54
-12.02
-11.69
-10.48
-8.47
-5.91
-3.12
-0.39
2.03
4.05
5.59
6.67
7.33
7.61
7.58
7.35
6.99
6.58
6.22
5.94
5.78
5.75
5.83
5.92
5.92
5.70
5.14
4.23
3.02
1.66
0.33
-0.83
-1.78
-2.61
-3.40
-4.28
-5.25
-6.31
-7.42
-8.53
-9.61
-10.53
-11.10
-11.09
-10.35
-8.85
-6.77
-4.40
-2.05
0.07
1.86
3.36
4.60
5.57
6.26
6.62
6.67
6.47
6.12
5.76
5.51
5.44
5.56
5.77
5.94
5.91
5.53
4.75
3.60
2.21
0.74
-0.63
-1.75
-2.51
-2.86
-2.84
-2.57
-2.25
-2.08
-2.24
-2.85
-3.90
-5.30
-6.94
-8.58
-9.97
-10.73
-10.43
-8.68
-5.32
-0.57
4.98
10.46
15.05
18.16
19.63
19.72
18.95
18.07
17.84
19.01
22.12
27.28
34.01
41.29
47.79
52.36
54.36
53.86
51.39
47.53
42.54
36.23
28.19
18.21
6.57
-5.86
-17.93
-28.65
-37.60
-44.97
-51.47
-57.83
-64.46
-71.27
-77.71
-83.04
-86.50
-87.59
-86.07
-82.04
-75.84
-68.00
-59.15
-49.89
-40.72
-31.97
-23.82
-16.38
-9.70
-3.84
1.21
5.47
9.01
11.88
14.11
15.66
16.48
16.53
15.87
14.68
13.25
11.94
11.03
10.67
10.79
11.17
11.53
11.62
11.31
10.53
9.29
7.63
5.59
3.26
0.80
-1.55
-3.53
-4.85
-5.29
-4.72
-3.14
-0.79
2.01
4.80
7.23
9.07
10.30
10.99
11.21
11.00
10.35
9.32
8.06
6.84
5.95
5.55
5.61
5.92
6.24
6.33
6.07
5.46
4.58
3.56
2.54
1.62
0.86
0.26
-0.23
-0.70
-1.18
-1.75
-2.46
-3.40
-4.66
-6.20
-7.83
-9.18
-9.84
-9.47
-8.01
-5.68
-2.91
-0.17
2.18
4.02
5.41
6.48
7.34
8.01
8.45
8.60
8.47
8.15
7.80
7.61
7.71
8.09
8.65
9.19
9.51
9.39
8.68
7.21
4.92
1.81
-1.97
-6.11
-10.19
-13.75
-16.44
-18.11
-18.84
-18.92
-18.69
-18.46
-18.42
-18.51
-18.56
-18.22
-17.19
-15.28
-12.55
-9.28
-5.96
-3.02
-0.78
0.71
1.57
2.04
2.31
2.47
2.59
2.71
2.91
3.25
3.74
4.29
4.72
4.88
4.73
4.37
4.00
3.75
3.60
3.42
3.00
2.26
1.27
0.22
-0.69
-1.39
-1.94
-2.51
-3.23
-4.14
-5.16
-6.11
-6.84
-7.24
-7.24
-6.83
-6.01
-4.79
-3.23
-1.42
0.49
2.31
3.86
5.02
5.77
6.17
6.36
6.47
6.63
6.85
7.08
7.26
7.30
7.18
6.94
6.64
6.32
6.01
5.67
5.21
4.60
3.82
2.91
1.93
0.97
0.08
-0.75
-1.53
-2.32
-3.16
-4.08
-5.07
-6.11
-7.12
-7.94
-8.40
-8.37
-7.75
-6.53
-4.80
-2.74
-0.57
1.48
3.19
4.44
5.17
5.44
5.35
5.05
4.68
4.34
4.10
3.98
3.94
3.93
3.89
3.77
3.58
3.31
2.98
2.57
2.05
1.39
0.62
-0.20
-0.99
-1.67
-2.22
-2.67
-3.12
-3.67
-4.43
-5.46
-6.69
-7.95
-8.91
-9.26
-8.74
-7.34
-5.26
-2.86
-0.55
1.37
2.75
3.59
3.98
4.05
3.92
3.72
3.52
3.38
3.31
3.27
3.16
2.93
2.56
2.08
1.55
1.02
0.50
-0.05
-0.66
-1.36
-2.13
-2.90
-3.61
-4.23
-4.78
-5.33
-5.94
-6.71
-7.65
-8.71
-9.77
-10.65
-11.12
-11.00
-10.19
-8.73
-6.79
-4.64
-2.56
-0.79
0.59
1.59
2.31
2.83
3.17
3.30
3.20
2.91
2.55
2.30
2.28
2.54
2.99
3.44
3.75
3.81
3.64
3.28
2.83
2.32
1.70
0.91
-0.10
-1.28
-2.54
-3.71
-4.66
-5.35
-5.87
-6.41
-7.12
-8.09
-9.14
-9.96
-10.18
-9.55
-8.05
-5.90
-3.48
-1.17
0.75
2.22
3.27
4.02
4.55
4.96
5.31
5.64
6.02
6.40
6.76
6.99
7.04
6.96
6.79
6.64
6.60
6.70
6.93
7.23
7.51
7.62
7.48
7.08
6.44
5.71
5.06
4.63
4.47
4.53
4.72
4.92
5.05
5.11
5.15
5.33
5.86
6.95
8.78
11.37
14.56
18.01
21.34
24.25
26.61
28.44
29.81
30.77
31.26
31.22
30.62
29.54
28.10
26.37
24.43
22.33
20.26
18.55
17.60
17.71
18.93
21.01
23.52
26.01
28.15
29.77
30.76
31.06
30.65
29.56
27.91
25.83
23.42
20.71
17.72
14.54
11.32
8.32
5.67
3.43
1.50
-0.27
-2.02
-3.82
-5.70
-7.63
-9.56
-11.43
-13.13
-14.57
-15.76
-16.83
-18.04
-19.57
-21.51
-23.78
-26.25
-28.85
-31.59
-34.57
-37.79
-41.17
-44.55
-47.86
-51.12
-54.51
-58.16
-62.04
-65.84
-69.05
-71.17
-71.84
-71.02
-68.93
-65.99
-62.65
-59.26
-56.00
-52.88
-49.77
-46.48
-42.87
-38.83
-34.34
-29.41
-24.13
-18.64
-13.11
-7.80
-2.93
1.27
4.68
7.29
9.18
10.51
11.45
12.13
12.64
13.00
13.19
13.19
13.03
12.78
12.56
12.47
12.52
12.66
12.73
12.59
12.20
11.60
10.91
10.26
9.69
9.16
8.60
7.90
7.00
5.87
4.49
2.86
0.99
-1.04
-3.09
-4.88
-6.14
-6.66
-6.38
-5.42
-4.01
-2.46
-1.01
0.17
0.99
1.46
1.61
1.52
1.31
1.09
0.97
0.98
1.09
1.25
1.40
1.52
1.62
1.71
1.79
1.85
1.89
1.89
1.88
1.89
1.91
1.94
1.93
1.87
1.76
1.62
1.41
1.07
0.46
-0.51
-1.82
-3.25
-4.44
-5.01
-4.68
-3.42
-1.49
0.76
2.98
4.94
6.54
7.75
8.49
8.68
8.25
7.27
5.92
4.53
3.35
2.50
1.94
1.51
1.09
0.66
0.27
-0.01
-0.19
-0.35
-0.63
-1.12
-1.84
-2.69
-3.57
-4.47
-5.45
-6.62
-8.09
-9.85
-11.74
-13.50
-14.85
-15.55
-15.47
-14.64
-13.18
-11.31
-9.25
-7.21
-5.37
-3.84
-2.64
-1.74
-1.06
-0.48
0.07
0.64
1.28
1.98
2.75
3.58
4.49
5.48
6.54
7.57
8.45
9.07
9.35
9.23
8.76
8.01
7.09
6.15
5.28
4.52
3.82
3.04
2.01
0.62
-1.06
-2.78
-4.15
-4.78
-4.43
-3.15
-1.30
0.62
2.08
2.82
2.80
2.26
1.53
0.95
0.73
0.97
1.69
2.79
4.11
5.40
6.34
6.67
6.25
5.18
3.71
2.17
0.82
-0.24
-1.04
-1.65
-2.11
-2.36
-2.33
-2.02
-1.55
-1.14
-0.98
-1.20
-1.78
-2.54
-3.23
-3.59
-3.41
-2.60
-1.21
0.60
2.55
4.33
5.72
6.58
6.93
6.93
6.72
6.46
6.19
5.86
5.43
4.88
4.28
3.73
3.37
3.24
3.28
3.38
3.42
3.33
3.11
2.83
2.58
2.45
2.46
2.54
2.54
2.24
1.49
0.21
-1.49
-3.34
-5.03
-6.22
-6.72
-6.44
-5.44
-3.83
-1.80
0.38
2.43
4.11
5.28
5.92
6.13
6.02
5.63
4.94
3.88
2.47
0.83
-0.82
-2.21
-3.17
-3.64
-3.77
-3.72
-3.68
-3.69
-3.73
-3.70
-3.57
-3.38
-3.27
-3.37
-3.76
-4.32
-4.87
-5.23
-5.37
-5.42
-5.64
-6.21
-7.10
-8.00
-8.41
-7.87
-6.19
-3.56
-0.55
2.15
3.99
4.65
4.19
2.93
1.25
-0.45
-1.80
-2.54
-2.51
-1.67
-0.25
1.32
2.56
3.09
2.83
2.04
1.16
0.65
0.71
1.26
1.97
2.49
2.58
2.25
1.67
1.08
0.65
0.37
0.05
-0.50
-1.49
-2.91
-4.58
-6.14
-7.21
-7.50
-6.88
-5.45
-3.45
-1.17
1.10
3.16
4.92
6.35
7.46
8.23
8.61
8.59
8.22
7.67
7.18
6.95
7.02
7.30
7.58
7.68
7.53
7.20
6.86
6.64
6.59
6.65
6.71
6.63
6.30
5.66
4.72
3.49
2.06
0.49
-1.13
-2.80
-4.57
-6.46
-8.40
-10.15
-11.37
-11.75
-11.13
-9.56
-7.30
-4.64
-1.84
0.92
3.54
5.92
7.96
9.50
10.47
10.90
10.96
10.87
10.78
10.72
10.55
10.06
9.10
7.67
5.94
4.20
2.77
1.84
1.44
1.47
1.76
2.15
2.53
2.82
2.97
2.95
2.71
2.24
1.55
0.67
-0.39
-1.62
-3.09
-4.82
-6.79
-8.84
-10.69
-12.02
-12.55
-12.16
-11.03
-9.47
-7.85
-6.37
-5.00
-3.52
-1.73
0.40
2.65
4.62
6.00
6.72
6.96
7.05
7.23
7.50
7.67
7.49
6.88
5.98
5.09
4.49
4.25
4.26
4.25
3.97
3.30
2.29
1.10
-0.06
-1.06
-1.82
-2.39
-2.85
-3.31
-3.78
-4.20
-4.46
-4.50
-4.37
-4.25
-4.40
-4.91
-5.68
-6.38
-6.60
-6.08
-4.80
-3.08
-1.37
-0.04
0.73
1.04
1.15
1.30
1.61
2.00
2.29
2.28
1.91
1.25
0.49
-0.11
-0.41
-0.42
-0.23
-0.03
0.07
0.06
0.01
0.04
0.16
0.31
0.33
0.09
-0.47
-1.28
-2.11
-2.76
-3.09
-3.10
-2.90
-2.67
-2.52
-2.52
-2.68
-3.02
-3.53
-4.18
-4.87
-5.43
-5.65
-5.43
-4.79
-3.90
-3.00
-2.22
-1.64
-1.17
-0.71
-0.23
0.20
0.50
0.59
0.49
0.30
0.16
0.15
0.28
0.50
0.69
0.78
0.76
0.68
0.62
0.64
0.78
1.05
1.39
1.68
1.83
1.71
1.27
0.55
-0.32
-1.15
-1.76
-2.10
-2.21
-2.24
-2.38
-2.78
-3.49
-4.47
-5.57
-6.57
-7.20
-7.22
-6.47
-4.97
-2.93
-0.65
1.48
3.20
4.40
5.16
5.64
6.00
6.27
6.40
6.28
5.87
5.27
4.65
4.24
4.17
4.41
4.81
5.18
5.40
5.49
5.56
5.68
5.82
5.86
5.59
4.93
3.90
2.69
1.48
0.44
-0.37
-0.97
-1.38
-1.64
-1.81
-1.98
-2.28
-2.83
-3.66
-4.68
-5.69
-6.43
-6.71
-6.44
-5.68
-4.57
-3.26
-1.85
-0.42
0.97
2.23
3.24
3.89
4.10
3.92
3.52
3.10
2.89
2.95
3.25
3.57
3.67
3.41
2.78
1.95
1.16
0.59
0.25
0.05
-0.16
-0.50
-0.96
-1.46
-1.91
-2.26
-2.55
-2.82
-3.11
-3.47
-3.93
-4.51
-5.24
-6.13
-7.09
-7.97
-8.61
-8.84
-8.53
-7.60
-6.06
-4.06
-1.87
0.16
1.71
2.60
2.86
2.74
2.57
2.61
3.00
3.68
4.47
5.17
5.58
5.64
5.33
4.73
3.98
3.24
2.64
2.26
2.10
2.11
2.17
2.15
1.94
1.46
0.67
-0.37
-1.54
-2.70
-3.67
-4.35
-4.75
-5.00
-5.30
-5.84
-6.72
-7.90
-9.18
-10.23
-10.73
-10.40
-9.14
-7.13
-4.71
-2.31
-0.33
1.01
1.72
1.94
1.89
1.76
1.63
1.54
1.54
1.64
1.89
2.23
2.57
2.79
2.81
2.66
2.45
2.26
2.13
1.99
1.73
1.31
0.73
0.10
-0.47
-0.97
-1.46
-2.07
-2.88
-3.91
-5.09
-6.29
-7.41
-8.35
-9.03
-9.43
-9.50
-9.20
-8.51
-7.40
-5.88
-4.00
-1.88
0.29
2.28
3.92
5.07
5.79
6.16
6.37
6.51
6.63
6.72
6.73
6.63
6.41
6.11
5.78
5.50
5.32
5.28
5.35
5.48
5.60
5.60
5.41
4.91
4.03
2.75
1.10
-0.76
-2.60
-4.20
-5.43
-6.26
-6.81
-7.20
-7.48
-7.59
-7.39
-6.77
-5.70
-4.29
-2.72
-1.18
0.19
1.35
2.29
3.02
3.57
3.88
3.93
3.73
3.34
2.89
2.52
2.35
2.41
2.65
2.91
3.08
3.08
2.96
2.79
2.63
2.48
2.26
1.86
1.22
0.37
-0.62
-1.61
-2.50
-3.23
-3.80
-4.27
-4.66
-4.94
-5.03
-4.84
-4.27
-3.34
-2.13
-0.79
0.54
1.77
2.85
3.78
4.47
4.84
4.75
4.20
3.30
2.27
1.41
0.91
0.85
1.11
1.50
1.80
1.85
1.61
1.10
0.41
-0.34
-1.06
-1.70
-2.26
-2.77
-3.24
-3.69
-4.11
-4.57
-5.13
-5.88
-6.82
-7.73
-8.30
-8.18
-7.17
-5.34
-3.06
-0.80
1.01
2.22
2.91
3.28
3.53
3.67
3.61
3.20
2.43
1.46
0.57
0.01
-0.11
0.15
0.62
1.10
1.49
1.74
1.85
1.80
1.54
1.03
0.31
-0.55
-1.46
-2.37
-3.29
-4.29
-5.37
-6.47
-7.43
-8.05
-8.17
-7.68
-6.59
-4.98
-3.05
-1.02
0.90
2.57
3.93
4.98
5.74
6.21
6.37
6.20
5.75
5.12
4.50
4.01
3.73
3.64
3.64
3.60
3.42
3.05
2.50
1.83
1.11
0.43
-0.12
-0.52
-0.77
-0.92
-1.07
-1.33
-1.77
-2.43
-3.28
-4.23
-5.14
-5.84
-6.18
-6.04
-5.40
-4.33
-3.01
-1.60
-0.29
0.84
1.78
2.54
3.08
3.37
3.41
3.22
2.93
2.70
2.65
2.84
3.21
3.61
3.92
4.03
3.95
3.76
3.53
3.29
2.99
2.55
1.92
1.13
0.32
-0.34
-0.75
-0.95
-1.08
-1.34
-1.89
-2.73
-3.77
-4.84
-5.74
-6.34
-6.51
-6.21
-5.44
-4.29
-2.88
-1.37
0.09
1.38
2.47
3.37
4.13
4.82
5.48
6.13
6.77
7.34
7.74
7.83
7.56
6.93
6.04
5.09
4.24
3.59
3.11
2.71
2.30
1.86
1.40
1.00
0.71
0.49
0.28
0.01
-0.38
-0.91
-1.57
-2.36
-3.20
-3.98
-4.55
-4.77
-4.52
-3.80
-2.65
-1.20
0.41
2.00
3.42
4.52
5.24
5.59
5.66
5.60
5.54
5.59
5.78
6.11
6.52
6.92
7.19
7.20
6.90
6.29
5.49
4.67
3.95
3.38
2.96
2.67
2.48
2.37
2.30
2.20
1.96
1.49
0.74
-0.28
-1.45
-2.65
-3.72
-4.54
-4.97
-4.96
-4.46
-3.53
-2.32
-0.99
0.30
1.48
2.50
3.36
4.07
4.62
5.01
5.22
5.25
5.15
4.98
4.87
4.94
5.23
5.72
6.21
6.49
6.38
5.85
5.00
4.00
2.97
1.88
0.63
-0.88
-2.63
-4.40
-5.91
-6.91
-7.30
-7.17
-6.72
-6.18
-5.64
-5.09
-4.40
-3.46
-2.26
-0.94
0.32
1.31
1.97
2.37
2.73
3.27
4.11
5.24
6.50
7.66
8.58
9.16
9.37
9.21
8.60
7.50
5.92
4.00
2.01
0.19
-1.31
-2.56
-3.77
-5.18
-6.91
-8.89
-10.88
-12.62
-13.95
-14.87
-15.53
-16.13
-16.81
-17.61
-18.43
-19.09
-19.39
-19.13
-18.12
-16.26
-13.54
-10.06
-6.07
-1.96
1.92
5.27
8.04
10.37
12.55
14.86
17.48
20.36
23.30
26.04
28.34
30.04
31.13
31.67
31.77
31.50
30.84
29.69
27.89
25.31
21.88
17.64
12.76
7.51
2.24
-2.67
-6.84
-9.95
-11.83
-12.46
-12.04
-10.87
-9.24
-7.33
-5.17
-2.65
0.30
3.59
6.95
9.90
11.90
12.56
11.75
9.64
6.62
3.09
-0.54
-4.01
-7.11
-9.68
-11.53
-12.54
-12.65
-11.96
-10.65
-8.98
-7.22
-5.54
-4.06
-2.80
-1.70
-0.65
0.45
1.65
2.85
3.88
4.47
4.38
3.49
1.83
-0.45
-3.13
-6.00
-8.88
-11.56
-13.77
-15.19
-15.56
-14.75
-12.93
-10.51
-7.97
-5.75
-4.07
-2.94
-2.22
-1.79
-1.59
-1.63
-1.92
-2.41
-2.96
-3.38
-3.49
-3.24
-2.65
-1.88
-1.07
-0.30
0.44
1.21
2.05
2.89
3.49
3.56
2.85
1.33
-0.78
-3.06
-5.04
-6.34
-6.85
-6.70
-6.21
-5.75
-5.58
-5.76
-6.14
-6.42
-6.22
-5.23
-3.33
-0.67
2.34
5.06
6.83
7.11
5.73
2.92
-0.71
-4.39
-7.46
-9.53
-10.68
-11.28
-11.86
-12.82
-14.30
-16.09
-17.72
-18.69
-18.72
-17.82
-16.31
-14.69
-13.39
-12.66
-12.48
-12.68
-13.02
-13.34
-13.57
-13.74
-13.86
-13.89
-13.78
-13.50
-13.10
-12.69
-12.39
-12.26
-12.27
-12.23
-11.94
-11.16
-9.76
-7.75
-5.29
-2.60
0.09
2.60
4.83
6.80
8.55
10.11
11.48
12.57
13.30
13.64
13.66
13.53
13.44
13.55
13.90
14.40
14.89
15.19
15.20
14.89
14.31
13.53
12.58
11.52
10.41
9.31
8.25
7.24
6.26
5.31
4.41
3.58
2.84
2.12
1.34
0.43
-0.57
-1.51
-2.16
-2.33
-1.95
-1.12
-0.06
1.06
2.10
3.05
3.91
4.68
5.32
5.75
5.99
6.05
5.99
5.85
5.69
5.50
5.30
5.12
4.99
4.91
4.83
4.67
4.32
3.77
3.04
2.24
1.48
0.84
0.32
-0.12
-0.54
-0.99
-1.45
-1.91
-2.37
-2.87
-3.49
-4.20
-4.91
-5.42
-5.50
-5.04
-4.06
-2.74
-1.32
-0.04
0.97
1.67
2.07
2.22
2.12
1.78
1.18
0.33
-0.73
-1.90
-3.01
-3.91
-4.51
-4.78
-4.79
-4.62
-4.32
-3.91
-3.39
-2.83
-2.37
-2.22
-2.55
-3.36
-4.49
-5.65
-6.57
-7.07
-7.13
-6.88
-6.50
-6.12
-5.81
-5.52
-5.16
-4.62
-3.81
-2.67
-1.24
0.35
1.95
3.36
4.47
5.24
5.73
6.07
6.31
6.48
6.54
6.46
6.24
5.98
5.75
5.60
5.49
5.34
5.11
4.83
4.58
4.41
4.33
4.24
4.00
3.50
2.76
1.89
1.05
0.33
-0.28
-0.89
-1.65
-2.67
-3.95
-5.40
-6.86
-8.17
-9.17
-9.78
-9.90
-9.48
-8.48
-6.93
-4.99
-2.91
-0.96
0.64
1.83
2.68
3.35
3.95
4.48
4.81
4.83
4.51
3.98
3.46
3.16
3.15
3.34
3.55
3.66
3.60
3.46
3.30
3.16
2.99
2.73
2.32
1.82
1.29
0.77
0.23
-0.42
-1.25
-2.25
-3.31
-4.26
-4.99
-5.49
-5.80
-6.01
-6.09
-5.94
-5.44
-4.52
-3.25
-1.81
-0.42
0.74
1.64
2.28
2.74
3.07
3.26
3.30
3.22
3.06
2.86
2.67
2.49
2.31
2.16
2.07
2.07
2.19
2.38
2.58
2.69
2.65
2.41
1.97
1.38
0.68
-0.06
-0.78
-1.44
-2.00
-2.46
-2.82
-3.10
-3.36
-3.65
-4.08
-4.68
-5.36
-5.92
-6.12
-5.75
-4.82
-3.48
-2.02
-0.68
0.43
1.33
2.05
2.57
2.81
2.67
2.16
1.44
0.73
0.24
0.06
0.12
0.30
0.49
0.69
0.94
1.28
1.70
2.13
2.48
2.69
2.73
2.60
2.34
1.98
1.57
1.16
0.76
0.36
-0.09
-0.68
-1.47
-2.47
-3.64
-4.85
-5.89
-6.55
-6.65
-6.15
-5.12
-3.75
-2.30
-1.00
0.05
0.90
1.66
2.45
3.29
4.09
4.68
4.97
4.93
4.67
4.31
3.94
3.60
3.27
2.92
2.57
2.26
2.00
1.78
1.53
1.16
0.66
0.05
-0.59
-1.19
-1.70
-2.11
-2.45
-2.71
-2.93
-3.12
-3.34
-3.67
-4.15
-4.74
-5.33
-5.73
-5.76
-5.31
-4.36
-3.04
-1.53
-0.03
1.31
2.41
3.26
3.91
4.38
4.70
4.89
4.97
4.95
4.80
4.49
4.02
3.43
2.84
2.39
2.20
2.28
2.49
2.63
2.51
2.06
1.39
0.69
0.12
-0.25
-0.52
-0.82
-1.26
-1.86
-2.56
-3.28
-3.95
-4.56
-5.14
-5.68
-6.13
-6.38
-6.31
-5.81
-4.85
-3.48
-1.85
-0.19
1.27
2.37
3.05
3.39
3.53
3.60
3.69
3.79
3.85
3.82
3.67
3.37
2.91
2.31
1.61
0.94
0.46
0.31
0.49
0.94
1.51
2.00
2.30
2.32
2.05
1.54
0.87
0.14
-0.57
-1.24
-1.89
-2.60
-3.38
-4.18
-4.83
-5.12
-4.89
-4.14
-3.03
-1.81
-0.71
0.17
0.82
1.29
1.65
1.88
1.93
1.78
1.46
1.07
0.71
0.45
0.30
0.24
0.22
0.23
0.25
0.26
0.20
0.05
-0.20
-0.49
-0.73
-0.86
-0.89
-0.88
-0.98
-1.30
-1.91
-2.78
-3.79
-4.81
-5.72
-6.41
-6.82
-6.91
-6.62
-5.93
-4.83
-3.38
-1.72
-0.07
1.40
2.50
3.18
3.47
3.47
3.34
3.24
3.24
3.37
3.60
3.85
4.09
4.32
4.58
4.89
5.17
5.31
5.16
4.61
3.68
2.47
1.19
0.00
-0.99
-1.76
-2.36
-2.81
-3.12
-3.30
-3.36
-3.36
-3.38
-3.48
-3.68
-3.89
-3.97
-3.81
-3.37
-2.75
-2.11
-1.56
-1.15
-0.76
-0.24
0.52
1.55
2.72
3.82
4.66
5.12
5.20
4.94
4.42
3.73
2.90
2.00
1.09
0.25
-0.47
-1.05
-1.49
-1.80
-1.99
-2.00
-1.78
-1.33
-0.71
-0.08
0.32
0.26
-0.42
-1.68
-3.36
-5.12
-6.61
-7.52
-7.70
-7.17
-6.06
-4.57
-2.87
-1.11
0.58
2.07
3.22
3.88
4.00
3.67
3.02
2.28
1.61
1.07
0.69
0.41
0.21
0.06
-0.00
0.03
0.19
0.51
0.92
1.33
1.57
1.47
0.95
0.05
-1.05
-2.17
-3.23
-4.25
-5.34
-6.53
-7.68
-8.51
-8.72
-8.15
-6.88
-5.17
-3.36
-1.71
-0.29
0.94
2.06
3.11
4.06
4.80
5.24
5.36
5.23
4.95
4.63
4.36
4.10
3.83
3.51
3.13
2.69
2.23
1.71
1.11
0.44
-0.23
-0.78
-1.12
-1.25
-1.32
-1.55
-2.13
-3.15
-4.50
-5.94
-7.15
-7.87
-7.89
-7.21
-5.93
-4.30
-2.57
-0.99
0.32
1.31
2.04
2.56
2.89
3.07
3.11
3.07
2.98
2.88
2.74
2.55
2.33
2.17
2.17
2.42
2.86
3.34
3.64
3.64
3.31
2.77
2.10
1.34
0.42
-0.77
-2.28
-4.05
-5.88
-7.55
-8.90
-9.77
-10.12
-9.87
-9.01
-7.57
-5.69
-3.57
-1.46
0.44
2.00
3.17
3.97
4.44
4.61
4.54
4.29
3.96
3.63
3.39
3.24
3.19
3.17
3.09
2.85
2.39
1.68
0.78
-0.20
-1.14
-1.97
-2.64
-3.19
-3.72
-4.28
-4.95
-5.74
-6.58
-7.37
-7.95
-8.16
-7.93
-7.26
-6.25
-5.03
-3.67
-2.21
-0.64
1.02
2.71
4.29
5.63
6.63
7.31
7.76
8.05
8.23
8.25
8.07
7.63
6.95
6.11
5.23
4.41
3.72
3.15
2.63
2.07
1.35
0.40
-0.82
-2.28
-3.93
-5.70
-7.47
-9.10
-10.41
-11.22
-11.36
-10.74
-9.41
-7.55
-5.36
-3.09
-0.92
1.08
2.81
4.22
5.26
5.87
6.02
5.78
5.28
4.67
4.06
3.53
3.06
2.67
2.33
2.09
1.94
1.89
1.87
1.83
1.69
1.44
1.10
0.66
0.11
-0.60
-1.53
-2.69
-3.99
-5.23
-6.17
-6.57
-6.29
-5.32
-3.78
-1.88
0.15
2.17
4.13
5.95
7.57
8.86
9.67
9.95
9.77
9.30
8.78
8.40
8.18
8.04
7.84
7.45
6.85
6.14
5.46
4.91
4.54
4.27
3.98
3.56
2.94
2.17
1.34
0.55
-0.22
-1.06
-2.10
-3.41
-4.93
-6.42
-7.53
-7.93
-7.44
-6.12
-4.19
-1.97
0.25
2.29
4.05
5.48
6.52
7.14
7.32
7.16
6.83
6.54
6.47
6.69
7.14
7.70
8.21
8.53
8.62
8.46
8.12
7.69
7.26
6.94
6.80
6.80
6.86
6.83
6.56
5.96
5.01
3.82
2.56
1.45
0.63
0.12
-0.19
-0.51
-0.98
-1.67
-2.45
-3.03
-3.15
-2.58
-1.25
0.74
3.12
5.54
7.60
8.92
9.21
8.43
6.75
4.58
2.37
0.44
-1.11
-2.35
-3.43
-4.45
-5.37
-6.11
-6.58
-6.84
-7.02
-7.28
-7.61
-7.91
-7.95
-7.54
-6.65
-5.39
-4.00
-2.71
-1.69
-1.06
-0.88
-1.19
-1.98
-3.15
-4.46
-5.57
-6.11
-5.84
-4.68
-2.77
-0.41
2.07
4.33
6.16
7.45
8.20
8.45
8.32
7.96
7.55
7.23
7.10
7.18
7.38
7.56
7.59
7.30
6.64
5.63
4.37
3.01
1.74
0.67
-0.13
-0.72
-1.17
-1.60
-2.10
-2.71
-3.41
-4.18
-4.96
-5.75
-6.56
-7.44
-8.43
-9.53
-10.63
-11.53
-11.98
-11.78
-10.89
-9.44
-7.70
-5.96
-4.40
-3.10
-2.03
-1.18
-0.56
-0.24
-0.24
-0.49
-0.83
-1.05
-1.01
-0.68
-0.16
0.37
0.77
0.98
1.04
0.98
0.86
0.70
0.51
0.29
0.08
-0.12
-0.32
-0.62
-1.09
-1.72
-2.45
-3.11
-3.60
-3.87
-4.02
-4.17
-4.38
-4.61
-4.69
-4.46
-3.82
-2.82
-1.61
-0.40
0.64
1.44
2.02
2.42
2.73
3.00
3.29
3.61
3.96
4.28
4.54
4.70
4.80
4.85
4.90
4.95
4.97
4.89
4.65
4.26
3.75
3.21
2.71
2.34
2.09
1.92
1.75
1.51
1.14
0.64
0.04
-0.59
-1.16
-1.59
-1.80
-1.70
-1.23
-0.40
0.71
1.93
3.08
3.95
4.43
4.52
4.31
3.96
3.57
3.23
2.91
2.57
2.18
1.80
1.51
1.37
1.36
1.41
1.40
1.30
1.11
0.93
0.80
0.70
0.50
0.09
-0.57
-1.40
-2.24
-2.91
-3.31
-3.45
-3.38
-3.25
-3.11
-2.97
-2.80
-2.54
-2.11
-1.50
-0.75
0.07
0.85
1.51
1.98
2.24
2.26
2.07
1.65
1.06
0.38
-0.26
-0.74
-0.96
-0.92
-0.68
-0.36
-0.09
0.07
0.09
-0.02
-0.24
-0.54
-0.96
-1.48
-2.08
-2.71
-3.30
-3.79
-4.17
-4.43
-4.62
-4.80
-5.01
-5.35
-5.81
-6.36
-6.86
-7.13
-7.01
-6.39
-5.37
-4.11
-2.84
-1.72
-0.77
0.06
0.81
1.46
1.88
1.98
1.74
1.25
0.71
0.34
0.25
0.40
0.64
0.83
0.86
0.77
0.67
0.64
0.69
0.74
0.64
0.31
-0.24
-0.94
-1.62
-2.19
-2.60
-2.88
-3.10
-3.27
-3.41
-3.49
-3.52
-3.56
-3.71
-4.00
-4.43
-4.86
-5.13
-5.09
-4.64
-3.83
-2.78
-1.66
-0.61
0.30
1.04
1.62
2.09
2.44
2.62
2.61
2.43
2.14
1.86
1.71
1.75
1.95
2.21
2.40
2.47
2.45
2.43
2.53
2.76
3.04
3.24
3.20
2.87
2.29
1.60
0.94
0.42
0.04
-0.26
-0.54
-0.85
-1.20
-1.56
-1.92
-2.31
-2.76
-3.30
-3.92
-4.57
-5.13
-5.46
-5.44
-5.04
-4.29
-3.27
-2.14
-1.04
-0.10
0.61
1.07
1.30
1.34
1.23
1.02
0.76
0.50
0.33
0.33
0.55
0.97
1.50
1.99
2.29
2.32
2.16
1.93
1.80
1.82
1.93
1.98
1.84
1.45
0.90
0.28
-0.31
-0.87
-1.43
-2.01
-2.58
-3.04
-3.33
-3.42
-3.48
-3.67
-4.14
-4.87
-5.71
-6.37
-6.61
-6.30
-5.44
-4.20
-2.78
-1.40
-0.20
0.75
1.46
1.95
2.27
2.43
2.45
2.34
2.16
1.98
1.91
2.00
2.24
2.49
2.64
2.60
2.39
2.15
2.02
2.09
2.32
2.57
2.63
2.41
1.92
1.29
0.72
0.33
0.14
0.10
0.06
-0.06
-0.27
-0.52
-0.75
-0.90
-1.04
-1.27
-1.70
-2.42
-3.38
-4.46
-5.44
-6.07
-6.15
-5.56
-4.38
-2.77
-1.03
0.60
1.95
2.95
3.66
4.11
4.34
4.35
4.12
3.65
3.02
2.36
1.83
1.58
1.65
1.99
2.48
2.94
3.21
3.19
2.90
2.44
1.92
1.48
1.19
1.08
1.12
1.25
1.41
1.51
1.43
1.13
0.58
-0.14
-0.88
-1.45
-1.77
-1.90
-2.04
-2.44
-3.24
-4.34
-5.46
-6.23
-6.39
-5.88
-4.85
-3.57
-2.23
-0.94
0.30
1.50
2.58
3.44
3.94
4.04
3.82
3.48
3.21
3.16
3.36
3.73
4.14
4.51
4.82
5.13
5.50
6.00
6.59
7.19
7.68
7.97
8.03
7.87
7.52
7.03
6.41
5.66
4.79
3.77
2.60
1.28
-0.20
-1.83
-3.64
-5.60
-7.71
-9.93
-12.14
-14.13
-15.63
-16.36
-16.12
-14.96
-13.10
-10.97
-8.97
-7.44
-6.50
-6.15
-6.33
-7.00
-8.16
-9.75
-11.59
-13.25
-14.22
-14.06
-12.57
-9.88
-6.43
-2.78
0.55
3.17
4.85
5.51
5.21
4.10
2.44
0.62
-1.00
-2.16
-2.78
-2.99
-3.01
-3.07
-3.23
-3.49
-3.68
-3.69
-3.45
-2.94
-2.13
-1.05
0.23
1.55
2.68
3.40
3.60
3.34
2.84
2.36
2.06
1.96
1.97
1.95
1.84
1.64
1.43
1.29
1.25
1.29
1.34
1.34
1.25
1.01
0.62
0.09
-0.53
-1.19
-1.85
-2.48
-3.08
-3.65
-4.21
-4.75
-5.28
-5.76
-6.17
-6.42
-6.43
-6.11
-5.45
-4.46
-3.26
-2.00
-0.84
0.04
0.55
0.63
0.32
-0.27
-0.96
-1.58
-2.02
-2.27
-2.44
-2.70
-3.19
-3.98
-5.01
-6.16
-7.28
-8.29
-9.24
-10.26
-11.55
-13.21
-15.22
-17.34
-19.27
-20.80
-21.93
-22.98
-24.50
-26.99
-30.63
-35.21
-40.07
-44.50
-47.99
-50.31
-51.45
-51.29
-49.38
-44.89
-36.97
-25.30
-10.32
6.78
24.57
41.92
58.21
73.16
86.39
97.45
106.14
113.29
121.16
132.94
151.34
176.87
206.80
235.60
256.84
265.66
260.53
243.49
218.83
191.15
163.75
138.07
114.15
91.64
70.65
51.85
36.07
23.70
14.28
6.67
-0.32
-7.37
-14.30
-20.40
-24.99
-28.07
-30.62
-34.20
-40.21
-49.10
-60.07
-71.39
-81.17
-88.15
-92.11
-93.64
-93.63
-92.65
-90.74
-87.53
-82.65
-76.01
-67.98
-59.21
-50.42
-42.18
-34.82
-28.53
-23.40
-19.54
-17.06
-16.03
-16.39
-17.95
-20.34
-23.16
-26.06
-28.88
-31.60
-34.35
-37.23
-40.21
-43.04
-45.35
-46.77
-47.09
-46.38
-44.92
-43.09
-41.24
-39.51
-37.87
-36.19
-34.39
-32.48
-30.60
-28.87
-27.36
-25.98
-24.55
-22.93
-21.12
-19.33
-17.83
-16.74
-15.98
-15.21
-14.05
-12.31
-10.11
-7.84
-5.97
-4.80
-4.31
-4.25
-4.32
-4.38
-4.55
-5.06
-6.12
-7.69
-9.52
-11.18
-12.29
-12.64
-12.27
-11.38
-10.21
-8.88
-7.38
-5.59
-3.39
-0.78
2.13
5.12
7.92
10.17
11.43
11.29
9.47
6.15
2.03
-1.71
-3.87
-3.83
-1.89
0.72
2.43
2.00
-0.86
-5.42
-10.39
-14.43
-16.76
-17.37
-16.82
-16.06
-16.12
-17.85
-21.72
-27.58
-34.64
-41.70
-47.69
-52.32
-56.36
-61.23
-68.20
-77.38
-87.16
-94.40
-95.52
-87.91
-70.98
-46.56
-18.44
8.50
29.69
42.18
45.68
42.65
37.56
35.19
38.82
48.94
63.20
77.29
86.49
87.27
78.50
62.12
42.85
27.10
20.91
27.76
47.08
74.11
101.72
123.15
134.47
135.49
128.77
117.71
104.96
91.85
78.94
66.90
56.91
50.23
47.48
48.13
50.51
52.41
51.96
48.27
41.83
34.23
27.55
23.54
22.94
25.26
28.89
31.86
32.49
30.05
24.89
18.36
12.20
8.04
7.06
9.77
15.97
24.58
33.38
39.01
37.39
25.10
0.98
-32.66
-70.22
-104.42
-129.07
-141.31
-142.38
-136.39
-127.96
-120.00
-112.83
-105.12
-95.53
-84.22
-73.00
-64.15
-58.81
-56.13
-53.62
-48.80
-40.94
-31.78
-24.87
-23.87
-30.65
-44.34
-61.77
-78.68
-91.01
-95.51
-89.75
-72.35
-43.89
-8.09
27.69
53.93
62.28
49.29
18.53
-20.39
-55.78
-78.49
-85.19
-78.42
-63.91
-47.02
-30.60
-15.02
0.03
13.68
23.55
26.85
22.27
11.10
-2.86
-14.98
-21.81
-22.42
-18.48
-13.10
-9.19
-8.17
-9.68
-12.18
-14.04
-14.42
-13.57
-12.57
-12.55
-14.16
-17.26
-21.05
-24.62
-27.33
-29.13
-30.45
-31.93
-34.06
-36.92
-40.19
-43.24
-45.37
-46.02
-44.92
-42.23
-38.43
-34.27
-30.53
-27.83
-26.47
-26.40
-27.21
-28.29
-28.95
-28.48
-26.36
-22.34
-16.57
-9.57
-2.13
4.95
11.08
16.03
19.87
22.81
25.01
26.58
27.54
27.93
27.94
27.78
27.67
27.69
27.79
27.84
27.71
27.36
26.85
26.23
25.59
24.90
24.09
23.09
21.88
20.50
19.05
17.65
16.35
15.15
13.95
12.68
11.26
9.69
8.00
6.29
4.60
2.99
1.48
0.05
-1.33
-2.76
-4.34
-6.19
-8.29
-10.48
-12.33
-13.30
-12.95
-11.07
-7.90
-3.97
0.05
3.64
6.54
8.80
10.56
11.96
13.04
13.76
14.17
14.36
14.53
14.81
15.24
15.72
16.10
16.33
16.38
16.34
16.23
16.04
15.73
15.28
14.73
14.16
13.65
13.17
12.65
11.95
11.00
9.82
8.53
7.29
6.19
5.27
4.42
3.52
2.37
0.84
-1.11
-3.45
-5.99
-8.44
-10.46
-11.64
-11.66
-10.31
-7.61
-3.84
0.47
4.75
8.44
11.27
13.21
14.49
15.38
16.07
16.59
16.85
16.77
16.41
15.94
15.59
15.48
15.60
15.79
15.85
15.65
15.19
14.55
13.83
13.08
12.24
11.26
10.09
8.75
7.35
6.03
4.92
4.08
3.45
2.90
2.30
1.49
0.37
-1.09
-2.88
-4.86
-6.82
-8.40
-9.22
-8.96
-7.47
-4.89
-1.55
2.05
5.46
8.35
10.58
12.12
13.02
13.33
13.15
12.64
11.95
11.31
10.86
10.71
10.87
11.27
11.76
12.24
12.57
12.67
12.52
12.15
11.56
10.80
9.86
8.77
7.57
6.31
5.06
3.84
2.65
1.43
0.13
-1.31
-2.91
-4.63
-6.33
-7.76
-8.58
-8.48
-7.31
-5.15
-2.30
0.82
3.85
6.52
8.72
10.42
11.60
12.24
12.36
12.07
11.55
11.04
10.69
10.57
10.62
10.72
10.73
10.55
10.18
9.62
8.94
8.19
7.41
6.63
5.83
4.94
3.95
2.82
1.58
0.30
-0.95
-2.18
-3.49
-5.02
-6.87
-9.06
-11.35
-13.35
-14.57
-14.64
-13.41
-11.02
-7.87
-4.43
-1.15
1.69
3.99
5.76
7.06
7.93
8.44
8.65
8.65
8.56
8.49
8.47
8.46
8.40
8.25
8.02
7.76
7.51
7.27
6.96
6.51
5.88
5.05
4.04
2.92
1.75
0.59
-0.52
-1.54
-2.51
-3.50
-4.62
-6.00
-7.67
-9.54
-11.36
-12.78
-13.42
-13.02
-11.54
-9.15
-6.19
-3.04
-0.01
2.72
5.06
6.98
8.42
9.30
9.61
9.44
8.95
8.42
8.07
8.03
8.28
8.69
9.06
9.19
9.02
8.55
7.89
7.20
6.58
6.01
5.38
4.57
3.51
2.26
0.94
-0.30
-1.35
-2.24
-3.06
-3.92
-4.88
-5.95
-7.09
-8.31
-9.63
-11.02
-12.34
-13.29
-13.53
-12.74
-10.82
-7.98
-4.66
-1.38
1.49
3.79
5.57
6.94
7.99
8.68
8.97
8.87
8.53
8.18
7.99
8.01
8.11
8.05
7.68
7.01
6.18
5.42
4.89
4.56
4.31
3.91
3.20
2.15
0.86
-0.49
-1.75
-2.78
-3.59
-4.21
-4.72
-5.22
-5.79
-6.50
-7.38
-8.46
-9.68
-10.89
-11.82
-12.19
-11.73
-10.33
-8.08
-5.24
-2.19
0.72
3.20
5.14
6.51
7.33
7.67
7.60
7.19
6.59
5.96
5.49
5.31
5.43
5.75
6.05
6.12
5.79
5.09
4.17
3.25
2.54
2.09
1.79
1.46
0.94
0.17
-0.75
-1.68
-2.52
-3.27
-4.00
-4.84
-5.86
-7.03
-8.28
-9.48
-10.51
-11.22
-11.48
-11.09
-9.94
-8.02
-5.45
-2.50
0.49
3.22
5.42
6.97
7.80
7.99
7.64
6.94
6.12
5.41
5.02
5.00
5.30
5.75
6.13
6.26
6.01
5.40
4.51
3.50
2.54
1.72
1.06
0.49
-0.10
-0.81
-1.66
-2.58
-3.47
-4.29
-5.07
-5.96
-7.12
-8.60
-10.31
-11.98
-13.27
-13.90
-13.68
-12.61
-10.81
-8.48
-5.81
-3.00
-0.28
2.18
4.22
5.74
6.70
7.15
7.17
6.92
6.48
5.96
5.45
5.01
4.73
4.63
4.70
4.86
5.03
5.11
5.04
4.79
4.35
3.70
2.84
1.76
0.51
-0.79
-2.04
-3.15
-4.10
-4.97
-5.88
-6.94
-8.21
-9.69
-11.29
-12.85
-14.10
-14.77
-14.60
-13.44
-11.34
-8.54
-5.43
-2.39
0.29
2.46
4.11
5.31
6.15
6.67
6.88
6.85
6.67
6.48
6.45
6.66
7.06
7.49
7.72
7.58
7.07
6.32
5.56
4.95
4.56
4.27
3.92
3.33
2.43
1.29
0.05
-1.13
-2.10
-2.84
-3.41
-3.94
-4.60
-5.50
-6.71
-8.20
-9.84
-11.41
-12.60
-13.09
-12.63
-11.10
-8.66
-5.65
-2.58
0.13
2.23
3.70
4.68
5.34
5.80
6.08
6.18
6.11
5.99
5.97
6.15
6.57
7.14
7.70
8.11
8.27
8.19
7.92
7.52
7.02
6.46
5.81
5.09
4.27
3.34
2.30
1.16
-0.05
-1.26
-2.43
-3.50
-4.44
-5.29
-6.12
-7.01
-8.09
-9.42
-10.99
-12.62
-13.98
-14.73
-14.55
-13.34
-11.18
-8.34
-5.20
-2.10
0.69
2.99
4.72
5.87
6.48
6.66
6.54
6.25
5.91
5.64
5.58
5.83
6.40
7.21
8.04
8.63
8.80
8.50
7.84
7.03
6.28
5.70
5.28
4.88
4.36
3.62
2.65
1.51
0.33
-0.72
-1.57
-2.22
-2.74
-3.25
-3.90
-4.75
-5.84
-7.15
-8.62
-10.06
-11.23
-11.79
-11.48
-10.22
-8.14
-5.57
-2.92
-0.51
1.54
3.26
4.77
6.12
7.27
8.08
8.43
8.29
7.76
7.06
6.49
6.24
6.42
6.97
7.67
8.29
8.60
8.49
7.99
7.24
6.43
5.71
5.18
4.80
4.42
3.90
3.15
2.12
0.89
-0.44
-1.74
-2.89
-3.86
-4.68
-5.45
-6.34
-7.50
-8.96
-10.65
-12.30
-13.57
-14.11
-13.64
-12.07
-9.50
-6.23
-2.67
0.73
3.59
5.66
6.88
7.36
7.33
7.03
6.68
6.45
6.42
6.63
7.04
7.60
8.20
8.76
9.20
9.46
9.53
9.41
9.10
8.61
7.97
7.23
6.47
5.72
5.00
4.25
3.40
2.40
1.29
0.15
-0.88
-1.71
-2.39
-3.03
-3.81
-4.86
-6.23
-7.85
-9.58
-11.20
-12.45
-13.09
-12.92
-11.85
-9.96
-7.50
-4.81
-2.22
0.05
1.93
3.48
4.79
5.92
6.86
7.54
7.93
8.01
7.86
7.61
7.43
7.41
7.59
7.87
8.09
8.14
7.98
7.70
7.43
7.25
7.14
6.95
6.53
5.81
4.80
3.60
2.35
1.12
-0.09
-1.29
-2.52
-3.75
-4.94
-6.05
-7.08
-8.02
-8.86
-9.59
-10.18
-10.55
-10.60
-10.22
-9.28
-7.70
-5.50
-2.86
-0.06
2.56
4.71
6.24
7.15
7.56
7.63
7.50
7.26
6.97
6.68
6.44
6.30
6.31
6.46
6.69
6.86
6.87
6.71
6.40
6.04
5.70
5.38
4.97
4.37
3.49
2.39
1.18
0.03
-0.93
-1.70
-2.32
-2.87
-3.46
-4.15
-5.03
-6.17
-7.61
-9.28
-11.01
-12.51
-13.44
-13.54
-12.66
-10.89
-8.42
-5.59
-2.72
-0.10
2.10
3.83
5.10
6.00
6.58
6.89
6.94
6.74
6.32
5.80
5.31
4.93
4.72
4.62
4.54
4.38
4.13
3.82
3.54
3.35
3.21
3.02
2.62
1.93
0.98
-0.07
-1.04
-1.76
-2.18
-2.42
-2.67
-3.16
-4.03
-5.32
-6.92
-8.62
-10.19
-11.41
-12.11
-12.15
-11.41
-9.85
-7.54
-4.72
-1.70
1.10
3.36
4.93
5.86
6.32
6.48
6.46
6.30
6.04
5.73
5.48
5.40
5.55
5.91
6.35
6.69
6.83
6.73
6.43
6.03
5.61
5.16
4.58
3.77
2.65
1.29
-0.16
-1.53
-2.70
-3.67
-4.52
-5.36
-6.25
-7.19
-8.17
-9.21
-10.34
-11.57
-12.78
-13.74
-14.15
-13.75
-12.47
-10.39
-7.82
-5.10
-2.57
-0.41
1.34
2.74
3.89
4.83
5.55
6.01
6.16
6.05
5.80
5.55
5.41
5.39
5.43
5.42
5.30
5.08
4.82
4.60
4.39
4.10
3.60
2.83
1.77
0.56
-0.62
-1.59
-2.28
-2.73
-3.12
-3.68
-4.55
-5.81
-7.35
-8.97
-10.39
-11.36
-11.64
-11.09
-9.70
-7.63
-5.14
-2.56
-0.21
1.71
3.16
4.19
4.90
5.37
5.61
5.60
5.38
5.00
4.60
4.28
4.12
4.08
4.05
3.95
3.68
3.26
2.75
2.19
1.63
1.07
0.48
-0.19
-0.95
-1.78
-2.65
-3.45
-4.12
-4.65
-5.10
-5.64
-6.43
-7.58
-9.02
-10.49
-11.59
-11.89
-11.15
-9.39
-6.89
-4.04
-1.26
1.18
3.13
4.56
5.49
6.00
6.14
6.00
5.70
5.34
5.05
4.88
4.86
4.94
5.03
5.00
4.78
4.36
3.85
3.36
2.99
2.71
2.36
1.81
1.00
0.02
-0.96
-1.83
-2.62
-3.46
-4.57
-6.03
-7.77
-9.57
-11.14
-12.26
-12.72
-12.42
-11.29
-9.37
-6.81
-3.87
-0.94
1.65
3.67
5.05
5.90
6.35
6.56
6.59
6.48
6.25
5.98
5.81
5.84
6.08
6.41
6.65
6.60
6.25
5.67
5.03
4.41
3.79
3.05
2.08
0.92
-0.26
-1.27
-2.03
-2.63
-3.28
-4.21
-5.51
-7.14
-8.94
-10.74
-12.32
-13.49
-13.99
-13.60
-12.20
-9.88
-6.96
-3.85
-1.03
1.24
2.89
4.06
4.97
5.84
6.75
7.68
8.53
9.16
9.49
9.53
9.33
8.99
8.57
8.08
7.47
6.76
5.94
5.11
4.35
3.73
3.22
2.73
2.17
1.44
0.55
-0.44
-1.44
-2.40
-3.33
-4.28
-5.35
-6.61
-8.12
-9.85
-11.69
-13.41
-14.72
-15.29
-14.88
-13.41
-11.02
-8.04
-4.88
-1.89
0.70
2.83
4.53
5.88
6.95
7.76
8.32
8.63
8.72
8.68
8.58
8.55
8.66
8.90
9.20
9.41
9.40
9.10
8.51
7.75
6.97
6.27
5.69
5.19
4.70
4.13
3.42
2.55
1.50
0.31
-0.99
-2.33
-3.63
-4.80
-5.81
-6.74
-7.76
-9.07
-10.79
-12.83
-14.91
-16.54
-17.33
-17.01
-15.62
-13.35
-10.48
-7.24
-3.82
-0.37
2.91
5.80
8.13
9.79
10.81
11.32
11.43
11.30
11.09
10.96
11.03
11.38
11.96
12.60
13.14
13.45
13.47
13.21
12.69
11.95
11.01
9.93
8.82
7.80
6.92
6.19
5.53
4.85
4.04
3.07
1.93
0.65
-0.67
-1.95
-3.09
-4.11
-5.09
-6.18
-7.49
-9.05
-10.71
-12.24
-13.36
-13.84
-13.54
-12.45
-10.67
-8.36
-5.77
-3.17
-0.77
1.28
2.94
4.24
5.27
6.12
6.82
7.40
7.85
8.20
8.44
8.59
8.63
8.59
8.47
8.29
8.08
7.87
7.70
7.50
7.22
6.78
6.13
5.30
4.42
3.65
3.10
2.78
2.61
2.40
2.03
1.42
0.62
-0.31
-1.25
-2.12
-2.87
-3.50
-4.06
-4.68
-5.51
-6.66
-8.13
-9.75
-11.19
-12.06
-12.07
-11.13
-9.37
-7.04
-4.47
-1.94
0.33
2.19
3.58
4.54
5.16
5.58
5.88
6.13
6.33
6.47
6.58
6.70
6.90
7.16
7.42
7.53
7.36
6.89
6.20
5.44
4.77
4.27
3.91
3.60
3.25
2.79
2.21
1.50
0.66
-0.28
-1.27
-2.22
-3.08
-3.77
-4.34
-4.85
-5.38
-5.99
-6.70
-7.49
-8.34
-9.21
-9.97
-10.45
-10.42
-9.70
-8.25
-6.20
-3.90
-1.70
0.12
1.45
2.33
2.91
3.31
3.62
3.86
4.04
4.18
4.30
4.46
4.62
4.77
4.86
4.85
4.74
4.54
4.28
3.96
3.62
3.27
2.96
2.70
2.46
2.19
1.81
1.25
0.54
-0.22
-0.89
-1.36
-1.64
-1.83
-2.13
-2.70
-3.63
-4.84
-6.20
-7.47
-8.43
-8.90
-8.80
-8.11
-6.92
-5.40
-3.73
-2.10
-0.66
0.54
1.51
2.28
2.93
3.50
3.99
4.42
4.77
5.05
5.25
5.37
5.41
5.39
5.33
5.21
4.99
4.63
4.14
3.58
3.09
2.75
2.57
2.45
2.20
1.62
0.65
-0.67
-2.14
-3.52
-4.63
-5.42
-5.94
-6.33
-6.75
-7.34
-8.15
-9.12
-10.14
-11.03
-11.62
-11.73
-11.24
-10.12
-8.47
-6.47
-4.36
-2.34
-0.58
0.84
1.91
2.66
3.12
3.33
3.32
3.14
2.87
2.62
2.50
2.57
2.83
3.20
3.57
3.81
3.83
3.64
3.30
2.87
2.43
1.98
1.48
0.89
0.22
-0.50
-1.19
-1.80
-2.28
-2.65
-2.96
-3.26
-3.63
-4.14
-4.83
-5.72
-6.83
-8.06
-9.29
-10.33
-10.96
-11.00
-10.33
-8.99
-7.17
-5.17
-3.26
-1.66
-0.43
0.50
1.26
1.90
2.44
2.80
2.91
2.79
2.55
2.37
2.39
2.64
3.06
3.52
3.92
4.19
4.33
4.35
4.28
4.10
3.80
3.35
2.76
2.05
1.26
0.45
-0.36
-1.07
-1.65
-2.07
-2.36
-2.60
-2.89
-3.32
-3.89
-4.59
-5.35
-6.14
-6.96
-7.79
-8.56
-9.10
-9.18
-8.60
-7.32
-5.48
-3.39
-1.39
0.28
1.51
2.35
2.87
3.18
3.30
3.27
3.11
2.91
2.78
2.79
2.96
3.19
3.39
3.41
3.24
2.90
2.51
2.16
1.92
1.79
1.71
1.61
1.43
1.14
0.76
0.33
-0.11
-0.52
-0.92
-1.34
-1.82
-2.38
-3.00
-3.68
-4.42
-5.26
-6.23
-7.29
-8.29
-9.02
-9.26
-8.84
-7.78
-6.20
-4.32
-2.37
-0.55
1.00
2.18
2.90
3.17
3.08
2.78
2.48
2.32
2.33
2.46
2.61
2.72
2.75
2.73
2.68
2.62
2.53
2.35
2.07
1.70
1.25
0.75
0.23
-0.32
-0.91
-1.55
-2.24
-2.92
-3.50
-3.87
-3.96
-3.80
-3.54
-3.40
-3.57
-4.20
-5.24
-6.48
-7.63
-8.39
-8.55
-8.09
-7.10
-5.77
-4.29
-2.80
-1.36
0.01
1.26
2.34
3.14
3.58
3.67
3.48
3.13
2.74
2.38
2.08
1.85
1.69
1.62
1.64
1.74
1.87
1.92
1.81
1.48
0.97
0.35
-0.26
-0.76
-1.11
-1.35
-1.55
-1.78
-2.10
-2.54
-3.10
-3.78
-4.57
-5.46
-6.42
-7.37
-8.16
-8.63
-8.61
-7.97
-6.73
-5.04
-3.19
-1.47
-0.13
0.76
1.25
1.52
1.70
1.84
1.96
2.03
2.05
2.06
2.11
2.17
2.24
2.27
2.23
2.17
2.11
2.06
1.96
1.71
1.22
0.49
-0.41
-1.30
-2.01
-2.48
-2.72
-2.85
-3.02
-3.33
-3.81
-4.44
-5.17
-5.89
-6.50
-6.83
-6.73
-6.08
-4.88
-3.27
-1.49
0.15
1.47
2.36
2.84
2.97
2.85
2.55
2.17
1.83
1.66
1.75
2.12
2.71
3.42
4.09
4.58
4.78
4.65
4.18
3.44
2.55
1.63
0.83
0.20
-0.27
-0.63
-0.99
-1.43
-2.04
-2.88
-3.97
-5.29
-6.70
-8.02
-9.00
-9.42
-9.11
-8.07
-6.41
-4.34
-2.16
-0.16
1.47
2.63
3.34
3.71
3.88
3.99
4.13
4.33
4.52
4.64
4.63
4.48
4.25
4.04
3.89
3.80
3.69
3.47
3.13
2.69
2.18
1.63
1.03
0.34
-0.44
-1.27
-2.05
-2.72
-3.30
-3.84
-4.51
-5.40
-6.57
-7.93
-9.28
-10.32
-10.73
-10.29
-8.95
-6.91
-4.53
-2.22
-0.29
1.14
2.13
2.82
3.30
3.61
3.71
3.60
3.37
3.16
3.17
3.45
3.95
4.48
4.83
4.89
4.65
4.21
3.70
3.26
2.92
2.66
2.43
2.12
1.70
1.16
0.49
-0.25
-1.06
-1.91
-2.84
-3.88
-5.10
-6.52
-8.07
-9.61
-10.87
-11.57
-11.51
-10.61
-8.99
-6.96
-4.82
-2.86
-1.17
0.26
1.53
2.70
3.74
4.57
5.12
5.40
5.48
5.47
5.47
5.49
5.50
5.47
5.37
5.23
5.07
4.91
4.73
4.47
4.10
3.67
3.21
2.77
2.33
1.84
1.28
0.65
0.02
-0.54
-0.99
-1.39
-1.86
-2.53
-3.46
-4.63
-5.94
-7.24
-8.33
-9.00
-9.04
-8.28
-6.74
-4.62
-2.29
-0.14
1.56
2.77
3.63
4.35
5.06
5.73
6.22
6.38
6.22
5.89
5.63
5.63
5.93
6.35
6.66
6.66
6.32
5.77
5.26
4.97
4.91
4.93
4.80
4.37
3.60
2.64
1.66
0.81
0.12
-0.51
-1.18
-1.98
-2.93
-3.99
-5.12
-6.28
-7.44
-8.51
-9.38
-9.89
-9.89
-9.24
-7.95
-6.14
-4.02
-1.90
-0.06
1.35
2.33
2.97
3.45
3.84
4.16
4.35
4.37
4.24
4.09
4.02
4.03
4.07
4.03
3.83
3.52
3.19
2.94
2.78
2.67
2.52
2.30
1.99
1.66
1.34
1.07
0.83
0.60
0.37
0.11
-0.25
-0.77
-1.52
-2.50
-3.67
-4.91
-6.09
-7.08
-7.78
-8.08
-7.88
-7.14
-5.88
-4.25
-2.42
-0.62
1.00
2.33
3.30
3.92
4.14
4.05
3.77
3.48
3.39
3.57
3.97
4.43
4.74
4.79
4.58
4.28
4.05
4.00
4.12
4.24
4.15
3.65
2.65
1.26
-0.32
-1.81
-2.96
-3.64
-3.90
-3.90
-3.90
-4.11
-4.64
-5.49
-6.52
-7.48
-8.11
-8.15
-7.47
-6.09
-4.15
-1.93
0.26
2.16
3.58
4.42
4.71
4.54
4.07
3.48
2.98
2.70
2.70
2.95
3.34
3.79
4.19
4.51
4.68
4.67
4.43
3.99
3.42
2.80
2.16
1.47
0.63
-0.39
-1.57
-2.79
-3.89
-4.74
-5.34
-5.83
-6.39
-7.16
-8.12
-9.06
-9.65
-9.55
-8.58
-6.81
-4.54
-2.12
0.09
1.89
3.20
4.06
4.51
4.62
4.47
4.17
3.88
3.72
3.76
4.00
4.34
4.68
4.92
5.00
4.92
4.74
4.48
4.20
3.87
3.42
2.81
1.98
0.97
-0.17
-1.36
-2.53
-3.64
-4.72
-5.78
-6.84
-7.92
-9.03
-10.14
-11.23
-12.19
-12.82
-12.92
-12.30
-10.89
-8.80
-6.28
-3.68
-1.29
0.67
2.15
3.18
3.86
4.27
4.43
4.41
4.26
4.11
4.08
4.27
4.72
5.29
5.82
6.09
5.98
5.53
4.87
4.18
3.62
3.18
2.76
2.25
1.54
0.64
-0.33
-1.26
-2.03
-2.66
-3.26
-4.04
-5.14
-6.65
-8.48
-10.36
-12.00
-13.06
-13.35
-12.78
-11.38
-9.28
-6.66
-3.79
-0.97
1.54
3.57
5.06
6.06
6.67
6.99
7.09
7.03
6.88
6.73
6.71
6.85
7.14
7.49
7.80
7.97
7.99
7.84
7.53
7.10
6.57
5.96
5.31
4.59
3.76
2.80
1.68
0.46
-0.76
-1.88
-2.82
-3.60
-4.32
-5.12
-6.11
-7.34
-8.73
-10.14
-11.35
-12.10
-12.17
-11.40
-9.80
-7.52
-4.88
-2.23
0.15
2.13
3.75
5.14
6.37
7.38
8.08
8.37
8.32
8.13
8.07
8.34
8.96
9.76
10.47
10.87
10.82
10.33
9.51
8.52
7.53
6.66
5.98
5.46
5.00
4.48
3.79
2.95
2.01
1.06
0.18
-0.58
-1.27
-1.92
-2.59
-3.36
-4.28
-5.42
-6.81
-8.38
-9.95
-11.23
-11.90
-11.69
-10.52
-8.49
-5.89
-3.08
-0.38
1.97
3.89
5.38
6.44
7.07
7.25
7.06
6.62
6.17
5.92
5.98
6.34
6.85
7.33
7.65
7.73
7.56
7.16
6.59
5.90
5.21
4.62
4.19
3.88
3.55
3.05
2.29
1.30
0.23
-0.76
-1.56
-2.13
-2.54
-2.92
-3.40
-4.10
-5.08
-6.31
-7.68
-9.00
-10.01
-10.48
-10.22
-9.17
-7.47
-5.31
-2.97
-0.69
1.36
3.08
4.38
5.21
5.55
5.41
4.92
4.28
3.70
3.40
3.49
3.96
4.70
5.52
6.21
6.61
6.63
6.32
5.82
5.27
4.79
4.35
3.86
3.22
2.37
1.36
0.33
-0.59
-1.33
-1.91
-2.43
-2.99
-3.66
-4.44
-5.31
-6.26
-7.25
-8.19
-8.94
-9.29
-9.04
-8.09
-6.46
-4.38
-2.11
0.09
2.05
3.73
5.08
6.09
6.65
6.72
6.32
5.61
4.87
4.34
4.19
4.41
4.84
5.28
5.54
5.60
5.49
5.30
5.07
4.75
4.24
3.44
2.39
1.22
0.12
-0.78
-1.45
-1.99
-2.55
-3.26
-4.17
-5.23
-6.41
-7.67
-8.99
-10.28
-11.38
-12.04
-12.04
-11.23
-9.63
-7.44
-4.95
-2.44
-0.12
1.90
3.58
4.88
5.79
6.29
6.38
6.14
5.70
5.19
4.75
4.48
4.40
4.48
4.63
4.74
4.70
4.48
4.12
3.74
3.42
3.21
3.03
2.74
2.20
1.35
0.25
-0.95
-2.09
-3.08
-3.93
-4.72
-5.56
-6.57
-7.83
-9.35
-11.07
-12.81
-14.26
-15.07
-14.95
-13.75
-11.58
-8.75
-5.65
-2.65
0.01
2.23
3.98
5.27
6.06
6.35
6.18
5.64
4.93
4.24
3.73
3.53
3.64
4.00
4.44
4.86
5.10
5.14
5.01
4.79
4.56
4.35
4.07
3.57
2.76
1.64
0.37
-0.81
-1.68
-2.17
-2.35
-2.44
-2.68
-3.23
-4.17
-5.49
-7.11
-8.88
-10.57
-11.83
-12.25
-11.58
-9.73
-6.99
-3.82
-0.78
1.67
3.35
4.32
4.79
5.02
5.18
5.32
5.42
5.41
5.27
5.07
4.91
4.91
5.14
5.57
6.04
6.42
6.57
6.46
6.14
5.70
5.21
4.71
4.18
3.60
2.94
2.18
1.34
0.49
-0.31
-1.01
-1.57
-2.06
-2.57
-3.18
-3.94
-4.87
-5.93
-7.06
-8.17
-9.15
-9.80
-9.90
-9.29
-7.92
-5.99
-3.81
-1.74
-0.06
1.11
1.82
2.18
2.32
2.35
2.37
2.44
2.63
2.94
3.36
3.81
4.23
4.55
4.74
4.79
4.70
4.51
4.25
3.99
3.78
3.62
3.47
3.25
2.88
2.33
1.63
0.83
0.02
-0.73
-1.42
-2.03
-2.59
-3.16
-3.77
-4.48
-5.30
-6.21
-7.11
-7.86
-8.25
-8.14
-7.43
-6.15
-4.43
-2.48
-0.53
1.20
2.58
3.55
4.11
4.30
4.19
3.85
3.41
2.93
2.53
2.29
2.26
2.48
2.91
3.42
3.86
4.05
3.92
3.54
3.09
2.75
2.62
2.60
2.53
2.21
1.58
0.64
-0.47
-1.62
-2.68
-3.57
-4.24
-4.68
-4.94
-5.12
-5.41
-5.95
-6.76
-7.71
-8.51
-8.84
-8.48
-7.36
-5.61
-3.50
-1.36
0.52
1.97
2.92
3.43
3.61
3.56
3.32
2.92
2.40
1.88
1.52
1.47
1.73
2.19
2.59
2.72
2.52
2.11
1.73
1.59
1.73
2.01
2.16
1.97
1.38
0.51
-0.45
-1.30
-2.03
-2.70
-3.44
-4.32
-5.33
-6.39
-7.43
-8.41
-9.31
-10.05
-10.47
-10.30
-9.32
-7.45
-4.85
-1.94
0.77
2.85
4.10
4.60
4.57
4.30
3.99
3.77
3.67
3.72
3.95
4.37
4.91
5.42
5.71
5.67
5.32
4.77
4.18
3.62
3.07
2.44
1.68
0.81
-0.09
-0.91
-1.65
-2.35
-3.11
-3.97
-4.96
-6.09
-7.32
-8.61
-9.87
-10.96
-11.66
-11.73
-11.00
-9.48
-7.36
-4.93
-2.53
-0.42
1.26
2.48
3.27
3.69
3.78
3.60
3.24
2.84
2.58
2.57
2.89
3.45
4.13
4.75
5.15
5.23
4.96
4.37
3.56
2.67
1.77
0.94
0.21
-0.42
-0.99
-1.56
-2.22
-3.03
-4.05
-5.28
-6.65
-8.09
-9.48
-10.68
-11.54
-11.87
-11.49
-10.34
-8.51
-6.29
-4.05
-2.12
-0.64
0.43
1.29
2.13
2.99
3.82
4.47
4.84
4.93
4.86
4.79
4.84
5.06
5.40
5.73
5.94
5.98
5.83
5.54
5.14
4.65
4.05
3.34
2.52
1.67
0.86
0.19
-0.32
-0.70
-1.06
-1.52
-2.20
-3.18
-4.44
-5.91
-7.41
-8.70
-9.47
-9.53
-8.76
-7.28
-5.31
-3.17
-1.11
0.71
2.28
3.62
4.77
5.73
6.47
6.96
7.22
7.29
7.22
7.02
6.69
6.23
5.68
5.13
4.72
4.52
4.55
4.71
4.87
4.87
4.61
4.02
3.11
1.97
0.70
-0.52
-1.57
-2.36
-2.88
-3.24
-3.58
-4.07
-4.80
-5.81
-6.97
-8.08
-8.88
-9.07
-8.48
-7.08
-5.04
-2.66
-0.32
1.67
3.14
4.12
4.73
5.10
5.32
5.38
5.26
4.99
4.66
4.41
4.39
4.65
5.09
5.55
5.83
5.82
5.56
5.17
4.83
4.63
4.53
4.40
4.05
3.34
2.27
0.97
-0.34
-1.45
-2.25
-2.72
-3.00
-3.22
-3.57
-4.14
-4.95
-5.93
-6.91
-7.66
-7.97
-7.69
-6.81
-5.46
-3.80
-2.03
-0.30
1.32
2.76
3.94
4.79
5.26
5.41
5.33
5.22
5.19
5.33
5.62
5.98
6.30
6.50
6.54
6.37
6.03
5.55
5.00
4.48
4.04
3.71
3.49
3.32
3.11
2.78
2.29
1.63
0.87
0.07
-0.72
-1.49
-2.29
-3.16
-4.11
-5.09
-5.99
-6.62
-6.84
-6.54
-5.70
-4.40
-2.79
-1.04
0.71
2.39
3.94
5.31
6.38
7.03
7.16
6.78
6.04
5.17
4.41
3.94
3.84
4.09
4.61
5.23
5.77
6.09
6.06
5.69
5.08
4.35
3.61
2.89
2.15
1.38
0.59
-0.15
-0.78
-1.32
-1.86
-2.53
-3.44
-4.57
-5.83
-7.02
-7.94
-8.41
-8.36
-7.79
-6.77
-5.45
-3.98
-2.47
-1.02
0.34
1.56
2.56
3.25
3.57
3.53
3.24
2.86
2.53
2.37
2.40
2.60
2.89
3.17
3.33
3.32
3.16
2.86
2.49
2.09
1.67
1.22
0.75
0.29
-0.11
-0.45
-0.76
-1.14
-1.65
-2.29
-3.04
-3.85
-4.70
-5.62
-6.57
-7.46
-8.08
-8.21
-7.70
-6.53
-4.85
-2.92
-1.01
0.64
1.90
2.70
3.04
2.98
2.61
2.08
1.57
1.27
1.27
1.63
2.24
2.95
3.58
4.00
4.15
4.02
3.66
3.11
2.41
1.65
0.92
0.31
-0.13
-0.40
-0.60
-0.84
-1.18
-1.63
-2.14
-2.67
-3.21
-3.82
-4.53
-5.32
-6.02
-6.41
-6.30
-5.59
-4.42
-2.99
-1.58
-0.36
0.59
1.31
1.85
2.24
2.47
2.55
2.51
2.44
2.40
2.46
2.64
2.90
3.19
3.46
3.69
3.85
3.93
3.87
3.63
3.14
2.43
1.62
0.87
0.32
0.04
-0.04
-0.06
-0.18
-0.48
-0.99
-1.64
-2.37
-3.13
-3.82
-4.32
-4.41
-3.88
-2.62
-0.70
1.63
3.98
5.99
7.46
8.39
9.00
9.56
10.30
11.34
12.61
13.97
15.29
16.56
17.89
19.47
21.41
23.65
25.96
28.04
29.64
30.72
31.47
32.24
33.37
35.06
37.22
39.51
41.37
42.12
41.11
37.88
32.26
24.51
15.32
5.78
-2.78
-9.02
-12.00
-11.41
-7.76
-2.23
3.63
8.40
11.14
11.46
9.51
5.63
0.19
-6.52
-14.19
-22.40
-30.60
-38.23
-44.91
-50.60
-55.57
-60.21
-64.82
-69.42
-73.66
-76.97
-78.73
-78.50
-76.11
-71.67
-65.43
-57.62
-48.49
-38.30
-27.47
-16.59
-6.46
2.14
8.60
12.66
14.52
14.68
13.87
12.82
12.11
12.05
12.66
13.69
14.74
15.43
15.49
14.91
13.84
12.55
11.29
10.23
9.43
8.88
8.56
8.46
8.60
8.96
9.49
10.05
10.45
10.51
10.10
9.21
7.96
6.56
5.24
4.16
3.37
2.82
2.38
1.94
1.42
0.78
-0.01
-0.99
-2.23
-3.70
-5.22
-6.50
-7.17
-6.98
-5.93
-4.25
-2.35
-0.60
0.73
1.63
2.19
2.50
2.64
2.60
2.43
2.21
2.07
2.11
2.32
2.62
2.93
3.25
3.64
4.18
4.84
5.43
5.69
5.53
5.06
4.59
4.45
4.75
5.29
5.67
5.50
4.60
3.07
1.31
-0.11
-0.50
0.84
4.42
10.27
17.75
25.53
32.04
35.92
36.54
34.07
29.15
22.51
14.72
6.21
-2.38
-10.14
-16.01
-19.20
-19.70
-18.32
-16.46
-15.41
-15.81
-17.55
-19.90
-22.14
-23.89
-25.23
-26.47
-27.91
-29.45
-30.76
-31.45
-31.33
-30.52
-29.41
-28.47
-28.00
-28.13
-28.74
-29.60
-30.34
-30.48
-29.55
-27.28
-23.79
-19.66
-15.78
-13.06
-12.05
-12.73
-14.56
-16.68
-18.23
-18.52
-17.18
-14.13
-9.55
-3.84
2.31
8.09
12.70
15.58
16.61
16.04
14.38
12.17
9.83
7.66
5.81
4.44
3.64
3.37
3.43
3.54
3.46
3.22
3.17
3.80
5.54
8.45
12.24
16.39
20.36
23.79
26.51
28.52
29.84
30.46
30.35
29.52
28.06
26.15
23.99
21.77
19.64
17.67
15.91
14.31
12.70
10.90
8.65
5.84
2.50
-1.13
-4.69
-7.80
-10.22
-11.92
-13.06
-13.86
-14.45
-14.84
-14.94
-14.61
-13.78
-12.50
-10.88
-9.08
-7.23
-5.40
-3.66
-2.04
-0.64
0.46
1.16
1.42
1.29
0.90
0.46
0.23
0.41
1.16
2.46
4.18
6.06
7.78
9.06
9.69
9.58
8.72
7.22
5.24
3.01
0.72
-1.59
-4.05
-6.94
-10.53
-14.83
-19.45
-23.66
-26.57
-27.53
-26.29
-23.15
-18.80
-13.97
-9.30
-5.15
-1.69
0.99
2.76
3.49
3.17
1.92
0.04
-2.08
-4.12
-5.90
-7.42
-8.76
-10.00
-11.13
-12.09
-12.77
-13.08
-13.00
-12.61
-12.03
-11.45
-11.10
-11.11
-11.56
-12.35
-13.30
-14.19
-14.81
-15.00
-14.59
-13.42
-11.36
-8.39
-4.58
-0.20
4.41
8.97
13.27
17.20
20.68
23.59
25.81
27.27
28.01
28.23
28.15
28.00
27.88
27.76
27.52
27.06
26.32
25.35
24.24
23.09
21.94
20.71
19.27
17.43
15.10
12.32
9.22
6.02
2.94
0.19
-2.08
-3.75
-4.75
-5.08
-4.88
-4.46
-4.20
-4.50
-5.54
-7.24
-9.25
-11.08
-12.26
-12.48
-11.62
-9.76
-7.07
-3.80
-0.29
3.06
5.80
7.61
8.35
8.19
7.49
6.69
6.13
5.91
6.02
6.31
6.72
7.22
7.80
8.37
8.79
8.86
8.51
7.86
7.21
7.01
7.65
9.39
12.27
16.02
20.20
24.17
27.23
28.66
27.83
24.35
18.17
9.69
-0.29
-10.64
-20.06
-27.30
-31.38
-31.77
-28.51
-22.17
-13.72
-4.22
5.38
14.38
22.38
29.04
33.95
36.57
36.35
32.97
26.64
18.11
8.57
-0.70
-8.61
-14.54
-18.35
-20.31
-20.89
-20.58
-19.86
-19.03
-18.27
-17.63
-17.06
-16.44
-15.72
-14.89
-14.10
-13.56
-13.46
-13.94
-14.98
-16.43
-18.08
-19.73
-21.20
-22.35
-23.02
-23.06
-22.46
-21.32
-19.96
-18.72
-17.83
-17.25
-16.67
-15.63
-13.83
-11.24
-8.20
-5.18
-2.62
-0.75
0.45
1.10
1.37
1.37
1.14
0.73
0.21
-0.32
-0.76
-1.03
-1.09
-0.89
-0.40
0.35
1.30
2.30
3.19
3.85
4.20
4.26
4.09
3.80
3.48
3.22
3.05
2.96
2.91
2.86
2.76
2.63
2.49
2.35
2.23
2.12
1.98
1.76
1.41
0.86
0.07
-0.90
-1.89
-2.63
-2.78
-2.17
-0.81
0.99
2.80
4.20
4.97
5.13
4.89
4.49
4.10
3.74
3.33
2.83
2.30
1.89
1.79
2.09
2.76
3.62
4.45
5.10
5.52
5.75
5.86
5.86
5.70
5.28
4.52
3.43
2.07
0.54
-1.09
-2.81
-4.66
-6.61
-8.54
-10.20
-11.32
-11.75
-11.56
-11.13
-11.01
-11.71
-13.42
-15.91
-18.57
-20.71
-21.79
-21.63
-20.42
-18.48
-16.13
-13.55
-10.77
-7.85
-4.91
-2.12
0.33
2.41
4.22
5.95
7.75
9.63
11.48
13.06
14.20
14.78
14.82
14.43
13.74
12.86
11.85
10.72
9.49
8.20
6.94
5.78
4.76
3.84
2.99
2.20
1.55
1.19
1.21
1.60
2.16
2.66
2.83
2.53
1.72
0.50
-0.97
-2.50
-3.88
-4.87
-5.28
-5.02
-4.14
-2.89
-1.54
-0.35
0.57
1.23
1.72
2.10
2.37
2.45
2.28
1.89
1.37
0.89
0.57
0.44
0.48
0.63
0.85
1.15
1.53
1.96
2.36
2.60
2.61
2.33
1.83
1.24
0.68
0.25
-0.04
-0.22
-0.35
-0.52
-0.79
-1.22
-1.83
-2.61
-3.52
-4.48
-5.41
-6.24
-6.91
-7.37
-7.52
-7.31
-6.66
-5.57
-4.13
-2.49
-0.83
0.72
2.11
3.33
4.35
5.11
5.50
5.45
4.98
4.26
3.49
2.87
2.45
2.10
1.67
1.06
0.32
-0.35
-0.76
-0.83
-0.68
-0.54
-0.64
-1.08
-1.77
-2.50
-3.09
-3.42
-3.56
-3.64
-3.78
-4.01
-4.27
-4.49
-4.69
-4.96
-5.43
-6.10
-6.82
-7.26
-7.08
-6.07
-4.30
-2.05
0.31
2.45
4.20
5.54
6.54
7.31
7.98
8.63
9.30
9.99
10.62
11.09
11.34
11.35
11.11
10.58
9.70
8.38
6.64
4.61
2.57
0.78
-0.61
-1.66
-2.55
-3.49
-4.57
-5.66
-6.57
-7.09
-7.18
-6.97
-6.68
-6.52
-6.63
-7.03
-7.65
-8.38
-9.07
-9.57
-9.77
-9.57
-8.91
-7.80
-6.33
-4.63
-2.88
-1.27
0.10
1.19
2.06
2.80
3.46
4.07
4.59
4.96
5.15
5.18
5.11
4.99
4.85
4.69
4.49
4.24
3.96
3.66
3.36
3.09
2.81
2.49
2.14
1.76
1.39
1.11
0.93
0.77
0.52
-0.01
-0.91
-2.20
-3.73
-5.22
-6.36
-6.92
-6.81
-6.12
-5.05
-3.86
-2.70
-1.65
-0.68
0.26
1.17
1.99
2.63
2.99
3.03
2.80
2.38
1.88
1.37
0.93
0.55
0.25
-0.05
-0.39
-0.82
-1.35
-1.95
-2.57
-3.15
-3.63
-4.04
-4.38
-4.63
-4.80
-4.90
-4.99
-5.20
-5.66
-6.43
-7.48
-8.62
-9.59
-10.11
-10.00
-9.18
-7.71
-5.79
-3.64
-1.60
0.07
1.14
1.52
1.26
0.56
-0.29
-1.04
-1.54
-1.75
-1.65
-1.26
-0.57
0.46
1.80
3.37
5.04
6.59
7.85
8.66
8.93
8.63
7.79
6.47
4.79
2.91
1.06
-0.55
-1.72
-2.37
-2.53
-2.41
-2.32
-2.58
-3.38
-4.69
-6.27
-7.71
-8.62
-8.79
-8.20
-7.06
-5.66
-4.31
-3.20
-2.47
-2.15
-2.24
-2.67
-3.32
-4.01
-4.53
-4.66
-4.25
-3.28
-1.89
-0.35
1.03
1.97
2.37
2.26
1.82
1.22
0.57
-0.16
-1.12
-2.40
-4.00
-5.73
-7.35
-8.63
-9.55
-10.25
-10.94
-11.79
-12.82
-13.83
-14.55
-14.69
-14.08
-12.67
-10.55
-7.92
-5.08
-2.37
-0.14
1.33
1.92
1.71
0.95
-0.02
-0.91
-1.52
-1.77
-1.70
-1.37
-0.87
-0.27
0.35
0.95
1.56
2.26
3.10
4.09
5.11
5.92
6.31
6.13
5.47
4.59
3.80
3.40
3.49
4.02
4.76
5.46
5.86
5.75
5.10
3.94
2.49
1.03
-0.09
-0.56
-0.23
0.86
2.48
4.32
6.04
7.41
8.34
8.88
9.10
9.10
8.95
8.68
8.37
8.10
7.98
8.06
8.37
8.83
9.37
9.88
10.30
10.55
10.57
10.27
9.58
8.47
7.01
5.30
3.53
1.85
0.37
-0.88
-1.91
-2.77
-3.51
-4.17
-4.82
-5.51
-6.24
-6.90
-7.35
-7.42
-7.00
-6.08
-4.76
-3.15
-1.41
0.37
2.09
3.62
4.78
5.38
5.33
4.68
3.60
2.29
0.93
-0.41
-1.70
-2.86
-3.76
-4.21
-4.03
-3.18
-1.78
-0.09
1.56
2.94
3.95
4.60
5.01
5.25
5.34
5.22
4.77
3.89
2.53
0.71
-1.56
-4.27
-7.39
-10.80
-14.22
-17.24
-19.42
-20.49
-20.47
-19.68
-18.60
-17.70
-17.22
-17.16
-17.28
-17.22
-16.63
-15.25
-12.90
-9.52
-5.13
0.11
5.84
11.58
16.64
20.35
22.17
21.90
19.69
16.02
11.55
6.92
2.71
-0.67
-2.98
-4.15
-4.26
-3.55
-2.29
-0.77
0.87
2.52
4.16
5.71
7.06
8.11
8.74
8.96
8.78
8.23
7.29
5.97
4.32
2.46
0.56
-1.14
-2.43
-3.09
-2.93
-1.83
0.17
2.82
5.68
8.24
10.08
11.02
11.09
10.52
9.54
8.38
7.13
5.84
4.55
3.28
2.11
1.12
0.39
-0.02
-0.06
0.24
0.82
1.56
2.24
2.51
1.98
0.32
-2.54
-6.21
-9.90
-12.55
-13.20
-11.37
-7.23
-1.55
4.55
10.02
14.13
16.54
17.32
16.72
15.12
12.95
10.69
8.79
7.68
7.60
8.50
10.09
11.87
13.32
14.07
13.99
13.12
11.68
9.90
7.99
6.12
4.39
2.91
1.73
0.86
0.27
-0.12
-0.45
-0.89
-1.58
-2.66
-4.16
-5.92
-7.68
-9.06
-9.70
-9.37
-8.06
-5.98
-3.53
-1.10
0.98
2.55
3.63
4.36
4.89
5.29
5.54
5.55
5.21
4.57
3.78
3.06
2.59
2.38
2.29
2.10
1.62
0.81
-0.20
-1.21
-2.05
-2.70
-3.27
-3.94
-4.90
-6.24
-7.99
-10.08
-12.43
-14.89
-17.23
-19.17
-20.41
-20.73
-20.02
-18.36
-15.95
-13.04
-9.92
-6.80
-3.87
-1.25
1.00
2.85
4.33
5.51
6.41
7.06
7.48
7.70
7.83
7.97
8.22
8.57
8.92
9.09
8.93
8.33
7.30
5.98
4.59
3.35
2.33
1.48
0.63
-0.44
-1.84
-3.52
-5.31
-6.92
-8.09
-8.57
-8.20
-6.93
-4.85
-2.20
0.65
3.31
5.46
7.00
8.01
8.69
9.27
9.85
10.39
10.80
10.96
10.90
10.72
10.62
10.77
11.21
11.86
12.48
12.79
12.57
11.72
10.36
8.70
7.04
5.63
4.61
4.00
3.69
3.46
3.06
2.24
0.82
-1.20
-3.59
-5.92
-7.67
-8.38
-7.85
-6.17
-3.71
-0.99
1.52
3.51
4.89
5.73
6.19
6.45
6.59
6.65
6.64
6.57
6.48
6.43
6.44
6.52
6.61
6.67
6.66
6.57
6.41
6.16
5.74
5.03
4.02
2.76
1.38
0.08
-1.05
-2.00
-2.88
-3.91
-5.27
-7.00
-9.02
-11.07
-12.76
-13.67
-13.48
-12.06
-9.58
-6.41
-3.04
0.09
2.70
4.70
6.16
7.19
7.88
8.30
8.50
8.51
8.41
8.22
7.99
7.69
7.32
6.88
6.44
6.08
5.88
5.80
5.77
5.66
5.40
4.95
4.32
3.53
2.56
1.42
0.14
-1.19
-2.49
-3.75
-5.03
-6.48
-8.18
-10.08
-11.94
-13.39
-14.03
-13.62
-12.09
-9.62
-6.52
-3.17
0.06
2.89
5.12
6.71
7.70
8.18
8.31
8.20
7.96
7.67
7.41
7.26
7.25
7.39
7.61
7.81
7.87
7.71
7.28
6.58
5.65
4.53
3.27
1.94
0.61
-0.59
-1.54
-2.15
-2.44
-2.53
-2.61
-2.93
-3.69
-4.98
-6.72
-8.75
-10.79
-12.54
-13.76
-14.23
-13.83
-12.56
-10.49
-7.75
-4.57
-1.20
2.12
5.12
7.61
9.45
10.61
11.15
11.18
10.86
10.32
9.70
9.08
8.54
8.16
7.96
7.98
8.13
8.33
8.43
8.34
8.01
7.48
6.83
6.12
5.37
4.54
3.59
2.55
1.48
0.46
-0.45
-1.30
-2.21
-3.36
-4.82
-6.53
-8.29
-9.81
-10.81
-11.11
-10.63
-9.42
-7.63
-5.45
-3.05
-0.61
1.75
3.89
5.71
7.14
8.13
8.67
8.82
8.65
8.31
7.94
7.69
7.61
7.70
7.85
7.92
7.79
7.39
6.75
5.93
4.98
3.94
2.81
1.61
0.37
-0.85
-2.00
-3.02
-3.89
-4.57
-5.00
-5.20
-5.27
-5.44
-5.98
-7.06
-8.70
-10.61
-12.33
-13.38
-13.41
-12.36
-10.42
-7.89
-5.16
-2.49
-0.11
1.88
3.39
4.37
4.80
4.72
4.22
3.47
2.69
2.08
1.76
1.73
1.86
1.98
1.90
1.57
1.04
0.46
-0.05
-0.49
-0.95
-1.58
-2.49
-3.71
-5.12
-6.55
-7.80
-8.72
-9.27
-9.50
-9.54
-9.56
-9.70
-10.05
-10.57
-11.09
-11.35
-11.07
-10.07
-8.38
-6.23
-3.99
-2.02
-0.55
0.45
1.15
1.75
2.39
3.06
3.67
4.13
4.42
4.57
4.63
4.61
4.50
4.27
3.99
3.77
3.73
3.89
4.23
4.62
4.96
5.15
5.19
5.07
4.77
4.27
3.54
2.59
1.48
0.28
-0.99
-2.35
-3.86
-5.59
-7.51
-9.47
-11.22
-12.39
-12.68
-11.89
-10.06
-7.47
-4.61
-1.99
-0.01
1.20
1.75
1.91
1.98
2.13
2.40
2.79
3.26
3.80
4.43
5.07
5.59
5.88
5.85
5.59
5.24
4.96
4.82
4.80
4.82
4.81
4.75
4.67
4.58
4.41
4.08
3.50
2.66
1.64
0.58
-0.40
-1.31
-2.23
-3.23
-4.37
-5.50
-6.36
-6.65
-6.25
-5.27
-4.03
-2.92
-2.21
-1.92
-1.90
-1.94
-1.93
-1.91
-1.98
-2.19
-2.46
-2.57
-2.34
-1.68
-0.75
0.17
0.69
0.52
-0.47
-2.23
-4.52
-7.01
-9.38
-11.41
-13.04
-14.33
-15.41
-16.41
-17.36
-18.16
-18.65
-18.66
-18.12
-17.12
-15.91
-14.82
-14.14
-14.00
-14.24
-14.50
-14.36
-13.50
-11.85
-9.56
-6.99
-4.50
-2.45
-1.08
-0.55
-0.93
-2.08
-3.70
-5.33
-6.47
-6.78
-6.15
-4.73
-2.78
-0.54
1.82
4.24
6.61
8.80
10.60
11.89
12.61
12.81
12.57
11.90
10.74
9.04
6.84
4.33
1.85
-0.23
-1.61
-2.16
-1.93
-1.02
0.39
2.18
4.22
6.41
8.67
10.89
12.97
14.83
16.39
17.54
18.15
18.11
17.35
15.95
14.09
12.09
10.25
8.81
7.85
7.38
7.39
7.86
8.80
10.13
11.60
12.87
13.61
13.61
12.93
11.85
10.73
9.81
9.14
8.55
7.81
6.73
5.30
3.65
1.97
0.41
-0.94
-2.05
-2.88
-3.43
-3.73
-3.94
-4.29
-5.02
-6.16
-7.48
-8.51
-8.77
-8.01
-6.32
-4.11
-1.82
0.25
2.04
3.70
5.32
6.83
8.02
8.66
8.65
8.07
7.12
6.01
4.87
3.75
2.69
1.70
0.83
0.04
-0.77
-1.76
-3.02
-4.52
-6.09
-7.53
-8.70
-9.60
-10.37
-11.14
-11.90
-12.51
-12.71
-12.25
-11.05
-9.25
-7.18
-5.23
-3.73
-2.81
-2.46
-2.54
-2.91
-3.45
-4.10
-4.81
-5.47
-5.98
-6.19
-6.04
-5.60
-4.97
-4.29
-3.48
-2.23
-0.04
3.65
9.07
15.97
23.53
30.58
35.96
38.93
39.32
37.51
34.18
30.04
25.62
21.29
17.28
13.80
11.03
9.03
7.71
6.83
6.09
5.27
4.22
2.95
1.57
0.22
-0.95
-1.79
-2.24
-2.36
-2.32
-2.37
-2.70
-3.37
-4.26
-5.13
-5.78
-6.08
-6.14
-6.11
-6.17
-6.41
-6.82
-7.34
-7.91
-8.50
-9.08
-9.63
-10.08
-10.43
-10.70
-10.97
-11.34
-11.87
-12.58
-13.45
-14.43
-15.46
-16.42
-17.16
-17.49
-17.25
-16.40
-15.03
-13.32
-11.49
-9.64
-7.78
-5.85
-3.83
-1.76
0.20
1.85
2.98
3.55
3.57
3.21
2.64
2.01
1.33
0.55
-0.42
-1.62
-3.01
-4.45
-5.82
-7.08
-8.22
-9.26
-10.17
-10.88
-11.34
-11.65
-12.10
-13.05
-14.72
-16.98
-19.39
-21.26
-21.95
-21.16
-18.99
-15.89
-12.40
-8.89
-5.50
-2.17
1.24
4.76
8.24
11.41
14.03
15.95
17.19
17.86
18.07
17.93
17.46
16.75
15.92
15.12
14.51
14.18
14.09
14.11
14.06
13.77
13.10
12.01
10.51
8.71
6.73
4.69
2.68
0.76
-1.08
-2.82
-4.49
-6.11
-7.74
-9.45
-11.25
-13.04
-14.60
-15.61
-15.81
-15.06
-13.41
-11.09
-8.35
-5.47
-2.59
0.19
2.84
5.29
7.45
9.21
10.49
11.30
11.73
11.90
11.93
11.88
11.70
11.29
10.62
9.73
8.81
8.03
7.52
7.27
7.19
7.12
6.98
6.69
6.25
5.66
4.90
3.99
2.96
1.93
0.99
0.22
-0.39
-0.89
-1.36
-1.87
-2.49
-3.27
-4.25
-5.45
-6.79
-8.15
-9.28
-9.98
-10.11
-9.64
-8.66
-7.35
-5.91
-4.48
-3.14
-1.93
-0.91
-0.16
0.26
0.30
0.05
-0.32
-0.62
-0.68
-0.51
-0.25
-0.10
-0.29
-0.95
-2.09
-3.62
-5.43
-7.34
-9.21
-10.84
-12.03
-12.56
-12.31
-11.26
-9.57
-7.56
-5.59
-3.99
-2.94
-2.48
-2.54
-3.06
-4.08
-5.71
-8.01
-10.92
-14.14
-17.20
-19.60
-20.99
-21.26
-20.51
-18.92
-16.67
-13.84
-10.50
-6.78
-2.95
0.61
3.56
5.70
7.03
7.70
7.94
7.94
7.84
7.77
7.87
8.27
9.08
10.30
11.76
13.19
14.36
15.11
15.46
15.56
15.61
15.69
15.78
15.72
15.35
14.57
13.42
12.00
10.43
8.76
6.98
5.10
3.18
1.38
-0.14
-1.26
-2.00
-2.54
-3.13
-4.00
-5.30
-7.05
-9.10
-11.16
-12.86
-13.80
-13.72
-12.55
-10.50
-7.99
-5.50
-3.43
-1.99
-1.17
-0.78
-0.65
-0.61
-0.58
-0.49
-0.25
0.31
1.36
3.00
5.24
7.92
10.79
13.49
15.67
17.07
17.58
17.29
16.50
15.58
14.90
14.68
14.94
15.51
16.14
16.58
16.63
16.19
15.24
13.86
12.26
10.67
9.35
8.43
7.92
7.66
7.42
6.93
5.96
4.33
2.00
-0.92
-4.14
-7.19
-9.54
-10.77
-10.66
-9.29
-7.02
-4.32
-1.71
0.44
1.88
2.58
2.69
2.54
2.46
2.73
3.42
4.40
5.36
6.00
6.07
5.54
4.55
3.34
2.06
0.72
-0.83
-2.78
-5.21
-7.98
-10.72
-12.98
-14.48
-15.29
-15.89
-16.99
-19.23
-22.88
-27.67
-32.88
-37.64
-41.38
-44.03
-46.17
-48.74
-52.64
-58.24
-65.18
-72.45
-78.76
-83.12
-85.30
-85.94
-86.37
-88.21
-92.83
-100.85
-111.64
-123.06
-131.39
-132.14
-121.36
-97.36
-61.78
-19.27
24.15
63.33
95.85
122.42
145.91
169.51
195.08
222.44
249.46
272.90
289.09
294.86
288.29
269.57
241.39
208.64
177.07
151.39
133.67
122.99
116.38
110.46
102.87
92.80
80.55
66.75
51.91
36.62
22.08
10.32
3.56
2.88
6.80
11.04
9.70
-2.11
-25.71
-57.69
-91.11
-118.24
-133.71
-136.29
-128.62
-115.36
-100.89
-87.78
-76.74
-67.52
-59.94
-54.30
-51.02
-50.03
-50.44
-50.86
-50.03
-47.35
-43.14
-38.49
-34.79
-33.30
-34.61
-38.37
-43.32
-47.70
-49.85
-48.90
-45.21
-40.14
-35.47
-32.57
-31.86
-32.72
-33.91
-34.30
-33.34
-31.20
-28.42
-25.51
-22.58
-19.40
-15.53
-10.63
-4.72
1.81
8.30
14.09
18.79
22.34
25.00
27.16
29.12
30.90
32.26
32.80
32.19
30.30
27.17
22.90
17.52
10.91
2.96
-6.18
-15.92
-25.26
-33.01
-38.20
-40.41
-39.89
-37.48
-34.18
-30.91
-28.21
-26.27
-25.02
-24.27
-23.85
-23.58
-23.26
-22.69
-21.66
-20.03
-17.84
-15.26
-12.55
-9.98
-7.65
-5.52
-3.34
-0.81
2.24
5.78
9.55
13.11
16.04
18.08
19.20
19.64
19.72
19.78
20.01
20.42
20.90
21.34
21.68
21.98
22.36
22.97
23.83
24.87
25.90
26.71
27.20
27.42
27.57
28.01
29.05
30.85
33.42
36.57
40.05
43.60
46.89
49.48
50.79
50.24
47.48
42.58
36.02
28.48
20.50
12.29
3.84
-4.82
-13.44
-21.43
-28.17
-33.25
-36.72
-39.03
-40.76
-42.37
-44.01
-45.54
-46.68
-47.08
-46.47
-44.63
-41.45
-36.95
-31.32
-24.90
-18.16
-11.63
-5.91
-1.52
1.11
1.75
0.39
-2.79
-7.48
-13.34
-20.08
-27.45
-35.16
-42.88
-50.15
-56.56
-61.77
-65.61
-68.06
-69.18
-69.03
-67.68
-65.15
-61.58
-57.12
-52.04
-46.59
-41.04
-35.61
-30.48
-25.81
-21.69
-18.14
-15.07
-12.30
-9.64
-6.92
-4.09
-1.20
1.67
4.37
6.80
8.91
10.71
12.27
13.62
14.78
15.77
16.55
17.09
17.37
17.32
16.92
16.24
15.44
14.76
14.41
14.50
14.90
15.30
15.34
14.75
13.53
11.88
10.12
8.54
7.27
6.24
5.37
4.59
3.90
3.37
3.06
3.01
3.17
3.54
4.06
4.73
5.50
6.25
6.86
7.18
7.13
6.66
5.85
4.77
3.58
2.40
1.29
0.24
-0.81
-1.89
-2.93
-3.70
-3.97
-3.63
-2.80
-1.80
-0.92
-0.23
0.54
1.89
4.24
7.71
12.02
16.66
21.10
25.05
28.44
31.36
33.93
36.24
38.38
40.54
43.01
45.94
49.35
52.86
55.85
57.72
58.20
57.49
56.23
55.13
54.56
54.42
54.20
53.50
52.39
51.60
52.14
54.89
60.14
67.55
76.39
85.73
94.42
100.79
102.55
97.09
82.45
58.54
27.88
-4.76
-33.75
-54.57
-65.29
-66.89
-62.34
-55.01
-47.41
-40.85
-35.98
-33.74
-35.70
-43.57
-58.03
-77.67
-98.95
-117.20
-128.48
-131.17
-126.50
-117.92
-109.34
-103.45
-100.80
-99.93
-98.46
-94.50
-87.46
-78.28
-68.75
-60.63
-54.90
-51.47
-49.40
-47.52
-44.85
-40.85
-35.35
-28.43
-20.37
-11.74
-3.51
3.12
7.06
7.88
6.10
3.09
0.55
-0.19
1.38
4.83
9.06
12.75
14.71
14.14
10.81
5.08
-2.10
-9.32
-15.05
-18.04
-17.71
-14.23
-8.42
-1.43
5.60
11.67
16.10
18.51
18.90
17.66
15.53
13.31
11.73
11.12
11.42
12.30
13.27
13.98
14.25
14.19
14.03
14.04
14.36
15.00
15.79
16.48
16.90
16.94
16.64
16.06
15.24
14.14
12.71
10.95
8.94
6.95
5.32
4.34
4.12
4.54
5.31
6.04
6.44
6.38
5.94
5.32
4.73
4.35
4.23
4.28
4.27
3.94
3.07
1.63
-0.25
-2.26
-4.10
-5.55
-6.58
-7.25
-7.68
-7.93
-8.01
-7.93
-7.71
-7.38
-7.01
-6.65
-6.42
-6.43
-6.87
-7.90
-9.57
-11.82
-14.46
-17.23
-19.90
-22.29
-24.30
-25.91
-27.09
-27.87
-28.25
-28.18
-27.54
-26.15
-23.93
-20.96
-17.61
-14.41
-11.86
-10.21
-9.34
-8.80
-8.06
-6.73
-4.64
-1.81
1.77
6.23
11.81
18.72
26.91
36.05
45.59
54.95
63.62
71.23
77.50
82.16
84.97
85.76
84.58
81.70
77.64
73.03
68.54
64.76
62.13
60.82
60.71
61.40
62.30
62.77
62.27
60.47
57.30
52.91
47.62
41.75
35.44
28.57
20.65
11.02
-0.76
-14.43
-28.87
-42.19
-52.45
-58.34
-59.78
-57.86
-54.39
-51.10
-49.08
-48.67
-49.61
-51.39
-53.49
-55.34
-56.26
-55.58
-52.86
-48.20
-42.28
-36.16
-30.74
-26.33
-22.59
-18.84
-14.50
-9.55
-4.46
0.06
3.54
5.95
7.62
8.95
10.05
10.61
10.07
7.94
4.21
-0.50
-5.01
-8.02
-8.50
-6.12
-1.35
4.71
10.66
15.26
17.84
18.49
17.99
17.49
18.05
20.24
23.84
27.94
31.23
32.48
30.95
26.61
20.16
12.78
5.94
1.03
-0.98
0.05
3.06
5.90
5.89
0.97
-9.33
-23.40
-38.03
-49.66
-55.74
-55.64
-50.53
-42.64
-34.19
-26.74
-20.98
-17.02
-14.62
-13.41
-12.83
-12.21
-11.09
-9.53
-8.18
-8.05
-9.82
-13.29
-17.18
-19.55
-18.71
-13.96
-5.97
3.58
12.78
20.33
25.92
30.01
33.39
36.56
39.50
41.70
42.49
41.23
37.54
31.36
23.00
13.16
2.89
-6.66
-14.74
-21.44
-27.87
-35.72
-46.34
-59.78
-74.32
-86.98
-94.66
-95.40
-89.04
-77.00
-61.36
-43.91
-25.77
-7.64
9.61
24.59
35.67
41.69
42.66
39.93
35.75
32.35
31.13
32.28
34.95
37.85
39.96
40.99
41.51
42.67
45.66
51.18
59.06
68.38
77.91
86.66
94.15
100.28
104.89
107.36
106.49
100.96
90.03
74.01
54.34
33.26
13.11
-4.09
-16.81
-24.09
-25.58
-21.82
-14.34
-5.66
1.17
3.19
-1.78
-14.54
-34.31
-58.66
-84.05
-106.64
-123.59
-134.12
-139.83
-144.01
-150.11
-160.07
-173.58
-188.40
-201.65
-211.02
-215.47
-215.09
-210.49
-202.33
-191.10
-176.99
-159.80
-138.92
-113.37
-82.33
-45.82
-5.29
36.63
76.98
113.61
145.87
174.34
199.86
222.47
241.06
253.95
259.95
259.24
253.55
245.50
237.42
230.53
224.66
218.69
211.05
200.24
184.88
163.71
135.70
100.53
59.19
14.13
-31.03
-72.35
-106.52
-131.45
-146.38
-151.56
-147.94
-136.99
-120.84
-102.19
-84.08
-69.16
-58.99
-53.64
-51.96
-52.26
-53.14
-54.06
-55.34
-57.72
-61.66
-66.83
-71.86
-74.63
-73.01
-65.59
-52.30
-34.57
-15.03
3.28
17.73
26.84
30.49
29.71
26.04
20.90
15.18
9.05
2.19
-5.92
-15.65
-26.94
-39.10
-50.73
-59.87
-64.45
-62.97
-55.16
-42.29
-26.88
-11.77
0.93
10.46
17.42
22.98
28.03
32.70
36.43
38.47
38.48
36.70
33.72
30.05
25.99
21.65
17.28
13.40
10.72
9.86
10.97
13.63
16.91
19.67
20.94
20.25
17.82
14.47
11.42
9.81
10.27
12.63
15.89
18.46
18.75
15.77
9.48
0.88
-8.34
-16.46
-22.25
-25.44
-26.63
-26.84
-26.96
-27.23
-27.13
-25.73
-22.18
-16.26
-8.51
-0.18
7.16
11.99
13.28
10.76
5.02
-2.67
-10.72
-17.61
-22.38
-24.77
-25.14
-24.21
-22.73
-21.34
-20.52
-20.59
-21.76
-23.93
-26.59
-28.87
-29.75
-28.48
-24.83
-19.32
-12.97
-7.00
-2.42
0.32
1.31
1.07
0.22
-0.77
-1.68
-2.44
-3.02
-3.29
-3.09
-2.35
-1.18
0.23
1.73
3.47
5.92
9.67
15.15
22.22
30.16
37.90
44.43
49.28
52.67
55.32
57.99
61.07
64.35
67.06
68.28
67.31
63.89
58.34
51.39
43.84
36.45
29.78
24.14
19.67
16.35
14.05
12.61
11.80
11.35
10.90
10.03
8.38
5.67
1.87
-2.80
-7.91
-12.89
-17.15
-20.25
-22.07
-22.84
-23.21
-24.11
-26.41
-30.57
-36.39
-42.98
-49.12
-53.77
-56.47
-57.28
-56.46
-53.93
-49.17
-41.48
-30.60
-17.29
-3.39
8.70
16.96
20.52
19.93
16.85
13.36
11.21
11.38
13.84
17.47
20.13
18.86
10.54
-7.00
-33.64
-66.19
-98.63
-123.77
-135.74
-132.23
-115.54
-91.76
-68.44
-51.86
-45.07
-47.44
-55.79
-66.32
-76.32
-85.05
-93.44
-103.08
-115.13
-129.58
-145.29
-160.40
-172.78
-180.33
-181.08
-173.24
-155.49
-127.48
-90.19
-45.97
2.02
50.93
99.29
147.52
197.35
250.11
304.90
357.52
401.05
428.03
433.39
416.59
382.04
337.45
291.08
249.06
214.22
186.52
164.38
146.04
130.21
115.93
102.29
88.30
73.22
57.07
40.68
25.47
12.91
3.81
-1.91
-5.12
-7.20
-9.46
-12.79
-17.43
-22.98
-28.57
-33.19
-36.10
-37.08
-36.49
-35.12
-33.81
-33.08
-32.95
-32.97
-32.46
-30.85
-27.89
-23.73
-18.88
-14.07
-10.05
-7.41
-6.39
-6.88
-8.43
-10.42
-12.36
-14.02
-15.48
-17.02
-18.81
-20.81
-22.74
-24.22
-24.98
-25.00
-24.39
-23.39
-22.17
-20.94
-20.01
-19.79
-20.66
-22.65
-25.29
-27.66
-28.75
-27.94
-25.32
-21.69
-18.18
-15.73
-14.69
-14.84
-15.56
-16.25
-16.52
-16.30
-15.70
-14.88
-13.95
-13.01
-12.12
-11.36
-10.76
-10.31
-9.88
-9.32
-8.46
-7.31
-6.10
-5.34
-5.72
-7.89
-12.09
-17.90
-24.20
-29.46
-32.30
-31.98
-28.82
-23.95
-18.97
-15.21
-13.30
-13.07
-13.77
-14.53
-14.71
-14.16
-13.10
-11.88
-10.76
-9.68
-8.38
-6.51
-3.89
-0.71
2.55
5.27
7.02
7.71
7.58
6.94
5.92
4.38
2.13
-0.77
-3.77
-5.92
-6.17
-3.89
0.78
6.96
13.19
17.85
19.63
17.80
12.51
4.74
-3.82
-11.29
-16.04
-17.16
-14.71
-9.43
-2.43
5.29
13.36
22.29
33.30
47.81
66.52
88.27
109.76
125.79
130.53
119.32
90.06
44.28
-12.68
-72.28
-124.31
-159.17
-170.45
-156.84
-122.71
-76.84
-29.76
9.16
33.83
42.12
35.35
17.32
-6.42
-29.17
-44.10
-45.82
-32.41
-6.66
24.24
51.19
66.58
67.47
56.63
41.16
29.18
26.01
31.71
41.00
45.42
36.70
10.01
-34.15
-89.78
-146.90
-194.34
-222.69
-226.78
-206.83
-168.01
-118.58
-67.30
-21.20
15.59
41.71
57.51
63.54
59.68
45.35
20.63
-12.23
-48.37
-81.26
-105.16
-117.72
-121.35
-121.94
-125.77
-135.90
-150.36
-163.14
-167.38
-159.10
-138.99
-111.85
-83.85
-59.78
-41.42
-27.92
-17.23
-7.48
1.87
10.09
15.89
18.38
17.86
16.07
15.69
19.30
28.19
41.87
58.38
75.31
90.92
104.59
116.36
126.06
132.56
133.91
128.13
114.38
93.39
67.38
39.34
12.23
-11.37
-29.44
-40.64
-44.65
-42.09
-34.42
-23.54
-10.85
2.92
17.63
33.22
49.11
64.07
76.65
85.63
90.57
91.80
90.19
86.89
83.01
79.50
76.96
75.51
74.53
72.70
68.35
60.04
47.34
31.13
13.59
-2.53
-14.83
-22.08
-24.62
-24.03
-22.54
-22.12
-23.97
-28.19
-33.97
-39.90
-44.44
-46.30
-44.73
-39.74
-32.13
-23.29
-14.81
-8.05
-3.65
-1.48
-0.80
-0.62
-0.22
0.67
1.89
3.16
4.20
4.85
4.96
4.28
2.60
-0.13
-3.70
-7.80
-12.32
-17.59
-24.28
-32.89
-43.12
-53.54
-61.82
-65.52
-63.02
-54.17
-40.25
-23.36
-5.62
11.40
26.97
40.83
52.77
62.11
67.48
67.07
59.44
44.44
23.97
1.90
-16.91
-28.14
-29.57
-21.64
-7.05
10.55
28.07
43.71
56.87
67.37
74.75
78.03
76.21
69.07
57.54
43.51
28.97
15.23
2.57
-9.27
-20.26
-29.47
-35.14
-35.59
-30.36
-20.93
-10.44
-2.52
0.26
-2.68
-9.88
-18.86
-27.30
-33.91
-38.40
-40.93
-41.49
-39.72
-35.19
-28.00
-19.10
-10.18
-3.17
0.40
-0.24
-4.87
-12.38
-20.94
-28.32
-32.42
-31.95
-26.98
-19.01
-10.40
-3.39
0.86
2.66
3.36
4.58
7.28
11.40
16.00
19.89
22.12
22.40
21.02
18.64
16.02
13.89
12.82
13.24
15.36
19.10
24.03
29.35
34.02
37.01
37.62
35.75
31.99
27.32
22.65
18.42
14.38
9.86
4.26
-2.52
-9.90
-16.79
-22.04
-24.85
-24.97
-22.76
-19.00
-14.72
-10.97
-8.55
-7.69
-7.95
-8.31
-7.53
-4.77
-0.05
5.66
10.84
14.07
14.74
13.21
10.60
8.26
7.13
7.54
9.21
11.55
13.74
14.88
14.01
10.35
3.57
-5.92
-17.01
-28.25
-38.40
-46.96
-54.14
-60.51
-66.33
-71.22
-74.46
-75.63
-75.31
-75.21
-77.63
-84.47
-96.42
-112.62
-130.74
-147.53
-159.33
-162.71
-155.10
-135.49
-104.92
-66.60
-25.23
14.14
47.36
71.96
87.24
93.82
93.05
86.78
77.31
67.34
59.45
55.29
54.75
55.91
55.85
52.07
43.82
32.53
21.21
12.98
9.64
10.89
14.68
18.34
19.90
18.82
15.92
12.61
9.99
8.34
7.25
6.03
4.24
1.94
-0.43
-2.38
-3.59
-4.03
-3.95
-3.64
-3.44
-3.61
-4.38
-5.74
-7.41
-8.78
-9.05
-7.57
-4.07
1.21
7.76
15.10
23.01
31.56
40.77
50.40
59.71
67.73
73.54
76.55
76.59
73.71
68.04
59.79
49.41
37.81
26.30
16.34
9.07
4.95
3.72
4.58
6.62
9.09
11.52
13.61
15.19
16.11
16.24
15.55
14.19
12.45
10.77
9.58
9.14
9.39
10.03
10.51
10.41
9.53
7.99
6.12
4.25
2.63
1.43
0.79
0.91
2.00
4.16
7.26
10.85
14.26
16.80
18.08
18.04
17.03
15.44
13.48
10.99
7.55
2.81
-3.24
-10.07
-16.76
-22.38
-26.30
-28.47
-29.33
-29.56
-29.78
-30.33
-31.27
-32.45
-33.67
-34.76
-35.58
-36.04
-36.04
-35.50
-34.36
-32.60
-30.26
-27.48
-24.48
-21.52
-18.76
-16.26
-13.85
-11.25
-8.17
-4.46
-0.11
4.75
9.93
15.22
20.40
25.16
29.14
32.03
33.71
34.29
34.12
33.57
32.87
32.07
31.05
29.76
28.31
26.90
25.73
24.82
24.07
23.33
22.47
21.43
20.21
18.74
16.93
14.70
12.08
9.21
6.29
3.50
0.92
-1.42
-3.53
-5.32
-6.69
-7.59
-8.22
-9.02
-10.57
-13.25
-17.05
-21.46
-25.65
-28.77
-30.36
-30.43
-29.35
-27.52
-25.10
-21.92
-17.77
-12.69
-7.12
-1.81
2.56
5.71
7.82
9.41
10.96
12.67
14.35
15.70
16.46
16.63
16.42
16.10
15.82
15.54
15.10
14.31
13.10
11.57
10.02
8.86
8.46
9.02
10.36
11.99
