1539087521.00
64.000000
-0.00
-0.00
-0.00
-0.00
-0.00
-0.00
-0.00
-0.00
-0.00
-0.00
0.00
0.01
0.01
-0.00
-0.03
-0.05
-0.05
0.00
0.13
0.36
0.66
1.01
1.37
1.72
2.06
2.40
2.79
3.24
3.80
4.42
5.06
5.67
6.21
6.69
7.17
7.72
8.38
9.26
10.28
11.32
12.30
13.14
13.90
14.74
15.87
17.43
19.65
22.34
25.23
28.02
30.56
32.91
35.38
38.41
42.31
47.47
53.55
60.03
66.34
72.13
77.44
82.78
88.82
96.11
105.17
115.54
126.45
137.02
146.70
155.50
164.03
173.62
182.97
194.33
208.37
225.23
243.75
261.01
272.67
274.04
261.72
234.82
195.72
148.36
97.12
45.29
-5.59
-55.29
-103.99
-151.45
-196.87
-238.81
-276.27
-308.56
-335.19
-355.58
-368.78
-373.63
-369.06
-354.67
-331.52
-301.68
-267.72
-232.17
-197.07
-163.68
-132.51
-103.54
-76.55
-51.34
-27.90
-6.48
12.62
29.21
43.27
54.97
64.55
72.19
77.95
82.22
85.16
86.82
87.27
86.64
85.14
82.99
80.38
77.45
74.33
71.03
67.57
63.94
60.19
56.34
52.46
48.57
44.73
40.97
37.31
33.75
30.31
26.99
23.80
20.73
17.78
14.98
12.33
9.83
7.48
5.30
3.29
1.45
-0.21
-1.69
-3.00
-4.14
-5.14
-6.02
-6.80
-7.50
-8.12
-8.67
-9.15
-9.55
-9.89
-10.15
-10.35
-10.49
-10.58
-10.64
-10.67
-10.69
-10.71
-10.75
-10.81
-10.90
-11.02
-11.17
-11.34
-11.53
-11.72
-11.90
-12.07
-12.21
-12.31
-12.36
-12.37
-12.31
-12.20
-12.02
-11.79
-11.49
-11.13
-10.71
-10.23
-9.71
-9.17
-8.60
-8.04
-7.49
-6.98
-6.51
-6.10
-5.74
-5.45
-5.20
-4.99
-4.81
-4.61
-4.39
-4.09
-3.72
-3.26
-2.72
-2.13
-1.50
-0.83
-0.10
0.71
1.64
2.70
3.88
5.13
6.40
7.65
8.88
10.09
11.32
12.62
14.00
15.39
16.71
17.75
18.36
18.32
17.54
15.95
13.51
10.16
5.78
0.22
-6.63
-14.75
-23.91
-33.61
-43.24
-52.16
-59.94
-66.45
-71.92
-76.78
-81.42
-86.06
-90.57
-94.59
-97.70
-99.73
-100.95
-101.97
-103.60
-106.52
-110.91
-116.44
-122.42
-128.09
-132.97
-137.10
-140.97
-145.41
-151.50
-160.39
-173.03
-189.61
-208.88
-227.87
-242.32
-247.93
-241.92
-224.17
-197.18
-165.14
-132.23
-101.36
-73.78
-49.44
-27.87
-8.78
7.89
22.18
34.41
45.17
55.02
64.27
72.79
80.14
85.79
89.40
91.09
91.31
90.77
90.14
89.79
89.72
89.58
88.94
87.53
85.38
82.75
80.02
77.47
75.17
73.01
70.85
68.59
66.32
64.25
62.59
61.41
60.45
59.27
57.35
54.47
50.86
47.19
44.39
42.98
42.98
43.51
42.95
39.48
31.51
18.37
0.75
-19.27
-38.63
-54.07
-63.13
-65.12
-61.26
-54.46
-48.23
-45.48
-47.46
-53.26
-59.92
-63.52
-60.62
-49.60
-31.31
-8.79
14.00
33.60
48.13
57.55
63.05
66.04
67.56
67.77
66.56
63.92
60.24
56.30
52.76
49.86
47.22
44.07
39.51
33.03
24.73
15.22
5.50
-3.66
-11.91
-19.17
-25.44
-30.42
-33.49
-33.91
-31.37
-26.27
-19.77
-13.48
-8.72
-5.95
-4.46
-2.71
0.92
7.29
16.05
25.77
34.60
40.97
44.15
44.31
42.16
38.58
34.23
29.63
25.16
21.25
18.28
16.41
15.47
15.00
14.45
13.41
11.74
9.61
7.35
5.37
3.95
3.26
3.29
3.83
4.61
5.30
5.62
5.50
5.12
4.79
4.86
5.49
6.54
7.69
8.55
8.93
8.86
8.58
8.34
8.26
8.30
8.31
8.18
7.90
7.50
6.99
6.37
5.63
4.76
3.91
3.25
2.97
3.13
3.64
4.33
4.96
5.36
5.40
5.06
4.38
3.39
2.16
0.80
-0.52
-1.59
-2.30
-2.63
-2.71
-2.82
-3.18
-3.89
-4.85
-5.79
-6.43
-6.55
-6.19
-5.53
-4.87
-4.47
-4.39
-4.55
-4.68
-4.52
-3.93
-2.94
-1.73
-0.57
0.33
0.94
1.29
1.52
1.71
1.88
2.01
2.02
1.86
1.51
0.99
0.38
-0.22
-0.69
-1.00
-1.14
-1.21
-1.27
-1.35
-1.39
-1.34
-1.22
-1.10
-1.12
-1.35
-1.72
-2.10
-2.32
-2.39
-2.40
-2.51
-2.79
-3.15
-3.39
-3.31
-2.86
-2.20
-1.57
-1.19
-1.10
-1.16
-1.19
-1.04
-0.75
-0.42
-0.13
0.09
0.40
0.96
1.85
2.96
4.07
4.85
5.13
4.95
4.53
4.16
4.04
4.23
4.65
5.18
5.71
6.24
6.75
7.23
7.62
7.81
7.70
7.22
6.37
5.21
3.88
2.58
1.48
0.78
0.54
0.70
1.16
1.69
2.16
2.50
2.71
2.80
2.73
2.43
1.87
1.11
0.29
-0.37
-0.79
-1.03
-1.27
-1.67
-2.25
-2.85
-3.25
-3.33
-3.16
-3.00
-3.05
-3.32
-3.62
-3.66
-3.27
-2.52
-1.66
-0.97
-0.61
-0.55
-0.60
-0.59
-0.44
-0.18
0.17
0.64
1.31
2.18
3.16
3.97
4.30
3.92
2.87
1.42
-0.04
-1.16
-1.78
-2.01
-2.07
-2.19
-2.48
-2.90
-3.31
-3.55
-3.50
-3.14
-2.48
-1.57
-0.54
0.47
1.28
1.70
1.69
1.32
0.84
0.54
0.64
1.21
2.07
2.95
3.56
3.75
3.60
3.37
3.34
3.68
4.28
4.84
4.99
4.48
3.40
2.09
1.05
0.56
0.66
1.11
1.56
1.79
1.74
1.54
1.31
1.09
0.82
0.43
-0.13
-0.83
-1.54
-2.18
-2.64
-2.88
-2.93
-2.92
-2.96
-3.18
-3.56
-3.99
-4.31
-4.36
-4.14
-3.74
-3.30
-2.86
-2.27
-1.32
0.20
2.25
4.55
6.71
8.35
9.34
9.83
10.09
10.40
10.88
11.46
11.96
12.23
12.16
11.77
11.10
10.13
8.88
7.38
5.69
3.93
2.22
0.65
-0.71
-1.83
-2.71
-3.46
-4.25
-5.27
-6.61
-8.20
-9.78
-10.99
-11.50
-11.17
-10.11
-8.58
-6.95
-5.50
-4.41
-3.65
-3.12
-2.61
-1.98
-1.14
-0.14
0.89
1.75
2.33
2.65
2.86
3.20
3.84
4.80
5.88
6.81
7.34
7.39
7.08
6.67
6.31
6.07
5.83
5.45
4.80
3.91
2.85
1.74
0.69
-0.31
-1.25
-2.09
-2.75
-3.13
-3.23
-3.15
-3.09
-3.21
-3.56
-4.04
-4.50
-4.83
-4.99
-5.06
-5.06
-4.91
-4.45
-3.54
-2.23
-0.79
0.38
0.99
1.03
0.75
0.52
0.62
1.04
1.56
1.84
1.64
0.95
-0.02
-0.90
-1.40
-1.38
-0.86
-0.06
0.75
1.31
1.42
1.00
0.16
-0.87
-1.82
-2.41
-2.56
-2.30
-1.84
-1.39
-1.12
-1.10
-1.30
-1.66
-2.08
-2.43
-2.61
-2.50
-2.06
-1.35
-0.52
0.22
0.64
0.62
0.20
-0.49
-1.18
-1.68
-1.83
-1.59
-1.00
-0.25
0.49
1.05
1.35
1.40
1.27
1.08
0.97
1.04
1.27
1.62
1.96
2.25
2.42
2.50
2.51
2.47
2.33
2.04
1.56
0.85
-0.01
-0.88
-1.62
-2.11
-2.37
-2.54
-2.83
-3.44
-4.48
-5.84
-7.30
-8.58
-9.49
-9.96
-10.10
-10.12
-10.16
-10.27
-10.34
-10.19
-9.68
-8.80
-7.66
-6.48
-5.41
-4.56
-3.86
-3.27
-2.78
-2.40
-2.18
-1.96
-1.47
-0.39
1.44
3.80
6.22
8.13
9.33
10.02
10.76
12.04
14.07
16.56
18.97
20.88
22.15
22.99
23.73
24.51
25.23
25.58
25.40
24.67
23.62
22.48
21.31
19.99
18.37
16.43
14.33
12.38
10.78
9.61
8.70
7.81
6.76
5.45
3.94
2.26
0.45
-1.47
-3.48
-5.48
-7.32
-8.83
-9.91
-10.54
-10.81
-10.85
-10.82
-10.79
-10.76
-10.67
-10.42
-9.98
-9.35
-8.55
-7.63
-6.61
-5.55
-4.54
-3.67
-2.98
-2.42
-1.85
-1.18
-0.43
0.24
0.61
0.53
-0.08
-1.05
-2.10
-2.94
-3.33
-3.22
-2.75
-2.20
-1.82
-1.79
-2.07
-2.47
-2.71
-2.60
-2.13
-1.48
-0.99
-0.86
-1.18
-1.80
-2.43
-2.81
-2.81
-2.46
-1.96
-1.53
-1.32
-1.33
-1.39
-1.31
-0.95
-0.39
0.18
0.50
0.43
0.02
-0.53
-0.91
-0.94
-0.62
-0.10
0.35
0.55
0.45
0.15
-0.18
-0.43
-0.56
-0.65
-0.80
-1.11
-1.54
-1.97
-2.23
-2.21
-1.87
-1.34
-0.79
-0.37
-0.14
-0.08
-0.09
-0.07
0.01
0.17
0.37
0.57
0.77
0.99
1.21
1.42
1.59
1.70
1.73
1.69
1.63
1.59
1.67
1.86
2.04
2.03
1.66
0.85
-0.25
-1.28
-1.91
-1.91
-1.35
-0.50
0.32
0.95
1.39
1.73
1.93
1.86
1.37
0.45
-0.61
-1.41
-1.58
-1.03
-0.06
0.87
1.34
1.20
0.62
-0.04
-0.47
-0.53
-0.27
0.12
0.46
0.62
0.56
0.29
-0.06
-0.37
-0.53
-0.50
-0.29
-0.01
0.26
0.42
0.48
0.46
0.37
0.24
0.05
-0.20
-0.42
-0.49
-0.31
0.15
0.75
1.25
1.43
1.19
0.61
-0.11
-0.72
-1.09
-1.24
-1.23
-1.15
-1.03
-0.88
-0.71
-0.60
-0.66
-0.94
-1.39
-1.85
-2.18
-2.28
-2.13
-1.78
-1.23
-0.54
0.27
1.09
1.76
2.17
2.30
2.25
2.20
2.29
2.48
2.65
2.64
2.43
2.09
1.73
1.46
1.32
1.28
1.27
1.23
1.14
0.99
0.83
0.69
0.64
0.75
1.00
1.31
1.52
1.52
1.24
0.79
0.31
-0.05
-0.23
-0.25
-0.19
-0.10
-0.06
-0.06
-0.13
-0.27
-0.45
-0.60
-0.63
-0.49
-0.21
0.09
0.20
0.04
-0.37
-0.89
-1.31
-1.50
-1.49
-1.42
-1.47
-1.70
-2.00
-2.16
-2.01
-1.54
-0.91
-0.38
-0.16
-0.26
-0.55
-0.81
-0.86
-0.61
-0.12
0.49
1.03
1.34
1.37
1.17
0.89
0.69
0.74
1.05
1.57
2.13
2.54
2.68
2.52
2.13
1.67
1.26
0.99
0.85
0.79
0.74
0.65
0.48
0.30
0.10
-0.06
-0.15
-0.15
-0.07
0.05
0.08
-0.14
-0.65
-1.36
-2.03
-2.39
-2.31
-1.84
-1.21
-0.62
-0.23
-0.05
-0.07
-0.23
-0.47
-0.69
-0.75
-0.52
0.02
0.77
1.49
2.00
2.22
2.23
2.18
2.21
2.27
2.23
1.94
1.33
0.52
-0.24
-0.70
-0.75
-0.38
0.19
0.72
0.99
0.93
0.60
0.22
-0.11
-0.33
-0.51
-0.70
-0.92
-1.07
-1.03
-0.75
-0.30
0.14
0.31
0.09
-0.45
-1.10
-1.51
-1.47
-0.94
-0.10
0.76
1.40
1.72
1.74
1.59
1.38
1.16
0.88
0.51
0.06
-0.37
-0.63
-0.63
-0.34
0.13
0.62
0.94
0.98
0.73
0.28
-0.17
-0.47
-0.50
-0.22
0.27
0.80
1.20
1.33
1.14
0.72
0.22
-0.20
-0.43
-0.47
-0.32
-0.05
0.26
0.55
0.76
0.84
0.75
0.57
0.36
0.25
0.32
0.55
0.82
1.00
1.00
0.83
0.55
0.22
-0.11
-0.40
-0.63
-0.78
-0.83
-0.82
-0.82
-0.89
-1.06
-1.19
-1.18
-0.94
-0.49
-0.00
0.40
0.67
0.84
0.95
0.97
0.78
0.30
-0.41
-1.12
-1.51
-1.31
-0.54
0.53
1.51
2.07
2.13
1.81
1.34
0.88
0.54
0.29
0.12
0.06
0.12
0.35
0.73
1.16
1.52
1.66
1.52
1.15
0.70
0.41
0.41
0.74
1.24
1.65
1.68
1.22
0.38
-0.50
-1.07
-1.16
-0.87
-0.49
-0.31
-0.47
-0.88
-1.34
-1.64
-1.62
-1.24
-0.49
0.54
1.67
2.66
3.17
3.01
2.16
0.91
-0.36
-1.27
-1.68
-1.64
-1.38
-1.06
-0.79
-0.55
-0.28
0.02
0.35
0.63
0.82
0.89
0.79
0.43
-0.18
-1.01
-1.88
-2.56
-2.82
-2.55
-1.81
-0.79
0.23
0.96
1.22
0.99
0.41
-0.28
-0.87
-1.22
-1.29
-1.16
-0.87
-0.42
0.18
0.93
1.71
2.32
2.59
2.49
2.17
1.90
1.90
2.18
2.53
2.66
2.34
1.57
0.61
-0.23
-0.73
-0.89
-0.91
-1.00
-1.24
-1.54
-1.72
-1.66
-1.38
-1.01
-0.73
-0.60
-0.51
-0.32
0.13
0.81
1.52
2.03
2.17
1.93
1.44
0.89
0.42
0.02
-0.36
-0.77
-1.16
-1.39
-1.30
-0.85
-0.20
0.37
0.59
0.38
-0.13
-0.65
-0.90
-0.78
-0.40
0.05
0.41
0.56
0.52
0.35
0.11
-0.12
-0.22
-0.05
0.43
1.10
1.74
2.03
1.82
1.14
0.19
-0.71
-1.35
-1.60
-1.50
-1.08
-0.41
0.42
1.29
2.04
2.49
2.55
2.21
1.62
0.96
0.47
0.25
0.35
0.63
0.93
1.10
1.11
1.04
0.97
0.95
0.92
0.76
0.39
-0.15
-0.70
-1.12
-1.33
-1.36
-1.36
-1.47
-1.77
-2.24
-2.72
-3.04
-3.06
-2.75
-2.20
-1.61
-1.17
-0.96
-0.88
-0.72
-0.32
0.32
1.00
1.42
1.38
0.89
0.24
-0.17
-0.04
0.65
1.70
2.70
3.31
3.37
2.98
2.39
1.86
1.50
1.31
1.18
1.01
0.82
0.66
0.58
0.54
0.47
0.28
-0.07
-0.56
-1.10
-1.54
-1.78
-1.76
-1.48
-1.02
-0.50
-0.02
0.37
0.66
0.91
1.19
1.47
1.66
1.63
1.28
0.63
-0.15
-0.80
-1.12
-1.03
-0.64
-0.18
0.14
0.24
0.16
0.07
0.07
0.12
0.08
-0.18
-0.68
-1.27
-1.68
-1.68
-1.24
-0.55
0.08
0.39
0.35
0.10
-0.07
0.04
0.49
1.10
1.63
1.87
1.77
1.43
1.06
0.83
0.79
0.86
0.89
0.76
0.44
0.02
-0.40
-0.71
-0.90
-1.01
-1.13
-1.24
-1.31
-1.22
-0.90
-0.41
0.06
0.28
0.12
-0.38
-1.00
-1.45
-1.52
-1.14
-0.43
0.45
1.28
1.88
2.14
2.03
1.65
1.19
0.87
0.76
0.84
0.95
1.00
0.92
0.72
0.47
0.25
0.13
0.17
0.37
0.62
0.74
0.57
0.07
-0.62
-1.22
-1.47
-1.31
-0.90
-0.50
-0.33
-0.40
-0.58
-0.73
-0.76
-0.67
-0.48
-0.20
0.16
0.57
0.94
1.17
1.21
1.12
1.00
0.92
0.89
0.86
0.81
0.71
0.58
0.39
0.13
-0.17
-0.47
-0.63
-0.56
-0.25
0.21
0.61
0.77
0.61
0.18
-0.34
-0.74
-0.87
-0.72
-0.40
-0.06
0.20
0.32
0.36
0.38
0.48
0.68
0.96
1.22
1.39
1.37
1.14
0.73
0.22
-0.27
-0.69
-1.03
-1.30
-1.48
-1.48
-1.24
-0.74
-0.08
0.56
1.01
1.16
1.01
0.64
0.19
-0.21
-0.43
-0.40
-0.14
0.27
0.68
0.98
1.05
0.91
0.60
0.20
-0.22
-0.61
-0.92
-1.08
-1.01
-0.68
-0.11
0.56
1.13
1.45
1.49
1.36
1.23
1.21
1.24
1.16
0.81
0.22
-0.48
-1.03
-1.32
-1.32
-1.15
-0.92
-0.67
-0.34
0.08
0.49
0.71
0.55
0.06
-0.55
-0.92
-0.84
-0.35
0.30
0.78
0.88
0.61
0.09
-0.46
-0.87
-1.05
-1.00
-0.80
-0.55
-0.32
-0.12
0.10
0.44
0.92
1.45
1.83
1.87
1.54
0.98
0.43
0.09
0.00
0.01
-0.07
-0.33
-0.69
-0.93
-0.92
-0.60
-0.17
0.23
0.49
0.64
0.81
1.13
1.60
2.11
2.46
2.44
1.99
1.19
0.25
-0.56
-1.05
-1.13
-0.87
-0.43
-0.03
0.20
0.19
-0.01
-0.33
-0.69
-1.01
-1.28
-1.43
-1.45
-1.28
-0.93
-0.48
-0.02
0.28
0.37
0.24
-0.01
-0.26
-0.45
-0.60
-0.69
-0.72
-0.64
-0.41
-0.06
0.31
0.57
0.65
0.58
0.51
0.58
0.83
1.19
1.44
1.45
1.18
0.76
0.40
0.24
0.32
0.55
0.74
0.76
0.57
0.30
0.10
0.08
0.22
0.40
0.46
0.28
-0.12
-0.60
-1.00
-1.16
-0.98
-0.50
0.13
0.73
1.13
1.28
1.22
1.00
0.69
0.28
-0.27
-0.93
-1.59
-2.04
-2.14
-1.92
-1.56
-1.35
-1.45
-1.82
-2.16
-2.10
-1.40
-0.13
1.36
2.63
3.33
3.39
2.95
2.32
1.69
1.16
0.70
0.29
-0.03
-0.12
0.05
0.39
0.67
0.62
0.15
-0.57
-1.20
-1.38
-1.03
-0.32
0.36
0.67
0.47
-0.06
-0.63
-0.95
-0.90
-0.58
-0.15
0.22
0.47
0.62
0.69
0.68
0.56
0.32
0.03
-0.17
-0.18
0.02
0.36
0.73
0.98
1.07
0.99
0.77
0.45
0.07
-0.31
-0.61
-0.76
-0.76
-0.64
-0.46
-0.32
-0.31
-0.45
-0.74
-1.12
-1.42
-1.45
-1.06
-0.27
0.70
1.52
1.92
1.80
1.32
0.73
0.27
0.02
-0.16
-0.39
-0.75
-1.11
-1.30
-1.23
-0.94
-0.66
-0.56
-0.69
-0.93
-1.07
-0.96
-0.57
-0.01
0.58
1.12
1.58
1.95
2.22
2.32
2.23
1.97
1.64
1.38
1.28
1.33
1.41
1.36
1.11
0.71
0.35
0.19
0.31
0.61
0.87
0.84
0.45
-0.21
-0.86
-1.23
-1.16
-0.73
-0.18
0.23
0.31
0.04
-0.51
-1.17
-1.69
-1.90
-1.70
-1.15
-0.43
0.20
0.54
0.58
0.42
0.26
0.21
0.21
0.16
-0.01
-0.18
-0.12
0.35
1.14
1.93
2.31
2.05
1.26
0.35
-0.25
-0.26
0.23
0.87
1.27
1.20
0.72
0.06
-0.51
-0.81
-0.80
-0.57
-0.25
0.08
0.36
0.56
0.64
0.59
0.38
0.04
-0.38
-0.81
-1.12
-1.21
-0.98
-0.46
0.19
0.75
1.01
0.90
0.46
-0.17
-0.84
-1.36
-1.62
-1.61
-1.39
-1.05
-0.73
-0.49
-0.35
-0.31
-0.38
-0.58
-0.92
-1.34
-1.71
-1.86
-1.66
-1.10
-0.31
0.50
1.15
1.55
1.74
1.80
1.75
1.60
1.31
0.90
0.47
0.15
0.05
0.17
0.43
0.74
0.99
1.14
1.17
1.06
0.83
0.49
0.14
-0.17
-0.37
-0.44
-0.38
-0.25
-0.17
-0.21
-0.36
-0.54
-0.66
-0.65
-0.51
-0.35
-0.26
-0.33
-0.59
-0.98
-1.40
-1.70
-1.76
-1.56
-1.12
-0.54
0.08
0.69
1.20
1.60
1.83
1.90
1.82
1.63
1.41
1.17
0.94
0.68
0.34
-0.03
-0.35
-0.46
-0.26
0.19
0.70
1.01
0.97
0.60
0.06
-0.43
-0.68
-0.64
-0.39
-0.08
0.20
0.37
0.43
0.38
0.22
-0.06
-0.47
-0.91
-1.21
-1.23
-0.91
-0.29
0.43
1.03
1.37
1.51
1.56
1.68
1.87
2.00
1.94
1.64
1.24
0.97
0.99
1.28
1.62
1.68
1.26
0.35
-0.81
-1.86
-2.45
-2.45
-1.92
-1.17
-0.52
-0.15
-0.03
0.06
0.33
0.81
1.23
1.26
0.64
-0.53
-1.84
-2.73
-2.92
-2.42
-1.60
-0.88
-0.51
-0.42
-0.34
-0.06
0.45
1.02
1.40
1.42
1.14
0.72
0.41
0.30
0.32
0.33
0.16
-0.17
-0.54
-0.74
-0.61
-0.18
0.36
0.71
0.68
0.28
-0.28
-0.67
-0.69
-0.37
0.09
0.40
0.37
0.05
-0.38
-0.66
-0.66
-0.39
-0.02
0.29
0.49
0.62
0.81
1.07
1.37
1.57
1.56
1.32
0.91
0.44
-0.01
-0.38
-0.67
-0.96
-1.27
-1.59
-1.89
-2.03
-1.94
-1.57
-0.97
-0.28
0.33
0.71
0.81
0.69
0.48
0.32
0.29
0.34
0.37
0.29
0.07
-0.18
-0.26
0.00
0.66
1.56
2.39
2.85
2.75
2.12
1.26
0.44
-0.13
-0.40
-0.50
-0.56
-0.62
-0.67
-0.62
-0.49
-0.30
-0.15
-0.13
-0.18
-0.23
-0.14
0.09
0.44
0.74
0.90
0.86
0.66
0.40
0.19
0.06
-0.03
-0.14
-0.29
-0.46
-0.54
-0.50
-0.30
0.01
0.41
0.84
1.27
1.62
1.79
1.66
1.14
0.27
-0.77
-1.69
-2.25
-2.32
-2.01
-1.54
-1.17
-1.04
-1.14
-1.35
-1.52
-1.55
-1.48
-1.34
-1.16
-0.94
-0.62
-0.23
0.16
0.45
0.56
0.46
0.24
-0.04
-0.29
-0.45
-0.45
-0.26
0.13
0.68
1.23
1.65
1.85
1.81
1.62
1.43
1.30
1.24
1.20
1.09
0.92
0.72
0.61
0.61
0.72
0.84
0.84
0.69
0.40
0.13
0.03
0.18
0.51
0.83
0.93
0.67
0.10
-0.63
-1.35
-1.94
-2.39
-2.70
-2.85
-2.77
-2.36
-1.62
-0.63
0.37
1.14
1.49
1.41
1.05
0.65
0.41
0.40
0.54
0.65
0.57
0.29
-0.08
-0.37
-0.48
-0.43
-0.38
-0.47
-0.78
-1.21
-1.61
-1.82
-1.77
-1.56
-1.27
-1.00
-0.76
-0.52
-0.20
0.27
0.88
1.61
2.36
3.02
3.47
3.57
3.28
2.65
1.78
0.90
0.20
-0.18
-0.22
0.00
0.38
0.80
1.21
1.60
1.97
2.25
2.39
2.28
1.92
1.37
0.74
0.12
-0.46
-0.99
-1.51
-2.01
-2.44
-2.69
-2.66
-2.28
-1.58
-0.70
0.17
0.83
1.14
1.04
0.56
-0.16
-0.96
-1.62
-1.96
-1.85
-1.38
-0.75
-0.24
-0.08
-0.26
-0.60
-0.85
-0.86
-0.66
-0.43
-0.35
-0.42
-0.48
-0.29
0.23
0.98
1.65
1.93
1.66
0.97
0.17
-0.39
-0.47
-0.09
0.55
1.13
1.42
1.31
0.88
0.30
-0.25
-0.64
-0.83
-0.84
-0.75
-0.62
-0.47
-0.28
-0.03
0.27
0.52
0.56
0.23
-0.53
-1.56
-2.54
-3.11
-3.04
-2.37
-1.38
-0.45
0.18
0.48
0.65
0.93
1.42
2.03
2.49
2.61
2.32
1.78
1.26
0.96
0.92
0.99
0.97
0.70
0.20
-0.41
-0.94
-1.23
-1.24
-0.98
-0.52
0.05
0.68
1.32
1.87
2.23
2.31
2.04
1.45
0.66
-0.13
-0.68
-0.85
-0.66
-0.27
0.08
0.21
0.09
-0.22
-0.56
-0.89
-1.21
-1.59
-2.01
-2.32
-2.37
-2.03
-1.36
-0.54
0.17
0.65
0.86
0.90
0.83
0.67
0.38
-0.03
-0.47
-0.76
-0.77
-0.45
0.05
0.55
0.87
0.94
0.86
0.75
0.76
0.93
1.18
1.37
1.39
1.19
0.84
0.42
0.03
-0.30
-0.61
-0.97
-1.41
-1.86
-2.18
-2.18
-1.76
-0.96
-0.01
0.81
1.24
1.21
0.82
0.34
-0.01
-0.07
0.10
0.33
0.45
0.37
0.13
-0.16
-0.40
-0.54
-0.58
-0.50
-0.36
-0.22
-0.18
-0.29
-0.56
-0.93
-1.21
-1.26
-0.92
-0.16
0.91
2.02
2.89
3.28
3.13
2.55
1.75
0.96
0.28
-0.24
-0.69
-1.08
-1.40
-1.57
-1.46
-1.02
-0.30
0.53
1.22
1.57
1.44
0.92
0.23
-0.30
-0.44
-0.14
0.37
0.80
0.91
0.69
0.35
0.14
0.22
0.51
0.82
0.99
0.97
0.82
0.68
0.64
0.65
0.65
0.57
0.41
0.16
-0.17
-0.58
-1.05
-1.48
-1.70
-1.58
-1.14
-0.64
-0.39
-0.61
-1.27
-2.07
-2.57
-2.51
-1.84
-0.81
0.20
0.88
1.14
1.11
0.98
0.91
0.87
0.74
0.35
-0.32
-1.16
-1.90
-2.30
-2.17
-1.56
-0.65
0.28
0.99
1.36
1.42
1.30
1.13
1.01
0.96
0.96
1.01
1.11
1.24
1.36
1.36
1.16
0.72
0.12
-0.49
-0.92
-1.00
-0.71
-0.15
0.51
1.02
1.18
0.95
0.38
-0.31
-0.92
-1.30
-1.44
-1.50
-1.64
-1.94
-2.33
-2.54
-2.35
-1.63
-0.54
0.65
1.57
2.01
2.00
1.69
1.36
1.15
1.04
0.96
0.79
0.55
0.36
0.36
0.56
0.87
1.10
1.11
0.88
0.55
0.28
0.16
0.16
0.11
-0.08
-0.48
-1.00
-1.52
-1.86
-1.91
-1.61
-0.94
0.01
1.04
1.87
2.23
1.96
1.14
0.05
-0.91
-1.40
-1.31
-0.77
-0.05
0.56
0.91
1.02
0.97
0.82
0.58
0.20
-0.30
-0.79
-1.09
-1.04
-0.69
-0.20
0.16
0.29
0.21
0.05
-0.10
-0.21
-0.35
-0.53
-0.64
-0.47
0.06
0.86
1.64
2.05
1.93
1.36
0.61
-0.05
-0.50
-0.77
-0.98
-1.15
-1.20
-1.02
-0.57
0.01
0.51
0.75
0.65
0.35
-0.00
-0.28
-0.49
-0.71
-1.01
-1.34
-1.55
-1.46
-1.04
-0.36
0.32
0.81
1.01
0.97
0.84
0.67
0.44
0.06
-0.50
-1.11
-1.51
-1.44
-0.82
0.17
1.17
1.86
2.04
1.75
1.13
0.40
-0.29
-0.82
-1.16
-1.28
-1.22
-0.99
-0.60
-0.08
0.58
1.29
1.89
2.19
2.03
1.42
0.54
-0.28
-0.77
-0.85
-0.67
-0.46
-0.38
-0.42
-0.42
-0.24
0.14
0.54
0.81
0.82
0.59
0.29
0.08
-0.00
0.02
0.06
0.07
0.10
0.23
0.46
0.78
1.05
1.17
1.08
0.78
0.31
-0.26
-0.87
-1.39
-1.71
-1.75
-1.46
-0.98
-0.51
-0.24
-0.22
-0.36
-0.52
-0.52
-0.39
-0.22
-0.10
-0.11
-0.15
-0.07
0.19
0.54
0.75
0.58
-0.03
-0.88
-1.55
-1.65
-0.99
0.27
1.65
2.57
2.63
1.77
0.33
-1.13
-2.12
-2.42
-2.08
-1.39
-0.63
-0.00
0.40
0.61
0.65
0.58
0.47
0.45
0.60
1.00
1.52
2.01
2.28
2.27
2.02
1.67
1.32
1.00
0.71
0.44
0.21
0.07
0.04
0.04
-0.08
-0.45
-1.10
-1.85
-2.42
-2.58
-2.29
-1.65
-0.94
-0.33
0.08
0.36
0.61
0.81
0.93
0.85
0.60
0.27
0.03
-0.03
0.03
0.10
0.04
-0.15
-0.36
-0.48
-0.48
-0.44
-0.48
-0.61
-0.72
-0.68
-0.39
0.04
0.45
0.67
0.70
0.68
0.74
0.93
1.11
1.06
0.66
-0.07
-0.91
-1.67
-2.18
-2.42
-2.42
-2.16
-1.64
-0.89
-0.04
0.69
1.09
1.12
0.90
0.62
0.45
0.42
0.44
0.43
0.42
0.51
0.84
1.41
2.01
2.39
2.30
1.78
1.03
0.34
-0.03
-0.06
0.11
0.29
0.36
0.31
0.23
0.17
0.10
-0.06
-0.30
-0.55
-0.61
-0.32
0.36
1.26
2.06
2.45
2.25
1.50
0.47
-0.53
-1.21
-1.42
-1.21
-0.72
-0.17
0.30
0.55
0.54
0.29
-0.20
-0.84
-1.51
-2.09
-2.42
-2.45
-2.14
-1.57
-0.86
-0.14
0.42
0.75
0.80
0.65
0.41
0.21
0.14
0.18
0.28
0.38
0.41
0.41
0.43
0.47
0.49
0.38
0.10
-0.34
-0.82
-1.17
-1.24
-0.98
-0.47
0.14
0.67
1.02
1.22
1.33
1.41
1.45
1.37
1.05
0.45
-0.37
-1.23
-1.87
-2.04
-1.67
-0.82
0.24
1.19
1.75
1.77
1.26
0.40
-0.56
-1.31
-1.67
-1.54
-1.04
-0.40
0.14
0.40
0.36
0.14
-0.07
-0.15
-0.09
0.03
0.15
0.27
0.43
0.68
0.91
0.98
0.69
0.07
-0.70
-1.34
-1.64
-1.58
-1.29
-1.02
-0.90
-0.99
-1.18
-1.34
-1.42
-1.39
-1.34
-1.29
-1.27
-1.21
-1.07
-0.79
-0.40
0.03
0.40
0.58
0.55
0.43
0.42
0.68
1.23
1.91
2.43
2.62
2.43
2.02
1.62
1.40
1.40
1.54
1.67
1.65
1.39
0.94
0.35
-0.24
-0.68
-0.91
-0.93
-0.82
-0.69
-0.60
-0.56
-0.49
-0.33
-0.07
0.22
0.41
0.42
0.22
-0.08
-0.37
-0.52
-0.48
-0.31
-0.14
-0.08
-0.19
-0.46
-0.85
-1.24
-1.53
-1.60
-1.37
-0.77
0.15
1.23
2.20
2.82
2.91
2.44
1.56
0.48
-0.57
-1.38
-1.78
-1.68
-1.10
-0.14
0.91
1.77
2.24
2.25
1.89
1.27
0.58
-0.08
-0.60
-0.89
-0.88
-0.55
0.01
0.61
1.02
1.11
0.88
0.49
0.15
-0.01
0.00
0.08
0.09
-0.09
-0.41
-0.81
-1.14
-1.31
-1.33
-1.26
-1.15
-1.00
-0.76
-0.37
0.12
0.57
0.79
0.66
0.25
-0.25
-0.57
-0.59
-0.33
-0.00
0.18
0.06
-0.33
-0.83
-1.27
-1.44
-1.30
-0.83
-0.15
0.55
1.09
1.28
1.06
0.42
-0.48
-1.46
-2.29
-2.79
-2.83
-2.40
-1.59
-0.61
0.26
0.82
0.94
0.65
0.12
-0.45
-0.84
-0.97
-0.83
-0.54
-0.23
-0.04
-0.00
-0.11
-0.31
-0.52
-0.64
-0.54
-0.16
0.48
1.28
2.04
2.61
2.85
2.74
2.39
1.94
1.55
1.34
1.34
1.57
1.93
2.29
2.52
2.47
2.13
1.57
0.93
0.34
-0.13
-0.48
-0.72
-0.85
-0.88
-0.85
-0.83
-0.90
-1.08
-1.35
-1.58
-1.66
-1.56
-1.33
-1.10
-0.98
-1.02
-1.20
-1.41
-1.54
-1.55
-1.42
-1.17
-0.83
-0.41
0.06
0.58
1.09
1.51
1.69
1.49
0.90
0.06
-0.74
-1.23
-1.27
-0.92
-0.39
0.09
0.40
0.56
0.70
0.89
1.16
1.43
1.61
1.68
1.62
1.51
1.34
1.07
0.72
0.33
0.01
-0.09
0.05
0.37
0.68
0.81
0.65
0.24
-0.22
-0.53
-0.59
-0.46
-0.30
-0.32
-0.58
-0.99
-1.35
-1.48
-1.30
-0.93
-0.55
-0.34
-0.35
-0.48
-0.57
-0.47
-0.19
0.18
0.49
0.67
0.78
0.93
1.20
1.51
1.68
1.45
0.78
-0.17
-1.02
-1.46
-1.39
-0.95
-0.49
-0.24
-0.28
-0.47
-0.60
-0.56
-0.35
-0.08
0.19
0.41
0.58
0.62
0.46
0.04
-0.55
-1.07
-1.24
-0.96
-0.29
0.47
1.05
1.23
1.02
0.52
-0.09
-0.70
-1.19
-1.50
-1.56
-1.37
-0.97
-0.55
-0.24
-0.09
-0.05
0.02
0.23
0.57
0.92
1.13
1.12
0.88
0.49
0.02
-0.48
-0.92
-1.21
-1.23
-0.91
-0.32
0.34
0.81
0.94
0.73
0.38
0.12
0.08
0.24
0.49
0.69
0.82
0.91
1.05
1.26
1.46
1.53
1.39
1.05
0.67
0.41
0.39
0.54
0.66
0.59
0.24
-0.31
-0.86
-1.21
-1.24
-0.93
-0.35
0.42
1.25
2.00
2.45
2.38
1.69
0.52
-0.75
-1.73
-2.15
-1.99
-1.53
-1.01
-0.64
-0.41
-0.28
-0.24
-0.37
-0.77
-1.45
-2.26
-2.91
-3.17
-2.93
-2.29
-1.47
-0.73
-0.21
0.10
0.25
0.36
0.47
0.58
0.65
0.65
0.55
0.37
0.19
0.12
0.26
0.66
1.24
1.86
2.35
2.58
2.51
2.22
1.83
1.43
1.11
0.85
0.63
0.40
0.15
-0.10
-0.33
-0.48
-0.53
-0.45
-0.28
-0.07
0.10
0.14
0.02
-0.24
-0.62
-1.02
-1.37
-1.64
-1.75
-1.70
-1.46
-1.08
-0.57
0.01
0.62
1.21
1.69
1.99
1.99
1.68
1.10
0.38
-0.33
-0.92
-1.35
-1.63
-1.77
-1.76
-1.55
-1.11
-0.47
0.22
0.79
1.12
1.21
1.17
1.17
1.27
1.45
1.61
1.59
1.39
1.05
0.71
0.47
0.36
0.31
0.21
-0.03
-0.40
-0.87
-1.34
-1.69
-1.85
-1.79
-1.54
-1.21
-0.95
-0.89
-1.04
-1.28
-1.37
-1.15
-0.56
0.22
0.93
1.32
1.32
1.05
0.72
0.54
0.50
0.48
0.29
-0.15
-0.73
-1.24
-1.45
-1.27
-0.82
-0.31
0.04
0.14
0.07
0.03
0.12
0.40
0.75
1.01
1.03
0.78
0.33
-0.19
-0.59
-0.77
-0.71
-0.51
-0.35
-0.38
-0.66
-1.11
-1.54
-1.78
-1.67
-1.18
-0.40
0.46
1.18
1.54
1.45
1.02
0.47
0.03
-0.13
-0.06
0.13
0.29
0.39
0.47
0.62
0.82
1.01
1.09
1.08
1.05
1.13
1.36
1.64
1.81
1.72
1.36
0.78
0.09
-0.58
-1.16
-1.60
-1.87
-1.97
-1.98
-1.99
-2.12
-2.38
-2.63
-2.65
-2.24
-1.39
-0.30
0.68
1.28
1.43
1.33
1.28
1.55
2.16
2.87
3.32
3.22
2.57
1.62
0.74
0.17
-0.05
-0.11
-0.26
-0.60
-1.04
-1.28
-1.10
-0.42
0.55
1.45
1.90
1.76
1.16
0.36
-0.29
-0.62
-0.67
-0.63
-0.72
-1.01
-1.38
-1.57
-1.39
-0.84
-0.15
0.40
0.60
0.44
0.11
-0.17
-0.24
-0.10
0.14
0.36
0.48
0.52
0.52
0.56
0.66
0.80
0.85
0.69
0.21
-0.58
-1.46
-2.17
-2.40
-2.09
-1.38
-0.61
-0.10
0.02
-0.13
-0.29
-0.18
0.28
0.96
1.63
2.06
2.13
1.85
1.32
0.67
0.02
-0.64
-1.31
-2.01
-2.66
-3.10
-3.17
-2.77
-1.97
-0.97
-0.06
0.52
0.66
0.42
-0.04
-0.51
-0.83
-0.89
-0.71
-0.34
0.12
0.55
0.86
0.97
0.88
0.60
0.24
-0.07
-0.21
-0.11
0.24
0.76
1.27
1.57
1.55
1.19
0.65
0.17
0.02
0.30
0.92
1.64
2.13
2.16
1.70
0.91
0.09
-0.49
-0.68
-0.51
-0.12
0.28
0.56
0.64
0.50
0.17
-0.24
-0.61
-0.84
-0.84
-0.63
-0.34
-0.07
0.07
0.07
0.00
-0.06
-0.08
-0.06
-0.04
-0.06
-0.08
-0.03
0.10
0.30
0.49
0.58
0.51
0.34
0.15
0.01
-0.02
0.04
0.17
0.36
0.65
1.09
1.66
2.22
2.54
2.38
1.72
0.71
-0.33
-1.05
-1.32
-1.21
-0.93
-0.70
-0.63
-0.67
-0.69
-0.66
-0.61
-0.64
-0.84
-1.18
-1.49
-1.60
-1.43
-1.03
-0.57
-0.22
-0.04
-0.01
0.01
0.09
0.28
0.50
0.62
0.55
0.33
0.06
-0.14
-0.20
-0.14
0.01
0.18
0.36
0.56
0.73
0.83
0.81
0.63
0.34
0.02
-0.22
-0.35
-0.35
-0.32
-0.36
-0.53
-0.87
-1.29
-1.64
-1.77
-1.64
-1.31
-0.95
-0.73
-0.73
-0.86
-0.93
-0.77
-0.35
0.13
0.47
0.53
0.35
0.09
-0.09
-0.14
-0.16
-0.23
-0.37
-0.46
-0.34
0.06
0.66
1.31
1.80
2.02
2.00
1.76
1.35
0.81
0.21
-0.32
-0.65
-0.69
-0.44
-0.04
0.35
0.59
0.63
0.49
0.23
-0.08
-0.37
-0.56
-0.59
-0.37
0.08
0.73
1.44
2.07
2.48
2.59
2.41
1.97
1.36
0.64
-0.07
-0.70
-1.21
-1.60
-1.92
-2.21
-2.46
-2.60
-2.51
-2.09
-1.36
-0.43
0.48
1.15
1.42
1.26
0.76
0.06
-0.65
-1.19
-1.42
-1.29
-0.85
-0.25
0.33
0.75
0.92
0.87
0.64
0.35
0.08
-0.06
-0.03
0.20
0.52
0.79
0.85
0.56
-0.05
-0.84
-1.60
-2.13
-2.30
-2.09
-1.54
-0.74
0.17
1.06
1.74
2.05
1.91
1.33
0.44
-0.53
-1.31
-1.75
-1.77
-1.43
-0.90
-0.31
0.20
0.57
0.76
0.76
0.55
0.19
-0.20
-0.45
-0.43
-0.10
0.44
0.99
1.38
1.48
1.36
1.12
0.87
0.65
0.43
0.18
-0.07
-0.25
-0.31
-0.25
-0.14
-0.03
0.07
0.16
0.24
0.27
0.22
0.09
-0.05
-0.10
0.02
0.26
0.51
0.58
0.40
0.04
-0.32
-0.44
-0.22
0.32
0.96
1.45
1.54
1.12
0.28
-0.71
-1.48
-1.74
-1.40
-0.65
0.17
0.73
0.93
0.89
0.86
1.04
1.38
1.65
1.57
0.99
0.06
-0.92
-1.58
-1.76
-1.49
-1.03
-0.59
-0.32
-0.19
-0.10
0.02
0.13
0.16
0.05
-0.18
-0.38
-0.46
-0.35
-0.16
-0.03
-0.10
-0.42
-0.85
-1.21
-1.31
-1.09
-0.62
-0.09
0.30
0.45
0.35
0.11
-0.11
-0.21
-0.19
-0.12
-0.12
-0.23
-0.45
-0.68
-0.84
-0.91
-0.87
-0.75
-0.58
-0.35
-0.04
0.33
0.74
1.12
1.41
1.53
1.40
1.01
0.41
-0.25
-0.81
-1.14
-1.20
-1.06
-0.83
-0.66
-0.57
-0.58
-0.63
-0.66
-0.60
-0.41
-0.08
0.38
0.86
1.28
1.54
1.59
1.42
1.10
0.69
0.30
-0.02
-0.22
-0.25
-0.15
0.07
0.39
0.79
1.28
1.86
2.48
3.05
3.39
3.39
2.99
2.27
1.35
0.40
-0.46
-1.16
-1.61
-1.79
-1.71
-1.44
-1.14
-0.95
-0.95
-1.10
-1.27
-1.32
-1.22
-1.08
-1.03
-1.15
-1.40
-1.61
-1.61
-1.38
-0.97
-0.55
-0.23
-0.06
0.02
0.11
0.26
0.50
0.74
0.86
0.76
0.43
-0.01
-0.38
-0.50
-0.32
0.05
0.35
0.39
0.09
-0.39
-0.79
-0.90
-0.69
-0.33
-0.05
-0.04
-0.27
-0.58
-0.77
-0.68
-0.38
-0.01
0.24
0.32
0.29
0.32
0.52
0.85
1.21
1.45
1.55
1.57
1.63
1.78
1.93
1.97
1.75
1.23
0.49
-0.35
-1.12
-1.69
-1.96
-1.84
-1.33
-0.49
0.50
1.42
2.05
2.25
2.02
1.46
0.77
0.12
-0.33
-0.48
-0.35
-0.07
0.15
0.11
-0.22
-0.73
-1.21
-1.50
-1.55
-1.47
-1.42
-1.50
-1.67
-1.79
-1.71
-1.38
-0.89
-0.39
-0.01
0.18
0.24
0.23
0.23
0.26
0.33
0.43
0.55
0.67
0.76
0.76
0.60
0.29
-0.10
-0.41
-0.48
-0.24
0.19
0.60
0.77
0.61
0.20
-0.22
-0.44
-0.35
-0.03
0.34
0.61
0.79
0.98
1.25
1.58
1.80
1.69
1.18
0.35
-0.52
-1.14
-1.34
-1.15
-0.74
-0.37
-0.24
-0.38
-0.73
-1.12
-1.37
-1.37
-1.06
-0.50
0.15
0.70
1.00
0.99
0.76
0.46
0.28
0.27
0.36
0.40
0.29
0.04
-0.19
-0.25
-0.10
0.12
0.24
0.09
-0.25
-0.58
-0.64
-0.33
0.21
0.72
0.89
0.64
0.10
-0.48
-0.84
-0.88
-0.68
-0.41
-0.27
-0.35
-0.63
-1.00
-1.29
-1.37
-1.18
-0.75
-0.20
0.32
0.67
0.78
0.62
0.28
-0.20
-0.67
-1.01
-1.09
-0.85
-0.30
0.40
1.01
1.30
1.18
0.77
0.29
0.02
0.12
0.51
1.02
1.42
1.58
1.45
1.10
0.64
0.20
-0.11
-0.25
-0.19
-0.04
0.08
0.05
-0.19
-0.52
-0.74
-0.65
-0.20
0.48
1.13
1.50
1.50
1.20
0.76
0.30
-0.14
-0.59
-1.07
-1.58
-2.01
-2.25
-2.24
-1.97
-1.55
-1.11
-0.76
-0.54
-0.43
-0.35
-0.24
-0.08
0.12
0.30
0.39
0.37
0.29
0.25
0.36
0.66
1.10
1.56
1.90
1.98
1.70
1.05
0.06
-1.07
-2.13
-2.86
-3.07
-2.74
-1.96
-0.98
-0.05
0.62
0.98
1.10
1.15
1.29
1.56
1.94
2.31
2.56
2.62
2.47
2.12
1.56
0.84
0.06
-0.60
-0.95
-0.91
-0.55
-0.10
0.22
0.28
0.14
-0.04
-0.13
-0.12
-0.10
-0.16
-0.34
-0.52
-0.59
-0.48
-0.22
0.10
0.32
0.38
0.22
-0.11
-0.54
-0.94
-1.22
-1.29
-1.14
-0.84
-0.53
-0.32
-0.30
-0.43
-0.68
-0.96
-1.20
-1.32
-1.20
-0.83
-0.28
0.32
0.75
0.90
0.74
0.36
-0.08
-0.44
-0.61
-0.54
-0.23
0.23
0.70
1.03
1.04
0.70
0.10
-0.48
-0.79
-0.62
-0.00
0.84
1.61
2.04
2.06
1.78
1.42
1.18
1.13
1.21
1.29
1.24
1.00
0.65
0.32
0.14
0.17
0.34
0.51
0.54
0.29
-0.27
-1.04
-1.86
-2.52
-2.85
-2.75
-2.32
-1.70
-1.10
-0.71
-0.53
-0.52
-0.50
-0.33
0.03
0.49
0.90
1.08
0.95
0.55
-0.03
-0.67
-1.30
-1.81
-2.15
-2.28
-2.15
-1.75
-1.12
-0.36
0.41
1.02
1.34
1.33
1.10
0.83
0.74
0.95
1.43
2.01
2.43
2.46
2.06
1.36
0.61
0.05
-0.21
-0.19
0.00
0.23
0.40
0.45
0.33
0.04
-0.35
-0.73
-0.94
-0.87
-0.54
-0.10
0.19
0.14
-0.28
-0.88
-1.37
-1.50
-1.22
-0.69
-0.17
0.16
0.21
0.10
-0.07
-0.21
-0.31
-0.45
-0.67
-0.95
-1.21
-1.32
-1.23
-0.93
-0.47
0.08
0.64
1.09
1.30
1.20
0.79
0.21
-0.32
-0.63
-0.67
-0.53
-0.34
-0.21
-0.16
-0.11
0.00
0.21
0.48
0.73
0.88
0.92
0.87
0.74
0.55
0.31
0.06
-0.16
-0.30
-0.35
-0.31
-0.23
-0.15
-0.10
-0.08
-0.12
-0.20
-0.31
-0.44
-0.55
-0.64
-0.60
-0.33
0.18
0.89
1.61
2.12
2.29
2.15
1.87
1.61
1.44
1.28
1.04
0.69
0.37
0.27
0.50
1.00
1.51
1.79
1.63
1.11
0.39
-0.27
-0.70
-0.82
-0.69
-0.45
-0.23
-0.14
-0.20
-0.35
-0.50
-0.64
-0.80
-1.03
-1.30
-1.51
-1.50
-1.19
-0.64
-0.07
0.27
0.24
-0.11
-0.57
-0.87
-0.83
-0.47
0.03
0.43
0.52
0.28
-0.16
-0.58
-0.79
-0.76
-0.61
-0.56
-0.78
-1.30
-1.92
-2.39
-2.46
-2.08
-1.38
-0.59
0.05
0.41
0.43
0.21
-0.16
-0.52
-0.76
-0.75
-0.48
0.01
0.57
1.06
1.39
1.55
1.56
1.43
1.14
0.65
0.04
-0.51
-0.74
-0.55
-0.02
0.54
0.84
0.68
0.16
-0.45
-0.85
-0.86
-0.51
0.05
0.63
1.11
1.45
1.65
1.72
1.66
1.50
1.31
1.17
1.05
0.92
0.69
0.38
0.03
-0.26
-0.47
-0.66
-0.91
-1.26
-1.65
-1.85
-1.67
-1.04
-0.15
0.66
1.02
0.73
-0.09
-1.09
-1.81
-1.98
-1.57
-0.84
-0.10
0.44
0.73
0.87
0.97
1.08
1.15
1.15
1.06
0.92
0.76
0.56
0.26
-0.15
-0.60
-0.90
-0.89
-0.51
0.13
0.81
1.34
1.62
1.66
1.50
1.20
0.75
0.24
-0.20
-0.45
-0.47
-0.34
-0.21
-0.22
-0.40
-0.66
-0.87
-0.92
-0.84
-0.71
-0.69
-0.83
-1.11
-1.40
-1.56
-1.51
-1.27
-0.88
-0.46
-0.10
0.16
0.28
0.26
0.10
-0.19
-0.55
-0.91
-1.17
-1.24
-1.04
-0.57
0.12
0.90
1.54
1.87
1.81
1.42
0.90
0.46
0.24
0.21
0.26
0.27
0.22
0.16
0.20
0.34
0.48
0.47
0.26
-0.08
-0.34
-0.31
0.03
0.60
1.15
1.43
1.34
0.95
0.39
-0.13
-0.53
-0.77
-0.89
-0.92
-0.81
-0.55
-0.15
0.28
0.59
0.65
0.43
0.06
-0.30
-0.50
-0.46
-0.20
0.19
0.63
1.04
1.30
1.27
0.89
0.15
-0.81
-1.74
-2.40
-2.60
-2.30
-1.53
-0.50
0.56
1.41
1.81
1.69
1.14
0.39
-0.26
-0.64
-0.67
-0.46
-0.11
0.29
0.70
1.10
1.40
1.48
1.26
0.76
0.15
-0.32
-0.52
-0.40
-0.15
0.03
-0.01
-0.25
-0.58
-0.84
-0.98
-1.03
-1.07
-1.18
-1.33
-1.44
-1.40
-1.11
-0.58
0.10
0.78
1.30
1.54
1.40
0.93
0.22
-0.55
-1.17
-1.49
-1.45
-1.14
-0.73
-0.42
-0.37
-0.58
-0.90
-1.15
-1.09
-0.63
0.13
0.98
1.61
1.83
1.58
1.02
0.40
-0.04
-0.18
-0.08
0.11
0.27
0.32
0.28
0.24
0.24
0.29
0.30
0.23
0.09
-0.06
-0.14
-0.17
-0.21
-0.36
-0.66
-1.08
-1.47
-1.65
-1.54
-1.15
-0.62
-0.17
0.06
0.06
-0.07
-0.14
-0.02
0.30
0.70
1.02
1.14
1.03
0.80
0.60
0.55
0.64
0.83
1.07
1.30
1.51
1.68
1.73
1.60
1.25
0.71
0.13
-0.33
-0.57
-0.55
-0.35
-0.14
-0.04
-0.08
-0.23
-0.36
-0.38
-0.28
-0.11
0.10
0.28
0.49
0.70
0.90
0.95
0.81
0.45
0.02
-0.28
-0.33
-0.10
0.24
0.41
0.26
-0.24
-0.88
-1.40
-1.61
-1.51
-1.26
-1.12
-1.19
-1.44
-1.64
-1.62
-1.24
-0.61
0.09
0.69
1.08
1.30
1.34
1.19
0.77
0.07
-0.80
-1.59
-1.97
-1.74
-0.94
0.19
1.27
2.00
2.26
2.09
1.69
1.19
0.67
0.13
-0.46
-1.07
-1.55
-1.71
-1.41
-0.70
0.20
0.94
1.26
1.09
0.63
0.19
0.01
0.17
0.49
0.75
0.76
0.53
0.18
-0.09
-0.19
-0.10
0.11
0.38
0.65
0.88
1.02
0.99
0.79
0.50
0.21
-0.00
-0.10
-0.11
-0.03
0.14
0.42
0.78
1.12
1.27
1.10
0.59
-0.11
-0.76
-1.14
-1.20
-1.06
-0.93
-0.94
-1.14
-1.42
-1.65
-1.74
-1.69
-1.55
-1.39
-1.20
-0.96
-0.67
-0.32
0.01
0.30
0.52
0.76
1.07
1.40
1.64
1.66
1.39
0.88
0.27
-0.28
-0.70
-0.98
-1.18
-1.31
-1.39
-1.38
-1.28
-1.14
-0.97
-0.79
-0.57
-0.28
0.07
0.41
0.64
0.75
0.77
0.80
0.89
1.01
1.05
0.89
0.53
0.05
-0.34
-0.48
-0.32
0.05
0.46
0.72
0.74
0.58
0.39
0.35
0.54
0.89
1.18
1.19
0.82
0.12
-0.63
-1.12
-1.17
-0.78
-0.22
0.25
0.38
0.15
-0.35
-0.89
-1.31
-1.52
-1.50
-1.29
-0.94
-0.53
-0.10
0.28
0.60
0.87
1.09
1.25
1.26
1.05
0.61
0.05
-0.42
-0.63
-0.49
-0.07
0.44
0.85
1.03
0.98
0.77
0.53
0.30
0.09
-0.16
-0.46
-0.74
-0.88
-0.73
-0.29
0.34
0.94
1.27
1.22
0.92
0.57
0.43
0.56
0.79
0.88
0.65
0.11
-0.52
-1.01
-1.18
-1.02
-0.65
-0.22
0.14
0.32
0.25
-0.16
-0.92
-1.89
-2.80
-3.33
-3.26
-2.58
-1.54
-0.49
0.30
0.73
0.88
0.88
0.82
0.70
0.49
0.22
-0.00
-0.03
0.22
0.68
1.12
1.31
1.14
0.71
0.27
0.08
0.22
0.62
1.02
1.21
1.10
0.71
0.18
-0.36
-0.86
-1.25
-1.47
-1.42
-1.09
-0.56
-0.04
0.28
0.33
0.16
-0.02
-0.06
0.09
0.42
0.85
1.32
1.75
2.05
2.09
1.77
1.06
0.10
-0.81
-1.34
-1.29
-0.74
0.01
0.59
0.77
0.51
0.04
-0.35
-0.48
-0.37
-0.15
0.00
0.03
0.00
0.03
0.16
0.28
0.21
-0.17
-0.77
-1.37
-1.69
-1.59
-1.17
-0.67
-0.31
-0.22
-0.36
-0.59
-0.77
-0.86
-0.86
-0.78
-0.64
-0.42
-0.18
-0.02
-0.05
-0.32
-0.75
-1.18
-1.41
-1.34
-1.01
-0.57
-0.21
-0.07
-0.12
-0.28
-0.40
-0.39
-0.23
0.02
0.26
0.47
0.64
0.84
1.08
1.34
1.54
1.60
1.48
1.28
1.10
1.05
1.11
1.23
1.26
1.17
0.99
0.81
0.72
0.75
0.84
0.93
0.96
0.94
0.85
0.69
0.41
-0.01
-0.52
-1.05
-1.51
-1.85
-2.01
-1.96
-1.65
-1.05
-0.22
0.67
1.39
1.74
1.63
1.15
0.51
-0.11
-0.57
-0.83
-0.94
-0.89
-0.71
-0.40
-0.02
0.30
0.43
0.29
-0.10
-0.63
-1.15
-1.56
-1.80
-1.89
-1.87
-1.75
-1.57
-1.35
-1.10
-0.85
-0.61
-0.37
-0.06
0.32
0.79
1.24
1.52
1.51
1.15
0.52
-0.19
-0.80
-1.16
-1.26
-1.12
-0.81
-0.34
0.26
0.90
1.43
1.71
1.69
1.46
1.24
1.24
1.53
1.96
2.26
2.25
1.92
1.44
1.01
0.72
0.48
0.16
-0.30
-0.80
-1.07
-0.93
-0.41
0.24
0.72
0.78
0.46
-0.00
-0.37
-0.51
-0.52
-0.59
-0.86
-1.28
-1.69
-1.86
-1.70
-1.26
-0.72
-0.27
-0.03
0.01
-0.06
-0.18
-0.30
-0.43
-0.59
-0.72
-0.81
-0.81
-0.76
-0.69
-0.63
-0.54
-0.37
-0.07
0.37
0.87
1.31
1.62
1.75
1.70
1.53
1.24
0.85
0.44
0.09
-0.08
0.02
0.36
0.83
1.26
1.49
1.44
1.11
0.60
0.04
-0.43
-0.75
-0.91
-0.94
-0.88
-0.76
-0.60
-0.43
-0.27
-0.18
-0.17
-0.23
-0.31
-0.34
-0.28
-0.15
0.01
0.14
0.22
0.30
0.45
0.71
1.03
1.30
1.35
1.06
0.42
-0.44
-1.29
-1.95
-2.29
-2.31
-2.10
-1.72
-1.25
-0.75
-0.26
0.09
0.22
0.09
-0.28
-0.79
-1.31
-1.69
-1.82
-1.66
-1.28
-0.83
-0.46
-0.31
-0.36
-0.48
-0.48
-0.25
0.23
0.85
1.45
1.88
2.09
2.09
1.95
1.75
1.56
1.44
1.38
1.38
1.38
1.34
1.25
1.10
0.88
0.59
0.25
-0.09
-0.37
-0.50
-0.51
-0.43
-0.33
-0.28
-0.31
-0.45
-0.67
-0.95
-1.21
-1.33
-1.21
-0.79
-0.16
0.53
1.04
1.21
0.99
0.52
-0.01
-0.38
-0.53
-0.50
-0.46
-0.54
-0.79
-1.15
-1.50
-1.72
-1.75
-1.61
-1.37
-1.10
-0.83
-0.58
-0.41
-0.33
-0.34
-0.37
-0.30
-0.04
0.39
0.88
1.30
1.59
1.79
1.99
2.20
2.33
2.28
1.98
1.53
1.13
0.92
0.97
1.14
1.24
1.11
0.71
0.10
-0.58
-1.24
-1.86
-2.43
-2.91
-3.19
-3.16
-2.72
-1.93
-0.96
-0.08
0.51
0.71
0.56
0.24
-0.02
-0.04
0.24
0.75
1.34
1.83
2.04
1.91
1.45
0.81
0.19
-0.18
-0.15
0.27
0.93
1.55
1.87
1.77
1.30
0.65
-0.03
-0.63
-1.12
-1.51
-1.76
-1.82
-1.65
-1.28
-0.82
-0.40
-0.13
-0.02
-0.03
-0.08
-0.14
-0.21
-0.34
-0.56
-0.85
-1.14
-1.33
-1.37
-1.25
-1.02
-0.74
-0.46
-0.22
-0.02
0.16
0.36
0.58
0.86
1.15
1.42
1.61
1.67
1.59
1.40
1.17
0.99
0.94
1.01
1.12
1.14
1.00
0.72
0.36
0.03
-0.19
-0.25
-0.21
-0.15
-0.14
-0.20
-0.30
-0.39
-0.41
-0.36
-0.30
-0.29
-0.36
-0.50
-0.63
-0.71
-0.67
-0.51
-0.22
0.16
0.58
0.97
1.23
1.28
1.08
0.66
0.17
-0.27
-0.56
-0.71
-0.75
-0.77
-0.79
-0.82
-0.78
-0.65
-0.44
-0.16
0.08
0.23
0.24
0.11
-0.08
-0.22
-0.20
-0.02
0.23
0.36
0.19
-0.31
-1.01
-1.62
-1.91
-1.79
-1.35
-0.77
-0.24
0.12
0.31
0.30
0.06
-0.39
-0.97
-1.47
-1.62
-1.32
-0.63
0.22
0.92
1.34
1.49
1.50
1.47
1.39
1.19
0.83
0.38
0.04
-0.01
0.33
0.98
1.73
2.32
2.57
2.42
1.91
1.16
0.30
-0.47
-1.02
-1.25
-1.13
-0.77
-0.28
0.16
0.44
0.48
0.27
-0.12
-0.56
-0.95
-1.21
-1.33
-1.40
-1.47
-1.59
-1.74
-1.89
-1.93
-1.84
-1.59
-1.20
-0.70
-0.13
0.45
0.97
1.39
1.68
1.92
2.13
2.32
2.38
2.19
1.65
0.75
-0.34
-1.36
-2.05
-2.25
-2.01
-1.47
-0.85
-0.31
0.04
0.21
0.19
-0.01
-0.31
-0.60
-0.75
-0.65
-0.28
0.24
0.72
1.02
1.08
0.96
0.77
0.56
0.36
0.16
-0.06
-0.25
-0.38
-0.43
-0.43
-0.40
-0.37
-0.32
-0.22
-0.05
0.10
0.11
-0.08
-0.45
-0.83
-1.03
-0.90
-0.46
0.10
0.52
0.59
0.32
-0.09
-0.36
-0.27
0.19
0.80
1.24
1.23
0.72
-0.07
-0.81
-1.18
-1.05
-0.57
-0.03
0.30
0.26
-0.04
-0.35
-0.46
-0.22
0.28
0.81
1.19
1.30
1.20
1.04
0.98
1.03
1.10
1.04
0.77
0.30
-0.21
-0.61
-0.80
-0.79
-0.68
-0.58
-0.55
-0.60
-0.68
-0.74
-0.74
-0.64
-0.47
-0.23
0.02
0.21
0.32
0.35
0.38
0.42
0.46
0.47
0.44
0.37
0.35
0.45
0.68
0.98
1.21
1.23
1.01
0.59
0.13
-0.22
-0.33
-0.16
0.25
0.72
1.07
1.16
0.99
0.66
0.30
-0.01
-0.29
-0.58
-0.90
-1.13
-1.17
-0.95
-0.53
-0.08
0.27
0.45
0.49
0.50
0.54
0.59
0.55
0.36
-0.03
-0.60
-1.28
-1.96
-2.51
-2.76
-2.62
-2.05
-1.19
-0.31
0.38
0.75
0.86
0.84
0.84
0.88
0.90
0.85
0.67
0.40
0.12
-0.05
-0.08
-0.03
0.03
-0.00
-0.20
-0.54
-0.94
-1.34
-1.67
-1.93
-2.10
-2.21
-2.23
-2.16
-1.95
-1.58
-1.13
-0.66
-0.26
0.05
0.33
0.61
0.90
1.14
1.25
1.21
1.09
1.08
1.31
1.85
2.55
3.13
3.37
3.20
2.74
2.24
1.83
1.53
1.20
0.73
0.16
-0.34
-0.58
-0.46
-0.09
0.31
0.50
0.38
0.07
-0.25
-0.39
-0.35
-0.24
-0.30
-0.66
-1.35
-2.22
-3.00
-3.41
-3.29
-2.67
-1.74
-0.79
-0.07
0.32
0.45
0.50
0.61
0.80
0.96
0.98
0.83
0.62
0.55
0.77
1.27
1.86
2.32
2.49
2.41
2.23
2.11
2.08
2.05
1.91
1.62
1.24
0.97
0.91
1.09
1.37
1.60
1.67
1.54
1.34
1.18
1.18
1.40
1.81
2.36
2.98
3.61
4.17
4.65
5.04
5.38
5.69
6.02
6.42
6.95
7.69
8.65
9.79
11.00
12.17
13.22
14.14
14.98
15.83
16.70
17.56
18.30
18.82
19.05
19.00
18.75
18.33
17.74
16.89
15.68
13.97
11.66
8.71
5.14
1.04
-3.41
-8.00
-12.52
-16.85
-20.93
-24.81
-28.55
-32.14
-35.51
-38.50
-40.93
-42.70
-43.78
-44.19
-44.01
-43.27
-41.99
-40.20
-37.91
-35.27
-32.46
-29.71
-27.16
-24.81
-22.51
-20.04
-17.19
-13.97
-10.60
-7.44
-4.84
-2.90
-1.49
-0.30
1.06
2.79
4.87
7.14
9.36
11.40
13.26
15.01
16.65
18.06
19.02
19.34
19.01
18.24
17.38
16.78
16.58
16.72
16.92
16.93
16.66
16.15
15.55
14.98
14.49
14.07
13.70
13.42
13.23
13.10
12.90
12.44
11.65
10.58
9.42
8.43
7.73
7.24
6.70
5.82
4.47
2.73
0.91
-0.61
-1.60
-2.05
-2.26
-2.64
-3.62
-5.43
-8.02
-11.09
-14.22
-17.05
-19.49
-21.89
-24.89
-29.26
-35.48
-43.46
-52.44
-61.06
-67.71
-70.94
-69.80
-64.17
-54.81
-43.20
-31.14
-20.14
-10.94
-3.31
3.82
11.72
21.28
32.49
44.37
55.41
64.09
69.43
71.22
69.87
66.12
60.70
54.16
46.90
39.38
32.17
25.92
21.21
18.25
16.80
16.30
16.06
15.62
14.90
14.08
13.46
13.22
13.29
13.36
13.02
11.98
10.09
7.50
4.54
1.62
-0.95
-3.05
-4.75
-6.21
-7.59
-8.91
-10.04
-10.86
-11.31
-11.52
-11.70
-12.02
-12.48
-12.92
-13.08
-12.76
-11.97
-10.91
-9.89
-9.17
-8.85
-8.82
-8.82
-8.59
-7.96
-6.95
-5.70
-4.41
-3.25
-2.30
-1.60
-1.13
-0.89
-0.89
-1.13
-1.60
-2.20
-2.85
-3.46
-4.06
-4.75
-5.69
-6.96
-8.51
-10.13
-11.53
-12.44
-12.73
-12.43
-11.73
-10.86
-9.97
-9.12
-8.29
-7.44
-6.59
-5.79
-5.03
-4.26
-3.31
-1.95
-0.02
2.46
5.31
8.14
10.57
12.40
13.67
14.64
15.67
17.00
18.63
20.36
21.97
23.33
24.49
25.59
26.72
27.79
28.55
28.80
28.41
27.50
26.23
24.78
23.18
21.31
19.03
16.21
12.71
8.43
3.23
-3.08
-10.62
-19.38
-29.22
-39.73
-50.33
-60.12
-68.01
-72.99
-74.45
-72.53
-68.14
-62.60
-56.95
-51.68
-46.56
-40.97
-34.33
-26.40
-17.30
-7.38
2.96
13.22
22.78
30.80
36.42
39.05
38.63
35.72
31.34
26.56
22.28
18.97
16.69
15.18
14.02
12.88
11.59
10.18
8.84
7.73
6.88
6.26
5.77
5.30
4.86
4.44
4.08
3.73
3.29
2.66
1.76
0.59
-0.82
-2.39
-4.05
-5.76
-7.48
-9.18
-10.83
-12.41
-13.88
-15.15
-16.09
-16.53
-16.32
-15.42
-13.91
-11.95
-9.78
-7.57
-5.38
-3.16
-0.77
1.83
4.63
7.49
10.23
12.69
14.80
16.57
18.03
19.17
19.99
20.51
20.78
20.88
20.83
20.52
19.76
18.43
16.56
14.47
12.55
11.13
10.32
9.93
9.66
9.23
8.52
7.59
6.58
5.63
4.82
4.18
3.74
3.49
3.35
3.08
2.43
1.23
-0.47
-2.36
-4.09
-5.38
-6.25
-6.97
-7.88
-9.22
-10.98
-12.96
-14.96
-16.93
-18.92
-21.05
-23.31
-25.51
-27.41
-28.83
-29.85
-30.66
-31.49
-32.42
-33.39
-34.16
-34.49
-34.18
-33.13
-31.27
-28.52
-24.86
-20.33
-15.08
-9.38
-3.55
2.09
7.24
11.76
15.56
18.71
21.38
23.85
26.43
29.34
32.59
36.01
39.20
41.69
43.10
43.24
42.18
40.23
37.82
35.43
33.46
32.12
31.42
31.11
30.78
29.95
28.20
25.40
21.72
17.54
13.33
9.39
5.78
2.39
-0.92
-4.19
-7.29
-9.98
-12.03
-13.44
-14.30
-14.84
-15.25
-15.62
-15.92
-16.07
-15.97
-15.59
-14.98
-14.29
-13.65
-13.16
-12.81
-12.45
-11.95
-11.19
-10.23
-9.24
-8.42
-7.87
-7.56
-7.30
-6.92
-6.35
-5.73
-5.18
-4.85
-4.69
-4.50
-4.07
-3.25
-2.15
-1.02
-0.16
0.20
0.07
-0.35
-0.76
-0.97
-0.88
-0.58
-0.23
0.08
0.30
0.44
0.52
0.51
0.37
0.12
-0.20
-0.46
-0.56
-0.47
-0.23
0.08
0.43
0.79
1.14
1.37
1.29
0.74
-0.32
-1.67
-2.91
-3.62
-3.57
-2.85
-1.84
-0.98
-0.63
-0.79
-1.20
-1.51
-1.46
-1.03
-0.44
0.03
0.21
0.09
-0.18
-0.42
-0.53
-0.50
-0.36
-0.18
0.06
0.39
0.80
1.21
1.51
1.56
1.35
0.98
0.60
0.36
0.34
0.50
0.73
0.90
0.93
0.82
0.62
0.41
0.23
0.05
-0.15
-0.38
-0.56
-0.65
-0.60
-0.47
-0.42
-0.55
-0.90
-1.39
-1.82
-2.03
-1.90
-1.44
-0.77
0.04
0.80
1.40
1.69
1.55
0.96
0.05
-0.88
-1.52
-1.63
-1.21
-0.42
0.42
1.08
1.43
1.48
1.34
1.10
0.81
0.48
0.13
-0.21
-0.45
-0.55
-0.55
-0.50
-0.52
-0.65
-0.84
-0.97
-0.86
-0.45
0.18
0.76
1.06
0.96
0.55
0.03
-0.38
-0.59
-0.63
-0.56
-0.45
-0.23
0.09
0.51
0.87
1.05
0.99
0.78
0.59
0.54
0.64
0.76
0.77
0.60
0.27
-0.16
-0.63
-1.10
-1.49
-1.65
-1.43
-0.76
0.26
1.31
1.96
1.99
1.37
0.40
-0.47
-0.90
-0.81
-0.40
-0.04
0.03
-0.27
-0.76
-1.19
-1.31
-1.10
-0.62
-0.02
0.59
1.15
1.63
1.96
2.08
1.96
1.63
1.19
0.75
0.39
0.08
-0.22
-0.48
-0.66
-0.66
-0.44
-0.07
0.28
0.46
0.37
0.12
-0.18
-0.39
-0.51
-0.63
-0.83
-1.11
-1.36
-1.44
-1.29
-1.02
-0.81
-0.86
-1.20
-1.72
-2.13
-2.21
-1.90
-1.33
-0.76
-0.46
-0.50
-0.81
-1.18
-1.40
-1.35
-1.06
-0.62
-0.13
0.35
0.82
1.26
1.67
1.99
2.21
2.33
2.36
2.29
2.09
1.75
1.30
0.85
0.52
0.41
0.49
0.66
0.79
0.83
0.77
0.66
0.54
0.44
0.34
0.25
0.18
0.12
0.04
-0.14
-0.46
-0.91
-1.36
-1.66
-1.72
-1.52
-1.13
-0.72
-0.38
-0.17
-0.13
-0.21
-0.41
-0.71
-1.05
-1.40
-1.66
-1.74
-1.61
-1.24
-0.69
-0.08
0.45
0.78
0.90
0.84
0.73
0.68
0.74
0.88
1.01
1.09
1.15
1.25
1.42
1.62
1.69
1.44
0.82
-0.11
-1.09
-1.81
-2.06
-1.79
-1.14
-0.31
0.53
1.27
1.86
2.30
2.54
2.50
2.09
1.33
0.31
-0.74
-1.56
-1.96
-1.84
-1.35
-0.72
-0.24
-0.08
-0.17
-0.33
-0.32
0.01
0.60
1.25
1.73
1.90
1.77
1.44
1.09
0.78
0.57
0.40
0.23
0.03
-0.22
-0.50
-0.80
-1.07
-1.27
-1.39
-1.42
-1.40
-1.32
-1.15
-0.90
-0.60
-0.35
-0.25
-0.41
-0.85
-1.48
-2.18
-2.79
-3.15
-3.19
-2.87
-2.19
-1.25
-0.17
0.84
1.60
1.99
2.01
1.77
1.45
1.23
1.23
1.47
1.86
2.29
2.59
2.62
2.33
1.77
1.08
0.43
-0.01
-0.16
-0.05
0.21
0.51
0.74
0.86
0.86
0.75
0.55
0.31
0.05
-0.19
-0.39
-0.56
-0.74
-0.95
-1.21
-1.49
-1.72
-1.86
-1.87
-1.74
-1.52
-1.21
-0.85
-0.42
0.06
0.55
0.96
1.15
1.03
0.52
-0.27
-1.11
-1.68
-1.71
-1.13
-0.07
1.14
2.16
2.71
2.71
2.19
1.33
0.31
-0.67
-1.42
-1.75
-1.55
-0.86
0.15
1.14
1.74
1.73
1.11
0.10
-0.98
-1.81
-2.16
-1.98
-1.35
-0.49
0.30
0.78
0.79
0.41
-0.15
-0.57
-0.63
-0.32
0.17
0.56
0.66
0.45
0.05
-0.33
-0.56
-0.61
-0.53
-0.40
-0.29
-0.26
-0.32
-0.41
-0.46
-0.36
-0.11
0.24
0.58
0.75
0.70
0.46
0.09
-0.30
-0.67
-1.00
-1.24
-1.32
-1.16
-0.74
-0.11
0.58
1.14
1.46
1.49
1.27
0.87
0.39
-0.12
-0.56
-0.86
-0.92
-0.68
-0.16
0.56
1.29
1.83
1.94
1.59
0.85
-0.01
-0.68
-0.97
-0.85
-0.50
-0.16
-0.05
-0.19
-0.48
-0.75
-0.85
-0.76
-0.54
-0.28
-0.07
0.09
0.22
0.35
0.51
0.70
0.91
1.09
1.17
1.07
0.77
0.35
-0.06
-0.32
-0.36
-0.25
-0.12
-0.10
-0.20
-0.31
-0.28
-0.05
0.30
0.54
0.49
0.09
-0.55
-1.13
-1.42
-1.32
-0.90
-0.39
0.02
0.17
0.11
-0.07
-0.25
-0.39
-0.51
-0.67
-0.86
-1.00
-1.03
-0.90
-0.64
-0.36
-0.13
0.06
0.31
0.68
1.18
1.66
1.94
1.90
1.58
1.14
0.84
0.80
0.97
1.19
1.26
1.13
0.93
0.82
0.88
1.06
1.19
1.10
0.72
0.14
-0.51
-1.04
-1.39
-1.55
-1.53
-1.33
-0.94
-0.39
0.22
0.77
1.13
1.19
0.89
0.24
-0.66
-1.69
-2.61
-3.20
-3.32
-2.92
-2.11
-1.12
-0.17
0.55
0.95
1.02
0.79
0.30
-0.35
-1.04
-1.64
-1.97
-1.94
-1.50
-0.73
0.22
1.17
1.99
2.62
3.03
3.22
3.24
3.12
2.91
2.69
2.47
2.21
1.80
1.14
0.21
-0.86
-1.85
-2.49
-2.67
-2.46
-2.10
-1.86
-1.91
-2.21
-2.57
-2.72
-2.49
-1.91
-1.19
-0.63
-0.42
-0.56
-0.86
-1.05
-0.93
-0.50
0.10
0.62
0.91
0.95
0.88
0.85
0.94
1.08
1.16
1.07
0.85
0.63
0.58
0.77
1.14
1.53
1.78
1.78
1.57
1.23
0.84
0.49
0.23
0.12
0.16
0.35
0.56
0.64
0.44
-0.06
-0.74
-1.37
-1.75
-1.74
-1.35
-0.76
-0.16
0.28
0.42
0.23
-0.25
-0.89
-1.44
-1.69
-1.52
-1.01
-0.39
0.07
0.18
0.02
-0.21
-0.26
-0.07
0.27
0.54
0.60
0.44
0.19
-0.01
-0.08
-0.10
-0.25
-0.58
-1.06
-1.50
-1.64
-1.37
-0.77
-0.11
0.35
0.41
0.14
-0.20
-0.33
-0.04
0.62
1.44
2.13
2.47
2.42
2.12
1.77
1.51
1.38
1.28
1.08
0.74
0.31
-0.03
-0.14
0.03
0.37
0.69
0.83
0.76
0.59
0.47
0.46
0.54
0.57
0.39
-0.05
-0.68
-1.37
-1.96
-2.34
-2.49
-2.42
-2.17
-1.81
-1.39
-0.93
-0.42
0.10
0.60
1.02
1.28
1.37
1.31
1.14
0.91
0.62
0.28
-0.10
-0.45
-0.72
-0.88
-0.96
-1.04
-1.19
-1.36
-1.39
-1.13
-0.56
0.17
0.73
0.84
0.42
-0.38
-1.21
-1.72
-1.79
-1.57
-1.33
-1.30
-1.47
-1.65
-1.54
-1.01
-0.18
0.64
1.11
1.04
0.50
-0.26
-0.97
-1.44
-1.60
-1.47
-1.08
-0.45
0.39
1.31
2.15
2.73
2.96
2.90
2.66
2.39
2.16
1.95
1.69
1.31
0.81
0.29
-0.12
-0.30
-0.21
0.07
0.45
0.77
0.98
1.03
0.96
0.81
0.66
0.53
0.46
0.45
0.50
0.59
0.74
0.88
0.97
0.99
0.92
0.79
0.60
0.36
0.03
-0.38
-0.87
-1.33
-1.66
-1.77
-1.66
-1.43
-1.19
-1.02
-0.89
-0.72
-0.41
0.05
0.50
0.72
0.51
-0.16
-1.12
-2.06
-2.66
-2.74
-2.37
-1.76
-1.15
-0.69
-0.36
-0.08
0.29
0.76
1.25
1.64
1.82
1.80
1.59
1.25
0.79
0.20
-0.48
-1.16
-1.65
-1.79
-1.47
-0.79
0.04
0.74
1.09
1.08
0.82
0.54
0.42
0.52
0.74
0.96
1.02
0.82
0.32
-0.40
-1.20
-1.88
-2.24
-2.17
-1.67
-0.91
-0.18
0.25
0.26
-0.06
-0.45
-0.64
-0.49
-0.08
0.34
0.57
0.50
0.24
0.04
0.14
0.59
1.26
1.89
2.23
2.18
1.82
1.30
0.79
0.36
-0.00
-0.36
-0.70
-0.94
-0.99
-0.80
-0.43
-0.04
0.18
0.14
-0.14
-0.57
-0.99
-1.33
-1.56
-1.70
-1.78
-1.78
-1.68
-1.44
-1.09
-0.69
-0.33
-0.06
0.09
0.17
0.30
0.55
0.95
1.39
1.71
1.76
1.49
1.03
0.54
0.21
0.08
0.04
-0.04
-0.24
-0.48
-0.60
-0.49
-0.15
0.29
0.60
0.62
0.33
-0.13
-0.58
-0.83
-0.83
-0.62
-0.32
-0.02
0.24
0.45
0.64
0.80
0.91
0.89
0.76
0.57
0.39
0.25
0.14
-0.01
-0.21
-0.42
-0.48
-0.27
0.24
0.89
1.38
1.46
1.01
0.15
-0.82
-1.57
-1.89
-1.73
-1.20
-0.51
0.20
0.80
1.23
1.39
1.20
0.58
-0.45
-1.69
-2.79
-3.45
-3.49
-2.96
-2.10
-1.25
-0.61
-0.24
-0.03
0.09
0.19
0.25
0.26
0.28
0.42
0.80
1.44
2.24
2.93
3.31
3.18
2.54
1.49
0.28
-0.78
-1.43
-1.49
-0.99
-0.15
0.71
1.23
1.22
0.67
-0.23
-1.25
-2.21
-3.03
-3.68
-4.08
-4.17
-3.90
-3.37
-2.72
-2.15
-1.75
-1.53
-1.40
-1.24
-0.95
-0.47
0.22
1.14
2.26
3.53
4.79
5.90
6.74
7.24
7.45
7.39
7.05
6.44
5.58
4.59
3.63
2.81
2.16
1.70
1.36
1.10
0.85
0.52
0.07
-0.51
-1.13
-1.68
-2.01
-2.10
-1.99
-1.78
-1.65
-1.70
-1.97
-2.43
-3.00
-3.55
-3.96
-4.10
-3.86
-3.25
-2.34
-1.36
-0.58
-0.20
-0.31
-0.86
-1.61
-2.30
-2.65
-2.56
-2.06
-1.33
-0.60
-0.06
0.23
0.34
0.36
0.37
0.36
0.30
0.15
-0.02
-0.12
-0.07
0.12
0.37
0.60
0.85
1.18
1.62
2.11
2.42
2.36
1.90
1.21
0.63
0.40
0.51
0.74
0.78
0.49
-0.01
-0.41
-0.45
-0.06
0.56
1.06
1.16
0.75
-0.02
-0.90
-1.64
-2.11
-2.31
-2.35
-2.35
-2.35
-2.36
-2.32
-2.18
-1.95
-1.73
-1.67
-1.86
-2.35
-3.03
-3.75
-4.33
-4.68
-4.80
-4.76
-4.66
-4.55
-4.43
-4.21
-3.87
-3.40
-2.87
-2.31
-1.76
-1.15
-0.43
0.43
1.37
2.26
2.97
3.44
3.70
3.82
3.91
4.07
4.38
4.97
5.95
7.34
9.02
10.69
11.91
12.38
12.11
11.50
11.23
11.92
13.84
16.65
19.46
21.27
21.38
19.89
17.72
16.26
16.66
19.22
23.12
26.68
28.26
27.04
23.66
19.91
18.05
19.73
25.52
34.92
46.97
60.58
74.66
87.76
97.76
102.24
99.25
88.19
70.16
47.44
21.66
-7.32
-41.38
-82.50
-130.02
-178.75
-219.54
-242.64
-242.16
-218.95
-180.49
-137.51
-99.05
-69.09
-46.36
-27.08
-8.59
8.62
21.51
27.15
25.30
19.05
13.30
11.97
16.06
23.46
30.46
34.00
33.24
29.52
25.18
22.26
21.28
21.43
21.49
20.54
18.48
15.93
13.69
12.32
11.89
12.13
12.65
13.05
13.02
12.41
11.17
9.43
7.53
5.86
4.73
4.20
4.04
3.91
3.54
2.93
2.28
1.89
1.95
2.36
2.83
3.00
2.68
1.89
0.88
-0.07
-0.70
-0.94
-0.83
-0.51
-0.12
0.21
0.39
0.34
0.07
-0.36
-0.83
-1.19
-1.33
-1.22
-0.94
-0.62
-0.39
-0.35
-0.48
-0.71
-0.92
-1.02
-0.98
-0.78
-0.51
-0.24
-0.09
-0.08
-0.21
-0.42
-0.63
-0.74
-0.71
-0.53
-0.22
0.13
0.42
0.51
0.36
-0.05
-0.59
-1.05
-1.25
-1.10
-0.72
-0.34
-0.17
-0.26
-0.44
-0.44
-0.06
0.65
1.44
2.01
2.14
1.91
1.53
1.24
1.15
1.19
1.22
1.12
0.89
0.61
0.37
0.19
0.00
-0.28
-0.68
-1.13
-1.45
-1.45
-1.06
-0.33
0.50
1.10
1.21
0.76
-0.07
-0.96
-1.56
-1.67
-1.35
-0.78
-0.19
0.30
0.68
0.97
1.15
1.10
0.75
0.12
-0.57
-1.03
-1.01
-0.51
0.25
0.95
1.31
1.20
0.75
0.16
-0.37
-0.70
-0.77
-0.60
-0.23
0.17
0.45
0.40
0.00
-0.64
-1.26
-1.54
-1.35
-0.73
0.11
0.84
1.27
1.32
1.05
0.58
0.03
-0.47
-0.88
-1.14
-1.25
-1.21
-1.08
-0.90
-0.70
-0.47
-0.16
0.24
0.71
1.20
1.65
1.99
2.20
2.24
2.15
1.90
1.54
1.12
0.75
0.54
0.54
0.73
1.02
1.25
1.31
1.11
0.69
0.11
-0.55
-1.17
-1.67
-2.00
-2.10
-2.01
-1.81
-1.66
-1.69
-1.92
-2.31
-2.71
-2.91
-2.77
-2.20
-1.23
-0.03
1.16
2.09
2.57
2.54
2.10
1.44
0.76
0.23
-0.04
-0.06
0.12
0.46
0.87
1.26
1.55
1.60
1.37
0.88
0.24
-0.35
-0.75
-0.80
-0.50
0.04
0.63
1.08
1.26
1.15
0.81
0.39
0.01
-0.19
-0.17
0.06
0.40
0.72
0.89
0.79
0.36
-0.29
-1.06
-1.79
-2.33
-2.60
-2.60
-2.34
-1.93
-1.51
-1.23
-1.21
-1.46
-1.77
-1.91
-1.65
-0.93
0.11
1.13
1.78
1.83
1.26
0.31
-0.65
-1.30
-1.46
-1.18
-0.64
-0.08
0.32
0.42
0.20
-0.30
-0.96
-1.61
-2.05
-2.12
-1.77
-1.10
-0.30
0.38
0.80
0.89
0.72
0.37
-0.05
-0.44
-0.71
-0.74
-0.51
-0.11
0.25
0.33
0.06
-0.42
-0.79
-0.72
-0.05
1.04
2.12
2.70
2.47
1.46
0.06
-1.16
-1.74
-1.45
-0.43
0.98
2.36
3.37
3.90
3.98
3.78
3.44
2.99
2.41
1.68
0.90
0.20
-0.21
-0.22
0.11
0.62
1.06
1.21
1.04
0.57
0.01
-0.48
-0.76
-0.79
-0.65
-0.41
-0.20
-0.10
-0.18
-0.44
-0.82
-1.19
-1.40
-1.36
-1.05
-0.61
-0.22
-0.06
-0.20
-0.56
-0.96
-1.24
-1.35
-1.33
-1.26
-1.16
-0.98
-0.65
-0.18
0.35
0.84
1.20
1.51
1.82
2.20
2.61
2.84
2.74
2.21
1.38
0.56
0.07
0.06
0.47
1.03
1.41
1.43
1.10
0.61
0.19
-0.01
-0.06
-0.16
-0.54
-1.34
-2.48
-3.68
-4.62
-5.00
-4.72
-3.92
-2.89
-1.94
-1.26
-0.85
-0.61
-0.45
-0.32
-0.29
-0.40
-0.58
-0.71
-0.63
-0.30
0.15
0.57
0.83
0.94
1.02
1.17
1.40
1.60
1.64
1.49
1.23
1.03
0.96
0.95
0.85
0.46
-0.23
-1.04
-1.62
-1.70
-1.22
-0.38
0.41
0.82
0.70
0.20
-0.35
-0.65
-0.52
-0.09
0.41
0.76
0.88
0.83
0.75
0.71
0.67
0.57
0.41
0.28
0.29
0.53
0.89
1.17
1.16
0.77
0.15
-0.44
-0.69
-0.51
-0.02
0.46
0.66
0.43
-0.16
-0.93
-1.59
-1.92
-1.84
-1.38
-0.68
0.04
0.56
0.72
0.48
-0.09
-0.78
-1.36
-1.61
-1.46
-0.98
-0.30
0.36
0.90
1.22
1.35
1.32
1.20
1.10
1.06
1.14
1.27
1.37
1.31
1.05
0.66
0.30
0.13
0.22
0.48
0.69
0.69
0.41
-0.04
-0.50
-0.85
-1.04
-1.11
-1.14
-1.11
-0.98
-0.68
-0.21
0.36
0.85
1.10
1.04
0.71
0.26
-0.18
-0.50
-0.70
-0.83
-0.94
-1.06
-1.15
-1.19
-1.13
-0.98
-0.75
-0.46
-0.12
0.23
0.54
0.70
0.66
0.44
0.14
-0.10
-0.19
-0.14
-0.04
-0.00
-0.02
-0.00
0.18
0.56
1.01
1.28
1.17
0.65
-0.08
-0.69
-0.94
-0.78
-0.35
0.19
0.65
0.99
1.21
1.32
1.30
1.15
0.89
0.61
0.40
0.33
0.36
0.42
0.43
0.39
0.32
0.23
0.08
-0.21
-0.69
-1.31
-1.88
-2.21
-2.20
-1.90
-1.49
-1.10
-0.81
-0.56
-0.28
0.06
0.38
0.57
0.56
0.37
0.12
-0.10
-0.21
-0.22
-0.19
-0.16
-0.18
-0.22
-0.27
-0.25
-0.14
0.02
0.12
0.07
-0.17
-0.47
-0.64
-0.49
-0.06
0.49
0.88
0.91
0.57
0.03
-0.48
-0.80
-0.90
-0.79
-0.49
-0.01
0.61
1.27
1.79
2.02
1.94
1.65
1.28
1.01
0.87
0.83
0.82
0.75
0.64
0.52
0.45
0.43
0.45
0.48
0.45
0.33
0.11
-0.19
-0.53
-0.88
-1.22
-1.52
-1.76
-1.86
-1.76
-1.38
-0.74
0.03
0.69
1.01
0.86
0.27
-0.55
-1.27
-1.64
-1.52
-1.00
-0.27
0.46
1.03
1.38
1.48
1.38
1.15
0.83
0.55
0.38
0.34
0.38
0.41
0.37
0.18
-0.10
-0.38
-0.60
-0.68
-0.61
-0.37
-0.00
0.41
0.69
0.67
0.25
-0.49
-1.31
-1.88
-1.97
-1.54
-0.79
-0.04
0.40
0.39
-0.01
-0.60
-1.14
-1.45
-1.51
-1.38
-1.19
-1.02
-0.87
-0.68
-0.35
0.16
0.80
1.43
1.85
1.90
1.56
0.91
0.20
-0.37
-0.66
-0.64
-0.39
-0.03
0.33
0.61
0.77
0.81
0.73
0.57
0.37
0.23
0.23
0.42
0.80
1.28
1.73
2.01
2.05
1.86
1.52
1.11
0.72
0.41
0.19
0.05
-0.05
-0.15
-0.28
-0.41
-0.47
-0.36
-0.01
0.51
1.02
1.29
1.21
0.82
0.31
-0.09
-0.21
-0.06
0.23
0.45
0.48
0.21
-0.35
-1.15
-2.08
-2.99
-3.67
-3.95
-3.81
-3.33
-2.70
-2.08
-1.57
-1.19
-0.91
-0.73
-0.63
-0.54
-0.37
0.07
0.87
1.98
3.14
3.98
4.14
3.51
2.30
0.90
-0.26
-0.92
-1.09
-0.95
-0.73
-0.58
-0.56
-0.68
-0.92
-1.23
-1.59
-1.95
-2.21
-2.28
-2.09
-1.64
-0.96
-0.16
0.63
1.24
1.52
1.42
1.04
0.59
0.29
0.28
0.58
1.03
1.45
1.70
1.72
1.54
1.21
0.86
0.55
0.31
0.19
0.19
0.32
0.56
0.88
1.19
1.43
1.56
1.62
1.64
1.61
1.48
1.18
0.65
-0.08
-0.88
-1.59
-2.05
-2.19
-2.05
-1.75
-1.45
-1.26
-1.21
-1.22
-1.11
-0.74
-0.13
0.55
0.98
0.93
0.34
-0.56
-1.41
-1.89
-1.87
-1.45
-0.86
-0.31
0.14
0.55
0.97
1.42
1.79
1.93
1.68
1.07
0.27
-0.46
-0.88
-0.87
-0.51
0.04
0.53
0.81
0.84
0.65
0.36
0.05
-0.23
-0.46
-0.67
-0.83
-0.94
-0.87
-0.60
-0.13
0.41
0.81
0.91
0.67
0.17
-0.41
-0.92
-1.26
-1.41
-1.38
-1.19
-0.85
-0.38
0.14
0.59
0.85
0.85
0.65
0.38
0.19
0.16
0.29
0.50
0.66
0.67
0.46
0.06
-0.48
-1.03
-1.43
-1.56
-1.33
-0.79
-0.12
0.43
0.65
0.46
-0.04
-0.60
-0.94
-0.93
-0.54
0.05
0.66
1.12
1.39
1.49
1.52
1.57
1.66
1.76
1.78
1.68
1.44
1.14
0.86
0.62
0.40
0.09
-0.35
-0.89
-1.40
-1.72
-1.76
-1.48
-1.02
-0.54
-0.17
0.04
0.16
0.26
0.39
0.52
0.62
0.67
0.68
0.67
0.67
0.62
0.46
0.19
-0.13
-0.36
-0.38
-0.15
0.16
0.34
0.20
-0.34
-1.15
-2.02
-2.70
-3.05
-3.04
-2.76
-2.31
-1.79
-1.27
-0.73
-0.20
0.26
0.58
0.70
0.62
0.43
0.27
0.25
0.37
0.56
0.73
0.83
0.84
0.86
0.91
1.01
1.12
1.22
1.33
1.47
1.65
1.82
1.92
1.94
1.86
1.74
1.59
1.42
1.17
0.79
0.28
-0.33
-0.94
-1.40
-1.64
-1.62
-1.41
-1.14
-0.91
-0.81
-0.81
-0.87
-0.92
-0.93
-0.88
-0.74
-0.46
-0.05
0.45
0.87
1.10
1.08
0.90
0.72
0.69
0.83
1.03
1.13
0.98
0.58
0.03
-0.50
-0.86
-0.98
-0.88
-0.66
-0.46
-0.38
-0.43
-0.52
-0.50
-0.30
0.03
0.34
0.46
0.32
-0.01
-0.37
-0.57
-0.53
-0.25
0.12
0.43
0.55
0.40
0.06
-0.38
-0.72
-0.79
-0.55
-0.11
0.36
0.66
0.67
0.46
0.20
0.05
0.13
0.37
0.64
0.73
0.58
0.19
-0.31
-0.75
-0.99
-1.04
-0.95
-0.81
-0.70
-0.62
-0.53
-0.41
-0.31
-0.31
-0.46
-0.75
-1.00
-1.05
-0.83
-0.45
-0.17
-0.26
-0.79
-1.61
-2.33
-2.59
-2.25
-1.44
-0.47
0.38
0.98
1.37
1.65
1.88
2.02
1.94
1.62
1.09
0.46
-0.10
-0.48
-0.60
-0.45
-0.05
0.48
1.02
1.41
1.51
1.29
0.80
0.16
-0.45
-0.87
-0.98
-0.71
-0.11
0.69
1.47
2.00
2.14
1.85
1.25
0.50
-0.22
-0.73
-0.92
-0.76
-0.33
0.22
0.64
0.78
0.55
0.04
-0.54
-0.98
-1.15
-1.04
-0.73
-0.34
0.03
0.32
0.50
0.52
0.36
0.01
-0.47
-1.03
-1.56
-1.98
-2.17
-2.06
-1.65
-1.06
-0.46
-0.02
0.14
0.08
-0.07
-0.14
-0.05
0.16
0.39
0.60
0.78
1.00
1.25
1.49
1.59
1.48
1.20
0.89
0.70
0.70
0.79
0.84
0.75
0.53
0.27
0.14
0.20
0.41
0.61
0.58
0.25
-0.38
-1.09
-1.61
-1.74
-1.40
-0.72
0.01
0.49
0.55
0.21
-0.35
-0.86
-1.12
-1.14
-0.99
-0.81
-0.69
-0.60
-0.45
-0.17
0.24
0.70
1.06
1.20
1.09
0.78
0.38
0.03
-0.21
-0.31
-0.26
-0.07
0.26
0.73
1.25
1.69
1.85
1.57
0.86
-0.11
-0.99
-1.48
-1.42
-0.93
-0.28
0.21
0.38
0.24
-0.02
-0.18
-0.10
0.17
0.50
0.71
0.73
0.58
0.39
0.27
0.23
0.20
0.05
-0.29
-0.75
-1.15
-1.28
-1.06
-0.57
-0.06
0.23
0.17
-0.15
-0.58
-0.91
-1.12
-1.23
-1.29
-1.27
-1.06
-0.51
0.41
1.50
2.44
2.88
2.66
1.89
0.88
0.00
-0.47
-0.48
-0.13
0.39
0.86
1.14
1.12
0.84
0.39
-0.08
-0.38
-0.45
-0.28
0.05
0.40
0.68
0.82
0.77
0.51
0.05
-0.59
-1.32
-1.96
-2.35
-2.35
-2.03
-1.55
-1.14
-0.91
-0.89
-0.97
-0.99
-0.88
-0.67
-0.43
-0.21
-0.05
0.13
0.35
0.62
0.81
0.76
0.45
-0.04
-0.43
-0.47
-0.09
0.59
1.26
1.63
1.58
1.18
0.69
0.37
0.38
0.66
1.03
1.32
1.39
1.24
0.99
0.69
0.43
0.21
-0.00
-0.21
-0.41
-0.58
-0.71
-0.81
-0.87
-0.88
-0.78
-0.51
-0.03
0.61
1.27
1.76
1.88
1.55
0.83
-0.09
-0.98
-1.65
-2.02
-2.12
-2.06
-1.96
-1.84
-1.67
-1.36
-0.85
-0.15
0.62
1.29
1.70
1.73
1.38
0.73
-0.07
-0.83
-1.38
-1.62
-1.53
-1.16
-0.66
-0.24
-0.03
-0.14
-0.50
-0.95
-1.29
-1.30
-0.91
-0.20
0.67
1.48
2.06
2.30
2.19
1.81
1.30
0.79
0.37
0.11
-0.04
-0.10
-0.13
-0.12
-0.03
0.13
0.29
0.42
0.48
0.52
0.62
0.86
1.21
1.48
1.47
1.05
0.30
-0.56
-1.28
-1.69
-1.78
-1.66
-1.39
-1.01
-0.52
0.07
0.64
1.01
1.02
0.63
-0.07
-0.84
-1.45
-1.77
-1.71
-1.35
-0.78
-0.13
0.44
0.78
0.78
0.47
-0.02
-0.45
-0.63
-0.47
-0.07
0.40
0.77
0.97
1.04
1.01
0.88
0.57
0.09
-0.52
-1.09
-1.42
-1.44
-1.19
-0.86
-0.65
-0.64
-0.79
-0.90
-0.80
-0.38
0.27
1.00
1.53
1.70
1.45
0.91
0.32
-0.10
-0.20
-0.01
0.35
0.67
0.84
0.87
0.84
0.85
0.88
0.87
0.65
0.21
-0.43
-1.03
-1.39
-1.41
-1.14
-0.77
-0.53
-0.51
-0.65
-0.81
-0.83
-0.69
-0.48
-0.37
-0.46
-0.72
-1.00
-1.11
-0.95
-0.54
-0.06
0.31
0.50
0.55
0.59
0.73
0.97
1.20
1.28
1.16
0.90
0.67
0.60
0.64
0.70
0.62
0.37
0.04
-0.17
-0.13
0.22
0.75
1.27
1.63
1.71
1.49
0.96
0.20
-0.68
-1.46
-1.93
-1.97
-1.61
-1.08
-0.67
-0.55
-0.64
-0.76
-0.71
-0.42
0.00
0.37
0.53
0.45
0.23
0.06
0.02
0.13
0.27
0.32
0.26
0.16
0.13
0.26
0.54
0.84
1.03
1.02
0.82
0.59
0.52
0.70
1.10
1.52
1.72
1.51
0.89
-0.02
-0.94
-1.62
-1.89
-1.67
-1.11
-0.41
0.19
0.49
0.42
0.07
-0.43
-0.89
-1.16
-1.17
-0.92
-0.48
0.03
0.40
0.48
0.19
-0.39
-1.07
-1.55
-1.63
-1.28
-0.61
0.15
0.76
1.10
1.18
1.06
0.83
0.51
0.12
-0.33
-0.76
-1.05
-1.15
-1.04
-0.79
-0.56
-0.47
-0.59
-0.82
-1.03
-1.02
-0.74
-0.25
0.29
0.66
0.75
0.60
0.39
0.31
0.49
0.86
1.22
1.32
1.02
0.39
-0.33
-0.81
-0.84
-0.44
0.15
0.65
0.83
0.65
0.26
-0.12
-0.31
-0.25
-0.04
0.18
0.33
0.40
0.47
0.60
0.78
0.91
0.90
0.68
0.35
0.03
-0.15
-0.14
-0.01
0.07
0.02
-0.11
-0.14
0.06
0.49
1.00
1.28
1.14
0.57
-0.26
-1.05
-1.58
-1.77
-1.66
-1.35
-0.88
-0.30
0.37
1.02
1.48
1.62
1.42
1.01
0.57
0.24
0.06
-0.05
-0.17
-0.32
-0.45
-0.45
-0.27
0.03
0.33
0.45
0.36
0.07
-0.29
-0.62
-0.88
-1.02
-1.06
-0.96
-0.67
-0.22
0.30
0.72
0.90
0.78
0.45
0.06
-0.21
-0.29
-0.22
-0.12
-0.03
0.06
0.25
0.62
1.14
1.61
1.80
1.51
0.75
-0.27
-1.22
-1.76
-1.71
-1.17
-0.44
0.13
0.28
-0.03
-0.64
-1.31
-1.82
-2.04
-1.93
-1.57
-1.02
-0.42
0.14
0.57
0.78
0.80
0.67
0.50
0.38
0.36
0.44
0.55
0.64
0.70
0.73
0.75
0.77
0.77
0.70
0.55
0.38
0.27
0.27
0.38
0.51
0.55
0.42
0.12
-0.29
-0.70
-1.02
-1.25
-1.40
-1.47
-1.48
-1.42
-1.35
-1.33
-1.32
-1.22
-0.85
-0.11
0.92
1.93
2.58
2.62
2.02
1.02
-0.03
-0.84
-1.30
-1.43
-1.31
-1.04
-0.65
-0.23
0.13
0.31
0.28
0.11
-0.04
-0.03
0.19
0.52
0.82
0.98
1.00
0.99
1.05
1.23
1.45
1.57
1.46
1.06
0.41
-0.38
-1.15
-1.79
-2.13
-2.09
-1.62
-0.79
0.25
1.25
1.97
2.29
2.21
1.87
1.43
0.96
0.48
-0.06
-0.64
-1.19
-1.55
-1.64
-1.43
-1.00
-0.50
-0.11
0.10
0.10
0.00
-0.07
-0.00
0.30
0.75
1.21
1.44
1.26
0.63
-0.28
-1.22
-1.87
-2.07
-1.76
-1.05
-0.12
0.83
1.60
2.00
1.91
1.30
0.34
-0.72
-1.53
-1.88
-1.75
-1.27
-0.69
-0.23
0.02
0.09
0.05
0.02
0.06
0.17
0.33
0.46
0.47
0.36
0.12
-0.16
-0.35
-0.39
-0.30
-0.18
-0.14
-0.15
-0.13
0.07
0.47
0.96
1.30
1.25
0.75
-0.07
-0.91
-1.50
-1.67
-1.46
-1.06
-0.69
-0.51
-0.54
-0.71
-0.92
-1.10
-1.30
-1.60
-2.04
-2.54
-2.94
-3.04
-2.77
-2.18
-1.43
-0.70
-0.09
0.34
0.63
0.80
0.91
0.99
1.11
1.36
1.79
2.39
3.02
3.50
3.62
3.33
2.67
1.85
1.11
0.60
0.35
0.28
0.21
0.06
-0.18
-0.41
-0.54
-0.56
-0.51
-0.48
-0.54
-0.63
-0.65
-0.54
-0.30
-0.04
0.13
0.14
-0.02
-0.32
-0.71
-1.11
-1.46
-1.62
-1.47
-0.96
-0.16
0.74
1.47
1.86
1.90
1.69
1.43
1.24
1.14
1.07
0.93
0.70
0.41
0.13
-0.12
-0.32
-0.52
-0.70
-0.88
-1.02
-1.06
-0.96
-0.70
-0.28
0.26
0.83
1.33
1.59
1.51
1.06
0.38
-0.33
-0.82
-0.93
-0.72
-0.40
-0.25
-0.47
-1.01
-1.63
-2.06
-2.05
-1.61
-0.92
-0.25
0.18
0.31
0.20
0.02
-0.07
0.03
0.36
0.86
1.44
1.98
2.37
2.57
2.57
2.41
2.13
1.71
1.11
0.32
-0.60
-1.51
-2.17
-2.43
-2.21
-1.60
-0.80
-0.04
0.48
0.63
0.41
-0.10
-0.70
-1.22
-1.50
-1.46
-1.11
-0.57
0.04
0.55
0.83
0.84
0.62
0.25
-0.12
-0.39
-0.48
-0.37
-0.11
0.21
0.50
0.69
0.80
0.83
0.84
0.81
0.72
0.54
0.21
-0.24
-0.73
-1.07
-1.09
-0.76
-0.15
0.48
0.88
0.90
0.58
0.13
-0.25
-0.44
-0.45
-0.38
-0.31
-0.25
-0.15
0.05
0.29
0.49
0.51
0.29
-0.12
-0.60
-0.97
-1.16
-1.14
-0.96
-0.69
-0.40
-0.15
0.01
0.07
0.05
-0.04
-0.18
-0.37
-0.61
-0.89
-1.13
-1.23
-1.09
-0.69
-0.14
0.35
0.58
0.43
-0.02
-0.55
-0.85
-0.80
-0.43
0.02
0.30
0.29
0.05
-0.22
-0.36
-0.29
-0.08
0.16
0.37
0.62
1.00
1.57
2.19
2.66
2.73
2.36
1.67
0.96
0.53
0.53
0.91
1.45
1.87
2.00
1.80
1.36
0.85
0.41
0.08
-0.15
-0.32
-0.43
-0.47
-0.40
-0.23
-0.07
-0.00
-0.13
-0.43
-0.73
-0.81
-0.53
0.15
1.05
1.91
2.49
2.66
2.45
2.00
1.48
1.04
0.79
0.77
0.94
1.24
1.53
1.68
1.61
1.32
0.89
0.45
0.09
-0.21
-0.52
-0.91
-1.38
-1.87
-2.26
-2.47
-2.55
-2.56
-2.58
-2.64
-2.66
-2.52
-2.13
-1.55
-0.97
-0.62
-0.66
-1.11
-1.79
-2.39
-2.63
-2.38
-1.74
-0.99
-0.42
-0.24
-0.44
-0.83
-1.19
-1.39
-1.46
-1.49
-1.56
-1.64
-1.57
-1.23
-0.62
0.09
0.61
0.70
0.28
-0.50
-1.38
-2.07
-2.38
-2.26
-1.80
-1.22
-0.69
-0.38
-0.30
-0.32
-0.29
-0.08
0.28
0.64
0.81
0.72
0.45
0.22
0.23
0.50
0.87
1.14
1.21
1.14
1.12
1.28
1.59
1.89
1.98
1.78
1.38
0.95
0.64
0.48
0.43
0.47
0.63
0.97
1.49
2.03
2.39
2.36
1.89
1.15
0.41
-0.05
-0.07
0.31
0.93
1.53
1.87
1.82
1.32
0.50
-0.43
-1.17
-1.49
-1.29
-0.65
0.18
0.90
1.23
1.03
0.34
-0.63
-1.58
-2.24
-2.44
-2.20
-1.71
-1.18
-0.83
-0.74
-0.86
-1.08
-1.23
-1.23
-1.03
-0.72
-0.39
-0.16
-0.08
-0.17
-0.33
-0.45
-0.45
-0.32
-0.10
0.11
0.21
0.20
0.11
0.00
-0.03
0.00
0.09
0.17
0.23
0.25
0.22
0.16
0.07
-0.07
-0.28
-0.55
-0.84
-1.06
-1.08
-0.82
-0.31
0.32
0.86
1.19
1.34
1.41
1.57
1.80
1.98
1.93
1.57
1.05
0.65
0.61
0.93
1.30
1.33
0.74
-0.39
-1.63
-2.45
-2.49
-1.71
-0.45
0.79
1.58
1.72
1.34
0.73
0.28
0.20
0.55
1.11
1.57
1.69
1.40
0.85
0.35
0.14
0.29
0.68
1.05
1.17
0.93
0.41
-0.18
-0.62
-0.82
-0.78
-0.64
-0.54
-0.59
-0.81
-1.17
-1.56
-1.88
-2.08
-2.18
-2.24
-2.32
-2.45
-2.60
-2.71
-2.72
-2.55
-2.17
-1.56
-0.72
0.31
1.42
2.41
3.02
3.07
2.56
1.70
0.82
0.24
0.09
0.31
0.68
0.98
1.17
1.32
1.58
2.00
2.46
2.75
2.69
2.24
1.53
0.75
0.09
-0.36
-0.54
-0.49
-0.25
0.09
0.39
0.52
0.40
0.08
-0.25
-0.37
-0.18
0.28
0.79
1.10
1.09
0.82
0.45
0.14
-0.09
-0.31
-0.61
-1.01
-1.40
-1.65
-1.69
-1.57
-1.44
-1.40
-1.43
-1.38
-1.11
-0.57
0.08
0.62
0.84
0.77
0.55
0.43
0.53
0.77
0.99
1.00
0.71
0.21
-0.36
-0.84
-1.13
-1.22
-1.14
-0.91
-0.56
-0.15
0.29
0.73
1.11
1.40
1.54
1.45
1.11
0.57
-0.04
-0.56
-0.86
-0.89
-0.73
-0.51
-0.35
-0.25
-0.16
-0.00
0.24
0.48
0.57
0.41
0.01
-0.50
-0.94
-1.16
-1.07
-0.73
-0.21
0.35
0.82
1.05
0.93
0.48
-0.20
-0.91
-1.42
-1.64
-1.60
-1.43
-1.30
-1.27
-1.30
-1.30
-1.25
-1.15
-1.07
-1.06
-1.10
-1.10
-0.99
-0.74
-0.41
-0.07
0.24
0.51
0.74
0.89
0.93
0.80
0.49
0.12
-0.16
-0.22
-0.02
0.37
0.79
1.12
1.34
1.48
1.61
1.73
1.76
1.63
1.25
0.70
0.14
-0.23
-0.31
-0.12
0.22
0.48
0.53
0.33
-0.03
-0.40
-0.64
-0.68
-0.50
-0.25
-0.04
0.00
-0.12
-0.33
-0.51
-0.58
-0.57
-0.60
-0.77
-1.05
-1.25
-1.14
-0.61
0.22
1.02
1.39
1.11
0.24
-0.87
-1.77
-2.16
-1.98
-1.39
-0.73
-0.24
-0.07
-0.14
-0.28
-0.33
-0.23
0.02
0.28
0.47
0.57
0.58
0.57
0.56
0.52
0.37
0.09
-0.30
-0.66
-0.82
-0.66
-0.16
0.56
1.30
1.84
2.05
1.90
1.49
1.01
0.65
0.52
0.64
0.90
1.15
1.25
1.17
0.96
0.78
0.76
0.96
1.27
1.49
1.39
0.88
0.05
-0.84
-1.52
-1.79
-1.60
-1.08
-0.42
0.15
0.45
0.38
-0.04
-0.67
-1.31
-1.73
-1.78
-1.41
-0.79
-0.12
0.33
0.42
0.15
-0.40
-1.00
-1.49
-1.79
-1.86
-1.80
-1.70
-1.62
-1.52
-1.33
-0.96
-0.41
0.22
0.79
1.18
1.32
1.26
1.10
0.92
0.80
0.81
0.93
1.18
1.46
1.71
1.86
1.90
1.81
1.63
1.36
1.02
0.66
0.32
0.05
-0.16
-0.32
-0.44
-0.51
-0.50
-0.41
-0.26
-0.14
-0.08
-0.11
-0.14
-0.09
0.03
0.15
0.16
-0.02
-0.39
-0.81
-1.16
-1.31
-1.23
-0.94
-0.55
-0.20
-0.04
-0.22
-0.77
-1.55
-2.25
-2.62
-2.47
-1.84
-0.96
-0.12
0.40
0.52
0.32
0.05
-0.09
0.04
0.44
0.89
1.17
1.12
0.74
0.23
-0.15
-0.17
0.18
0.72
1.19
1.41
1.39
1.28
1.23
1.30
1.40
1.35
1.07
0.59
0.10
-0.20
-0.24
-0.10
0.03
-0.01
-0.28
-0.70
-1.10
-1.32
-1.28
-0.96
-0.45
0.13
0.66
0.99
1.07
0.88
0.54
0.16
-0.11
-0.25
-0.32
-0.43
-0.67
-1.01
-1.36
-1.58
-1.63
-1.56
-1.44
-1.40
-1.44
-1.50
-1.46
-1.25
-0.79
-0.10
0.73
1.52
2.08
2.24
1.96
1.37
0.69
0.19
0.01
0.12
0.33
0.42
0.31
0.07
-0.10
-0.00
0.37
0.88
1.26
1.32
1.00
0.44
-0.16
-0.63
-0.92
-1.09
-1.21
-1.31
-1.27
-1.05
-0.64
-0.18
0.11
0.09
-0.22
-0.67
-1.07
-1.27
-1.23
-1.00
-0.66
-0.27
0.14
0.52
0.81
0.94
0.93
0.90
0.96
1.25
1.72
2.21
2.55
2.57
2.29
1.80
1.24
0.66
0.07
-0.52
-1.06
-1.44
-1.53
-1.36
-1.02
-0.64
-0.34
-0.13
0.00
0.06
-0.03
-0.33
-0.81
-1.33
-1.65
-1.61
-1.19
-0.55
0.04
0.42
0.51
0.37
0.08
-0.27
-0.62
-0.89
-1.00
-0.87
-0.52
-0.07
0.27
0.31
0.01
-0.53
-1.07
-1.44
-1.54
-1.41
-1.12
-0.74
-0.28
0.24
0.79
1.29
1.64
1.77
1.70
1.48
1.20
0.94
0.76
0.69
0.74
0.90
1.15
1.40
1.59
1.63
1.46
1.10
0.62
0.15
-0.16
-0.17
0.15
0.69
1.26
1.66
1.76
1.58
1.21
0.75
0.22
-0.38
-1.05
-1.68
-2.13
-2.25
-2.04
-1.62
-1.18
-0.89
-0.73
-0.58
-0.30
0.18
0.73
1.14
1.23
0.91
0.28
-0.38
-0.85
-1.00
-0.90
-0.73
-0.68
-0.83
-1.10
-1.30
-1.25
-0.86
-0.23
0.38
0.74
0.69
0.30
-0.18
-0.46
-0.34
0.12
0.67
0.99
0.89
0.37
-0.30
-0.79
-0.90
-0.66
-0.26
0.03
0.11
0.08
0.14
0.44
0.93
1.38
1.53
1.24
0.59
-0.13
-0.59
-0.61
-0.24
0.28
0.68
0.78
0.56
0.10
-0.47
-1.05
-1.54
-1.84
-1.86
-1.56
-1.06
-0.59
-0.32
-0.31
-0.45
-0.53
-0.39
-0.06
0.30
0.52
0.52
0.39
0.29
0.29
0.37
0.39
0.34
0.30
0.41
0.74
1.18
1.47
1.33
0.69
-0.30
-1.28
-1.88
-1.92
-1.48
-0.82
-0.22
0.13
0.27
0.31
0.36
0.51
0.74
0.96
1.07
1.01
0.75
0.32
-0.24
-0.83
-1.42
-1.95
-2.39
-2.72
-2.86
-2.75
-2.30
-1.50
-0.41
0.80
1.93
2.78
3.23
3.27
2.96
2.39
1.68
0.97
0.37
0.04
0.03
0.32
0.77
1.14
1.25
1.02
0.54
-0.02
-0.44
-0.63
-0.59
-0.47
-0.41
-0.55
-0.88
-1.27
-1.52
-1.46
-1.06
-0.46
0.08
0.31
0.15
-0.27
-0.66
-0.78
-0.57
-0.20
0.10
0.16
-0.03
-0.27
-0.41
-0.31
-0.01
0.35
0.62
0.67
0.51
0.19
-0.16
-0.41
-0.49
-0.43
-0.31
-0.26
-0.30
-0.33
-0.15
0.34
1.07
1.72
1.96
1.60
0.78
-0.11
-0.64
-0.54
0.08
0.96
1.72
2.17
2.28
2.19
2.02
1.79
1.45
0.95
0.27
-0.44
-1.05
-1.39
-1.40
-1.15
-0.84
-0.66
-0.76
-1.13
-1.59
-1.88
-1.77
-1.22
-0.38
0.40
0.79
0.61
-0.08
-0.99
-1.74
-2.08
-1.95
-1.52
-1.01
-0.55
-0.14
0.32
0.91
1.59
2.17
2.43
2.24
1.61
0.71
-0.18
-0.82
-1.09
-1.01
-0.77
-0.56
-0.49
-0.56
-0.63
-0.54
-0.24
0.12
0.33
0.20
-0.28
-0.86
-1.23
-1.17
-0.71
-0.07
0.46
0.71
0.70
0.57
0.48
0.48
0.52
0.49
0.31
-0.03
-0.45
-0.83
-1.10
-1.18
-1.05
-0.71
-0.27
0.16
0.44
0.51
0.41
0.19
-0.04
-0.24
-0.39
-0.45
-0.34
-0.00
0.52
1.10
1.49
1.53
1.21
0.72
0.32
0.19
0.28
0.41
0.38
0.13
-0.22
-0.45
-0.41
-0.14
0.17
0.30
0.13
-0.23
-0.57
-0.68
-0.48
-0.05
0.44
0.79
0.92
0.83
0.59
0.33
0.13
0.05
0.09
0.20
0.31
0.35
0.30
0.23
0.20
0.28
0.44
0.59
0.61
0.44
0.13
-0.20
-0.43
-0.49
-0.42
-0.27
-0.11
0.02
0.14
0.25
0.32
0.28
0.07
-0.30
-0.73
-1.03
-1.02
-0.63
0.08
0.80
1.24
1.13
0.45
-0.60
-1.67
-2.39
-2.55
-2.12
-1.27
-0.28
0.61
1.24
1.58
1.71
1.72
1.67
1.53
1.24
0.78
0.20
-0.36
-0.77
-0.98
-1.05
-1.08
-1.10
-1.07
-0.90
-0.54
-0.10
0.24
0.28
0.04
-0.28
-0.40
-0.09
0.61
1.44
2.05
2.13
1.62
0.69
-0.32
-1.07
-1.37
-1.27
-1.01
-0.83
-0.89
-1.12
-1.34
-1.41
-1.28
-1.05
-0.88
-0.83
-0.85
-0.81
-0.61
-0.23
0.25
0.71
1.09
1.38
1.62
1.82
1.89
1.74
1.30
0.59
-0.27
-1.10
-1.71
-1.98
-1.87
-1.49
-1.03
-0.65
-0.44
-0.43
-0.55
-0.72
-0.86
-0.92
-0.83
-0.59
-0.22
0.25
0.69
1.02
1.14
1.02
0.75
0.46
0.33
0.50
0.99
1.68
2.35
2.74
2.67
2.13
1.21
0.16
-0.80
-1.49
-1.79
-1.70
-1.33
-0.87
-0.54
-0.50
-0.74
-1.09
-1.27
-1.09
-0.49
0.36
1.17
1.69
1.82
1.64
1.33
1.05
0.87
0.76
0.65
0.51
0.34
0.17
0.03
-0.09
-0.18
-0.21
-0.20
-0.17
-0.14
-0.13
-0.10
-0.03
0.09
0.20
0.20
-0.01
-0.41
-0.90
-1.27
-1.40
-1.26
-0.95
-0.67
-0.56
-0.61
-0.72
-0.72
-0.51
-0.11
0.37
0.74
0.85
0.63
0.18
-0.34
-0.74
-0.89
-0.79
-0.54
-0.28
-0.14
-0.11
-0.13
-0.07
0.14
0.52
1.03
1.56
1.97
2.14
1.97
1.47
0.66
-0.27
-1.15
-1.80
-2.12
-2.14
-1.96
-1.75
-1.56
-1.37
-1.04
-0.48
0.33
1.24
2.01
2.37
2.21
1.58
0.69
-0.17
-0.75
-0.93
-0.74
-0.36
0.01
0.19
0.18
0.04
-0.09
-0.14
-0.14
-0.17
-0.32
-0.53
-0.72
-0.77
-0.65
-0.44
-0.26
-0.22
-0.26
-0.28
-0.19
0.02
0.30
0.53
0.69
0.79
0.86
0.91
0.83
0.57
0.08
-0.49
-0.95
-1.10
-0.87
-0.36
0.20
0.61
0.82
0.89
0.95
1.08
1.26
1.36
1.27
0.97
0.53
0.14
-0.05
0.01
0.27
0.58
0.82
0.91
0.83
0.58
0.14
-0.47
-1.15
-1.72
-2.02
-1.97
-1.62
-1.11
-0.59
-0.11
0.36
0.85
1.31
1.56
1.42
0.81
-0.11
-1.05
-1.68
-1.83
-1.55
-1.07
-0.62
-0.32
-0.16
-0.04
0.11
0.28
0.41
0.38
0.15
-0.25
-0.68
-0.93
-0.85
-0.40
0.26
0.89
1.27
1.35
1.23
1.10
1.03
0.98
0.79
0.35
-0.28
-0.90
-1.21
-1.11
-0.70
-0.30
-0.23
-0.55
-1.12
-1.55
-1.59
-1.14
-0.38
0.42
0.97
1.19
1.15
1.03
1.00
1.08
1.20
1.17
0.85
0.24
-0.51
-1.09
-1.26
-0.87
-0.04
0.93
1.69
1.98
1.74
1.15
0.47
-0.07
-0.35
-0.40
-0.32
-0.15
0.11
0.50
1.00
1.51
1.86
1.85
1.41
0.56
-0.47
-1.36
-1.89
-1.92
-1.55
-1.01
-0.59
-0.47
-0.72
-1.18
-1.61
-1.78
-1.64
-1.30
-0.97
-0.86
-1.00
-1.31
-1.55
-1.54
-1.19
-0.57
0.13
0.68
0.93
0.85
0.52
0.11
-0.22
-0.36
-0.30
-0.10
0.19
0.51
0.83
1.12
1.36
1.47
1.40
1.15
0.76
0.37
0.09
-0.03
-0.01
0.08
0.15
0.14
0.08
0.00
-0.04
-0.07
-0.14
-0.28
-0.50
-0.72
-0.80
-0.65
-0.31
0.13
0.50
0.72
0.80
0.83
0.86
0.88
0.83
0.62
0.29
-0.07
-0.35
-0.43
-0.33
-0.07
0.29
0.69
1.08
1.36
1.50
1.42
1.20
0.90
0.62
0.40
0.18
-0.11
-0.49
-0.95
-1.40
-1.76
-2.03
-2.20
-2.29
-2.26
-2.05
-1.61
-0.98
-0.30
0.26
0.55
0.57
0.40
0.21
0.11
0.14
0.19
0.16
-0.03
-0.35
-0.66
-0.81
-0.69
-0.27
0.33
0.99
1.58
2.03
2.33
2.49
2.48
2.25
1.77
1.10
0.37
-0.15
-0.31
-0.03
0.51
1.03
1.26
1.03
0.39
-0.47
-1.29
-1.88
-2.13
-2.05
-1.70
-1.18
-0.60
-0.06
0.31
0.45
0.26
-0.24
-0.93
-1.60
-1.98
-1.86
-1.15
-0.04
1.13
2.00
2.34
2.15
1.67
1.17
0.85
0.71
0.62
0.49
0.29
0.11
0.03
0.03
0.02
-0.14
-0.51
-1.03
-1.49
-1.73
-1.68
-1.41
-1.08
-0.82
-0.68
-0.61
-0.58
-0.55
-0.58
-0.73
-0.99
-1.28
-1.46
-1.38
-0.98
-0.34
0.37
0.95
1.26
1.27
1.04
0.69
0.35
0.11
-0.00
-0.00
0.06
0.11
0.07
-0.09
-0.32
-0.54
-0.60
-0.44
-0.08
0.37
0.72
0.86
0.80
0.66
0.59
0.65
0.78
0.83
0.68
0.31
-0.10
-0.34
-0.23
0.23
0.88
1.45
1.73
1.66
1.28
0.81
0.41
0.20
0.16
0.17
0.16
0.09
0.02
0.05
0.23
0.45
0.54
0.28
-0.37
-1.31
-2.23
-2.79
-2.79
-2.25
-1.42
-0.61
-0.08
0.09
-0.01
-0.16
-0.22
-0.15
-0.04
-0.05
-0.26
-0.62
-0.95
-1.09
-1.00
-0.73
-0.46
-0.25
-0.06
0.29
0.89
1.66
2.31
2.48
2.03
1.10
0.11
-0.47
-0.41
0.22
1.07
1.69
1.81
1.44
0.81
0.27
0.04
0.14
0.39
0.54
0.40
-0.11
-0.87
-1.71
-2.47
-3.02
-3.31
-3.30
-2.93
-2.21
-1.23
-0.21
0.61
1.05
1.11
0.92
0.68
0.50
0.37
0.21
-0.02
-0.27
-0.35
-0.16
0.30
0.84
1.24
1.33
1.11
0.73
0.37
0.14
0.04
-0.00
-0.05
-0.16
-0.32
-0.50
-0.67
-0.81
-0.83
-0.69
-0.36
0.09
0.57
0.92
1.03
0.91
0.62
0.22
-0.20
-0.57
-0.81
-0.88
-0.74
-0.40
0.08
0.63
1.17
1.57
1.78
1.75
1.53
1.25
1.05
1.05
1.22
1.41
1.44
1.17
0.57
-0.26
-1.16
-1.94
-2.46
-2.61
-2.38
-1.80
-1.03
-0.31
0.22
0.43
0.37
0.15
-0.02
-0.01
0.19
0.51
0.80
0.94
0.87
0.60
0.22
-0.21
-0.59
-0.87
-1.00
-0.94
-0.69
-0.32
0.08
0.40
0.58
0.64
0.61
0.52
0.35
0.07
-0.35
-0.84
-1.25
-1.42
-1.23
-0.72
-0.03
0.62
1.01
0.99
0.61
0.01
-0.56
-0.87
-0.78
-0.35
0.21
0.60
0.65
0.32
-0.17
-0.55
-0.61
-0.32
0.12
0.43
0.43
0.09
-0.46
-0.95
-1.17
-1.02
-0.54
0.14
0.85
1.38
1.59
1.36
0.71
-0.22
-1.15
-1.81
-2.00
-1.71
-1.11
-0.53
-0.18
-0.17
-0.38
-0.57
-0.53
-0.16
0.44
1.08
1.57
1.79
1.77
1.56
1.27
0.95
0.66
0.44
0.30
0.21
0.11
-0.12
-0.53
-1.07
-1.54
-1.74
-1.56
-1.05
-0.44
0.05
0.26
0.14
-0.18
-0.57
-0.85
-0.89
-0.60
0.05
0.92
1.78
2.34
2.40
1.96
1.20
0.44
-0.05
-0.22
-0.16
-0.09
-0.15
-0.35
-0.56
-0.59
-0.37
0.10
0.67
1.15
1.42
1.37
1.03
0.41
-0.41
-1.34
-2.23
-2.87
-3.07
-2.71
-1.85
-0.74
0.30
1.04
1.40
1.50
1.55
1.72
2.00
2.28
2.38
2.19
1.75
1.15
0.51
-0.11
-0.72
-1.32
-1.83
-2.09
-1.95
-1.36
-0.48
0.37
0.88
0.87
0.38
-0.31
-0.90
-1.19
-1.17
-0.93
-0.57
-0.16
0.26
0.67
0.96
1.04
0.85
0.48
0.03
-0.34
-0.56
-0.68
-0.77
-0.87
-0.99
-1.06
-1.02
-0.83
-0.50
-0.09
0.37
0.81
1.18
1.36
1.34
1.11
0.72
0.30
-0.08
-0.36
-0.57
-0.69
-0.70
-0.57
-0.27
0.12
0.44
0.57
0.43
0.17
-0.01
0.09
0.52
1.13
1.68
1.97
1.92
1.59
1.13
0.65
0.20
-0.21
-0.56
-0.76
-0.76
-0.59
-0.40
-0.41
-0.75
-1.36
-2.02
-2.44
-2.49
-2.19
-1.68
-1.16
-0.70
-0.29
0.09
0.37
0.45
0.27
-0.11
-0.46
-0.54
-0.23
0.36
1.01
1.46
1.61
1.53
1.37
1.27
1.24
1.23
1.19
1.09
0.93
0.73
0.45
0.01
-0.66
-1.50
-2.33
-2.89
-2.94
-2.40
-1.40
-0.28
0.54
0.74
0.24
-0.75
-1.86
-2.61
-2.72
-2.13
-1.07
0.11
1.03
1.44
1.36
0.96
0.53
0.33
0.45
0.85
1.39
1.89
2.23
2.34
2.17
1.70
0.96
0.03
-0.90
-1.58
-1.84
-1.61
-1.02
-0.32
0.25
0.56
0.66
0.65
0.64
0.63
0.57
0.39
0.13
-0.08
-0.11
0.09
0.47
0.86
1.09
1.07
0.80
0.32
-0.30
-0.98
-1.62
-2.04
-2.09
-1.65
-0.83
0.09
0.79
1.03
0.84
0.42
0.06
-0.09
-0.06
0.04
0.10
0.12
0.17
0.29
0.42
0.41
0.17
-0.28
-0.74
-0.98
-0.87
-0.45
0.10
0.58
0.90
1.07
1.18
1.28
1.35
1.31
1.05
0.57
-0.04
-0.64
-1.05
-1.18
-1.04
-0.72
-0.34
0.01
0.28
0.46
0.53
0.48
0.27
-0.06
-0.46
-0.78
-0.90
-0.80
-0.57
-0.33
-0.21
-0.24
-0.35
-0.46
-0.51
-0.54
-0.62
-0.82
-1.18
-1.56
-1.86
-1.93
-1.71
-1.25
-0.69
-0.18
0.19
0.40
0.50
0.61
0.80
1.09
1.44
1.76
1.96
2.01
1.89
1.64
1.32
0.99
0.73
0.57
0.51
0.52
0.53
0.48
0.35
0.16
-0.05
-0.27
-0.46
-0.64
-0.78
-0.88
-0.94
-0.94
-0.93
-0.95
-1.02
-1.11
-1.10
-0.90
-0.45
0.18
0.80
1.23
1.34
1.19
0.93
0.78
0.83
1.03
1.22
1.21
0.88
0.30
-0.38
-0.97
-1.36
-1.54
-1.53
-1.35
-1.02
-0.57
-0.03
0.46
0.76
0.76
0.43
-0.11
-0.67
-1.02
-0.98
-0.54
0.22
1.07
1.75
2.10
1.99
1.46
0.62
-0.31
-1.12
-1.66
-1.82
-1.65
-1.30
-0.93
-0.66
-0.51
-0.41
-0.26
0.00
0.35
0.71
0.96
1.03
0.88
0.51
-0.04
-0.68
-1.24
-1.54
-1.39
-0.79
0.04
0.81
1.23
1.18
0.80
0.35
0.10
0.10
0.27
0.41
0.39
0.23
-0.00
-0.19
-0.31
-0.40
-0.50
-0.59
-0.60
-0.43
-0.06
0.44
0.89
1.09
0.91
0.35
-0.43
-1.19
-1.67
-1.76
-1.51
-1.08
-0.72
-0.54
-0.54
-0.60
-0.59
-0.45
-0.23
-0.04
0.05
0.04
0.00
0.02
0.15
0.31
0.43
0.41
0.27
0.10
0.03
0.18
0.56
1.11
1.71
2.22
2.53
2.58
2.41
2.09
1.68
1.27
0.90
0.54
0.15
-0.32
-0.87
-1.36
-1.62
-1.51
-1.05
-0.43
0.06
0.19
-0.07
-0.53
-0.91
-1.04
-0.88
-0.59
-0.34
-0.17
-0.01
0.26
0.66
1.07
1.28
1.15
0.67
0.04
-0.54
-0.91
-1.03
-0.96
-0.77
-0.53
-0.27
-0.10
-0.07
-0.25
-0.55
-0.85
-0.98
-0.85
-0.50
-0.07
0.29
0.47
0.45
0.28
0.05
-0.13
-0.19
-0.06
0.24
0.58
0.78
0.67
0.23
-0.38
-0.86
-0.95
-0.58
0.14
0.91
1.44
1.59
1.41
1.04
0.66
0.30
-0.07
-0.50
-0.97
-1.32
-1.38
-0.99
-0.19
0.80
1.64
2.06
1.93
1.35
0.61
-0.02
-0.38
-0.51
-0.57
-0.71
-1.02
-1.41
-1.72
-1.81
-1.61
-1.15
-0.49
0.30
1.09
1.77
2.22
2.38
2.29
2.01
1.67
1.32
0.94
0.49
-0.04
-0.52
-0.80
-0.75
-0.39
0.06
0.38
0.36
0.01
-0.54
-1.10
-1.53
-1.76
-1.81
-1.74
-1.55
-1.29
-0.98
-0.72
-0.63
-0.82
-1.25
-1.74
-2.01
-1.85
-1.23
-0.35
0.44
0.88
0.86
0.55
0.22
0.12
0.32
0.74
1.15
1.43
1.53
1.58
1.69
1.92
2.20
2.35
2.25
1.82
1.17
0.42
-0.25
-0.70
-0.90
-0.89
-0.75
-0.55
-0.37
-0.24
-0.22
-0.32
-0.55
-0.89
-1.33
-1.79
-2.23
-2.54
-2.60
-2.30
-1.65
-0.73
0.26
1.12
1.70
1.94
1.87
1.55
1.09
0.58
0.12
-0.19
-0.24
-0.05
0.27
0.57
0.66
0.47
0.05
-0.44
-0.83
-1.04
-1.06
-0.95
-0.77
-0.59
-0.47
-0.46
-0.57
-0.79
-1.02
-1.15
-1.06
-0.68
-0.06
0.64
1.26
1.61
1.70
1.63
1.58
1.73
2.07
2.51
2.83
2.85
2.53
1.96
1.33
0.84
0.55
0.37
0.17
-0.15
-0.61
-1.08
-1.41
-1.47
-1.28
-0.91
-0.55
-0.34
-0.38
-0.64
-1.02
-1.38
-1.55
-1.47
-1.18
-0.81
-0.51
-0.43
-0.59
-0.85
-1.02
-0.91
-0.50
0.08
0.57
0.78
0.64
0.27
-0.20
-0.65
-1.06
-1.43
-1.72
-1.83
-1.61
-1.03
-0.20
0.65
1.28
1.55
1.50
1.26
0.96
0.63
0.29
-0.04
-0.29
-0.35
-0.16
0.20
0.59
0.84
0.82
0.56
0.15
-0.28
-0.67
-0.95
-1.13
-1.15
-0.96
-0.56
-0.02
0.51
0.85
0.91
0.74
0.49
0.36
0.49
0.82
1.24
1.55
1.60
1.37
0.96
0.59
0.41
0.50
0.79
1.06
1.10
0.80
0.18
-0.53
-1.09
-1.35
-1.27
-0.98
-0.63
-0.33
-0.14
-0.05
-0.05
-0.12
-0.25
-0.42
-0.57
-0.68
-0.78
-0.90
-1.09
-1.32
-1.51
-1.57
-1.46
-1.20
-0.88
-0.61
-0.46
-0.43
-0.44
-0.47
-0.48
-0.44
-0.38
-0.30
-0.22
-0.16
-0.19
-0.31
-0.51
-0.69
-0.72
-0.52
-0.11
0.37
0.77
0.98
0.99
0.89
0.82
0.86
1.07
1.41
1.86
2.34
2.76
3.09
3.27
3.29
3.15
2.86
2.43
1.87
1.27
0.72
0.37
0.25
0.33
0.45
0.47
0.27
-0.10
-0.58
-1.04
-1.42
-1.68
-1.79
-1.76
-1.61
-1.44
-1.38
-1.54
-1.91
-2.30
-2.50
-2.36
-1.89
-1.33
-0.92
-0.86
-1.11
-1.46
-1.63
-1.44
-0.90
-0.20
0.35
0.57
0.42
0.07
-0.23
-0.30
-0.08
0.33
0.75
1.02
1.10
1.03
0.93
0.87
0.81
0.65
0.27
-0.32
-0.97
-1.42
-1.48
-1.09
-0.39
0.37
0.98
1.33
1.45
1.43
1.30
1.04
0.62
0.04
-0.56
-1.02
-1.13
-0.83
-0.21
0.50
1.01
1.10
0.72
-0.00
-0.83
-1.54
-1.94
-1.99
-1.72
-1.18
-0.49
0.26
0.92
1.33
1.42
1.19
0.78
0.42
0.29
0.47
0.90
1.41
1.75
1.80
1.52
1.01
0.49
0.17
0.21
0.56
0.99
1.22
1.08
0.59
0.02
-0.32
-0.22
0.25
0.83
1.21
1.20
0.85
0.40
0.11
0.13
0.42
0.79
0.96
0.79
0.24
-0.57
-1.41
-2.11
-2.60
-2.88
-3.09
-3.28
-3.49
-3.68
-3.74
-3.58
-3.17
-2.51
-1.69
-0.77
0.15
0.97
1.59
1.90
1.87
1.53
1.05
0.60
0.29
0.16
0.17
0.24
0.33
0.43
0.53
0.60
0.55
0.31
-0.12
-0.61
-1.02
-1.19
-1.06
-0.68
-0.12
0.53
1.28
2.09
2.90
3.54
3.78
3.42
2.44
1.05
-0.36
-1.37
-1.76
-1.55
-0.98
-0.44
-0.20
-0.36
-0.84
-1.41
-1.80
-1.89
-1.61
-1.03
-0.28
0.51
1.15
1.58
1.72
1.61
1.33
0.95
0.55
0.18
-0.07
-0.13
0.00
0.25
0.44
0.36
-0.04
-0.68
-1.27
-1.56
-1.42
-0.91
-0.25
0.34
0.72
0.90
0.97
1.01
1.04
1.01
0.94
0.85
0.81
0.91
1.09
1.26
1.29
1.11
0.71
0.17
-0.39
-0.88
-1.23
-1.41
-1.40
-1.21
-0.89
-0.57
-0.35
-0.31
-0.38
-0.45
-0.37
-0.14
0.15
0.35
0.34
0.20
0.09
0.16
0.48
0.90
1.20
1.26
1.06
0.78
0.60
0.59
0.66
0.60
0.31
-0.18
-0.63
-0.80
-0.59
-0.09
0.39
0.57
0.33
-0.24
-0.84
-1.16
-1.08
-0.70
-0.31
-0.20
-0.49
-1.08
-1.66
-1.98
-1.89
-1.48
-0.98
-0.66
-0.67
-0.94
-1.24
-1.33
-1.09
-0.63
-0.20
-0.08
-0.35
-0.86
-1.35
-1.57
-1.44
-1.06
-0.60
-0.22
0.04
0.20
0.34
0.49
0.67
0.83
0.96
1.04
1.04
0.97
0.85
0.76
0.78
0.99
1.34
1.80
2.25
2.65
2.95
3.15
3.19
2.99
2.54
1.86
1.02
0.14
-0.73
-1.55
-2.28
-2.83
-3.07
-2.91
-2.35
-1.53
-0.66
0.07
0.51
0.67
0.62
0.40
0.10
-0.26
-0.57
-0.72
-0.60
-0.21
0.30
0.72
0.84
0.59
0.05
-0.58
-1.05
-1.25
-1.14
-0.89
-0.68
-0.68
-0.93
-1.37
-1.80
-2.07
-2.06
-1.79
-1.34
-0.85
-0.42
-0.08
0.15
0.28
0.33
0.27
0.16
0.09
0.14
0.38
0.80
1.30
1.68
1.87
1.78
1.47
1.03
0.56
0.17
-0.08
-0.10
0.17
0.68
1.34
1.92
2.18
1.99
1.39
0.59
-0.11
-0.48
-0.46
-0.14
0.28
0.62
0.82
0.85
0.76
0.61
0.43
0.21
-0.08
-0.47
-0.92
-1.34
-1.60
-1.58
-1.28
-0.78
-0.30
-0.04
-0.12
-0.50
-0.98
-1.37
-1.54
-1.48
-1.27
-0.95
-0.57
-0.11
0.37
0.73
0.82
0.55
0.05
-0.43
-0.63
-0.44
0.01
0.44
0.62
0.50
0.24
0.04
0.05
0.31
0.68
1.08
1.45
1.80
2.09
2.29
2.27
1.96
1.37
0.59
-0.21
-0.85
-1.22
-1.31
-1.23
-1.10
-1.02
-0.98
-0.88
-0.64
-0.22
0.30
0.73
0.93
0.82
0.50
0.13
-0.14
-0.22
-0.14
0.02
0.17
0.22
0.13
-0.10
-0.45
-0.87
-1.31
-1.70
-1.98
-2.13
-2.16
-2.05
-1.80
-1.40
-0.87
-0.26
0.28
0.63
0.70
0.51
0.15
-0.22
-0.46
-0.51
-0.38
-0.13
0.17
0.48
0.75
0.95
1.03
0.97
0.78
0.52
0.27
0.10
0.04
0.04
0.09
0.17
0.33
0.63
1.03
1.43
1.69
1.65
1.25
0.59
-0.10
-0.63
-0.85
-0.80
-0.63
-0.50
-0.53
-0.70
-0.96
-1.18
-1.34
-1.38
-1.31
-1.15
-0.91
-0.62
-0.28
0.09
0.47
0.84
1.16
1.39
1.45
1.30
0.99
0.65
0.43
0.46
0.74
1.17
1.58
1.82
1.86
1.71
1.49
1.24
0.96
0.64
0.28
-0.04
-0.21
-0.18
0.00
0.22
0.33
0.27
0.12
0.02
0.08
0.27
0.41
0.29
-0.11
-0.66
-1.11
-1.27
-1.14
-0.95
-0.97
-1.34
-2.00
-2.67
-3.03
-2.92
-2.40
-1.69
-1.04
-0.58
-0.29
-0.10
0.07
0.19
0.20
0.07
-0.13
-0.24
-0.06
0.48
1.31
2.16
2.74
2.84
2.48
1.83
1.15
0.56
0.07
-0.39
-0.87
-1.35
-1.71
-1.81
-1.57
-1.04
-0.39
0.14
0.36
0.20
-0.20
-0.59
-0.73
-0.50
0.01
0.55
0.85
0.78
0.39
-0.08
-0.34
-0.25
0.16
0.67
1.03
1.05
0.72
0.16
-0.42
-0.82
-0.96
-0.87
-0.72
-0.67
-0.85
-1.23
-1.62
-1.84
-1.77
-1.44
-1.00
-0.63
-0.42
-0.36
-0.36
-0.30
-0.12
0.20
0.61
1.03
1.42
1.73
1.94
2.03
2.00
1.80
1.42
0.87
0.25
-0.25
-0.43
-0.18
0.46
1.24
1.85
1.99
1.61
0.86
0.06
-0.53
-0.74
-0.53
-0.03
0.63
1.27
1.75
1.92
1.70
1.02
-0.04
-1.28
-2.43
-3.16
-3.26
-2.69
-1.62
-0.36
0.75
1.49
1.74
1.56
1.09
0.50
-0.07
-0.53
-0.80
-0.88
-0.76
-0.49
-0.18
0.04
0.02
-0.30
-0.88
-1.50
-1.92
-1.93
-1.51
-0.82
-0.15
0.24
0.27
0.03
-0.22
-0.27
-0.02
0.49
1.08
1.55
1.76
1.67
1.32
0.81
0.27
-0.19
-0.51
-0.66
-0.67
-0.59
-0.48
-0.40
-0.37
-0.38
-0.40
-0.34
-0.15
0.20
0.65
1.12
1.51
1.74
1.81
1.70
1.45
1.10
0.71
0.34
0.08
-0.04
-0.04
0.00
0.00
-0.07
-0.20
-0.30
-0.30
-0.21
-0.09
-0.04
-0.09
-0.24
-0.42
-0.56
-0.62
-0.58
-0.48
-0.40
-0.43
-0.63
-0.99
-1.45
-1.88
-2.12
-2.10
-1.84
-1.47
-1.17
-0.98
-0.89
-0.76
-0.51
-0.10
0.34
0.62
0.65
0.46
0.23
0.15
0.26
0.45
0.52
0.34
-0.05
-0.44
-0.58
-0.34
0.19
0.79
1.20
1.32
1.21
1.05
1.00
1.07
1.09
0.87
0.30
-0.51
-1.30
-1.73
-1.62
-0.97
-0.05
0.79
1.26
1.27
1.01
0.79
0.87
1.31
1.87
2.19
1.97
1.17
0.06
-0.92
-1.39
-1.25
-0.67
-0.03
0.29
0.14
-0.43
-1.17
-1.82
-2.18
-2.19
-1.90
-1.40
-0.80
-0.20
0.32
0.71
0.91
0.95
0.85
0.61
0.27
-0.18
-0.67
-1.09
-1.27
-1.07
-0.46
0.37
1.06
1.25
0.80
-0.13
-1.15
-1.78
-1.78
-1.22
-0.41
0.27
0.64
0.71
0.69
0.77
0.99
1.25
1.38
1.32
1.08
0.82
0.70
0.81
1.13
1.51
1.83
1.98
1.99
1.91
1.77
1.55
1.16
0.49
-0.47
-1.59
-2.63
-3.27
-3.30
-2.72
-1.76
-0.77
-0.13
0.01
-0.27
-0.71
-1.03
-1.07
-0.84
-0.49
-0.16
0.15
0.48
0.89
1.32
1.65
1.72
1.51
1.10
0.66
0.33
0.16
0.10
0.06
-0.01
-0.15
-0.37
-0.65
-0.97
-1.24
-1.37
-1.32
-1.13
-0.90
-0.73
-0.61
-0.47
-0.22
0.17
0.61
0.95
1.10
1.06
0.89
0.70
0.56
0.48
0.45
0.46
0.56
0.77
1.07
1.38
1.59
1.60
1.43
1.10
0.71
0.34
0.00
-0.31
-0.61
-0.88
-1.10
-1.21
-1.23
-1.21
-1.26
-1.41
-1.64
-1.79
-1.70
-1.27
-0.57
0.14
0.60
0.65
0.36
-0.03
-0.24
-0.12
0.31
0.89
1.38
1.63
1.60
1.29
0.78
0.19
-0.39
-0.86
-1.19
-1.42
-1.60
-1.76
-1.88
-1.87
-1.67
-1.30
-0.89
-0.55
-0.40
-0.36
-0.30
-0.13
0.12
0.28
0.13
-0.39
-1.13
-1.78
-1.99
-1.60
-0.73
0.31
1.17
1.63
1.71
1.56
1.40
1.30
1.23
1.10
0.85
0.53
0.26
0.16
0.33
0.72
1.24
1.71
1.99
1.97
1.65
1.13
0.63
0.30
0.19
0.23
0.18
-0.14
-0.80
-1.61
-2.30
-2.57
-2.28
-1.58
-0.71
0.04
0.49
0.57
0.35
-0.08
-0.60
-1.09
-1.42
-1.48
-1.25
-0.79
-0.25
0.25
0.56
0.70
0.70
0.59
0.39
0.11
-0.17
-0.33
-0.23
0.19
0.86
1.58
2.09
2.25
2.06
1.64
1.21
0.90
0.75
0.65
0.48
0.18
-0.18
-0.47
-0.59
-0.54
-0.41
-0.40
-0.61
-1.00
-1.39
-1.51
-1.20
-0.51
0.33
1.01
1.32
1.23
0.89
0.53
0.31
0.25
0.28
0.27
0.11
-0.19
-0.59
-0.98
-1.28
-1.42
-1.40
-1.27
-1.11
-0.98
-0.89
-0.79
-0.60
-0.31
0.03
0.27
0.35
0.27
0.14
0.15
0.37
0.74
1.07
1.17
0.96
0.51
0.01
-0.44
-0.80
-1.08
-1.32
-1.44
-1.34
-0.95
-0.32
0.34
0.76
0.79
0.42
-0.15
-0.66
-0.91
-0.88
-0.62
-0.29
-0.00
0.21
0.28
0.21
-0.04
-0.41
-0.78
-0.98
-0.87
-0.44
0.19
0.80
1.19
1.34
1.37
1.47
1.76
2.19
2.56
2.66
2.43
2.02
1.68
1.64
1.93
2.39
2.69
2.60
2.05
1.16
0.17
-0.67
-1.25
-1.54
-1.66
-1.67
-1.61
-1.44
-1.12
-0.62
-0.05
0.43
0.67
0.58
0.22
-0.24
-0.64
-0.88
-0.97
-0.98
-0.98
-1.01
-1.04
-1.08
-1.09
-1.12
-1.16
-1.25
-1.41
-1.64
-1.90
-2.08
-2.08
-1.83
-1.34
-0.69
-0.05
0.47
0.82
1.01
1.09
1.08
1.01
0.87
0.71
0.56
0.47
0.41
0.38
0.36
0.36
0.40
0.43
0.38
0.23
0.01
-0.12
-0.02
0.35
0.85
1.18
1.14
0.71
0.12
-0.29
-0.31
0.04
0.48
0.64
0.29
-0.52
-1.48
-2.21
-2.44
-2.13
-1.46
-0.68
-0.03
0.43
0.66
0.68
0.45
-0.10
-0.97
-1.98
-2.83
-3.19
-2.84
-1.88
-0.60
0.60
1.38
1.64
1.48
1.15
0.85
0.70
0.69
0.81
1.01
1.27
1.54
1.70
1.66
1.38
0.94
0.52
0.29
0.31
0.50
0.64
0.54
0.11
-0.53
-1.16
-1.58
-1.72
-1.64
-1.45
-1.21
-0.92
-0.52
0.00
0.58
1.05
1.29
1.24
1.01
0.76
0.63
0.61
0.52
0.18
-0.46
-1.22
-1.74
-1.69
-0.94
0.29
1.57
2.47
2.76
2.51
2.03
1.55
1.17
0.82
0.36
-0.22
-0.78
-1.10
-1.06
-0.70
-0.24
0.02
-0.05
-0.44
-0.98
-1.46
-1.70
-1.66
-1.39
-1.02
-0.75
-0.71
-0.95
-1.43
-1.98
-2.38
-2.50
-2.29
-1.82
-1.23
-0.66
-0.16
0.30
0.79
1.34
1.90
2.40
2.74
2.89
2.85
2.68
2.41
2.05
1.57
0.97
0.27
-0.43
-0.99
-1.24
-1.13
-0.70
-0.13
0.43
0.84
1.03
1.05
0.94
0.74
0.43
0.05
-0.39
-0.76
-0.91
-0.74
-0.22
0.49
1.12
1.42
1.25
0.68
-0.04
-0.62
-0.83
-0.64
-0.22
0.20
0.41
0.39
0.23
0.12
0.18
0.44
0.82
1.20
1.42
1.36
0.95
0.24
-0.64
-1.43
-1.92
-1.96
-1.61
-1.09
-0.70
-0.66
-0.98
-1.48
-1.88
-1.95
-1.58
-0.92
-0.16
0.42
0.69
0.62
0.33
-0.05
-0.40
-0.62
-0.71
-0.66
-0.53
-0.38
-0.28
-0.24
-0.26
-0.25
-0.12
0.17
0.54
0.83
0.87
0.58
0.05
-0.52
-0.89
-0.90
-0.61
-0.18
0.14
0.18
-0.13
-0.72
-1.38
-1.90
-2.09
-1.89
-1.37
-0.69
-0.05
0.43
0.72
0.90
1.04
1.18
1.26
1.25
1.08
0.77
0.39
0.06
-0.09
0.02
0.37
0.87
1.30
1.50
1.34
0.90
0.36
-0.05
-0.18
-0.06
0.15
0.27
0.23
0.05
-0.13
-0.22
-0.24
-0.19
-0.15
-0.11
-0.06
0.07
0.28
0.57
0.89
1.17
1.37
1.44
1.37
1.16
0.84
0.46
0.09
-0.21
-0.37
-0.32
-0.05
0.36
0.76
0.95
0.79
0.27
-0.50
-1.30
-1.92
-2.24
-2.24
-2.02
-1.72
-1.49
-1.42
-1.48
-1.55
-1.45
-1.07
-0.46
0.22
0.76
1.06
1.16
1.20
1.34
1.62
1.93
2.13
2.13
1.92
1.60
1.29
1.07
1.00
1.09
1.34
1.66
1.90
1.87
1.44
0.63
-0.41
-1.43
-2.23
-2.69
-2.77
-2.56
-2.13
-1.56
-0.95
-0.44
-0.16
-0.23
-0.65
-1.28
-1.86
-2.14
-1.94
-1.38
-0.69
-0.19
-0.12
-0.45
-0.96
-1.31
-1.27
-0.81
-0.08
0.66
1.20
1.47
1.52
1.48
1.40
1.28
1.04
0.63
0.11
-0.39
-0.68
-0.63
-0.21
0.47
1.19
1.70
1.85
1.63
1.15
0.58
0.16
0.00
0.13
0.45
0.85
1.17
1.35
1.34
1.23
1.09
0.98
0.88
0.72
0.39
-0.17
-0.89
-1.61
-2.14
-2.34
-2.21
-1.84
-1.39
-1.01
-0.73
-0.53
-0.32
-0.10
0.10
0.23
0.23
0.12
-0.02
-0.06
0.07
0.35
0.63
0.72
0.48
-0.05
-0.69
-1.17
-1.29
-1.05
-0.64
-0.35
-0.33
-0.56
-0.84
-0.90
-0.63
-0.11
0.42
0.72
0.65
0.24
-0.37
-0.99
-1.43
-1.59
-1.39
-0.84
-0.06
0.72
1.25
1.38
1.12
0.65
0.19
-0.04
-0.00
0.22
0.48
0.68
0.80
0.85
0.83
0.70
0.40
-0.03
-0.48
-0.79
-0.83
-0.62
-0.33
-0.17
-0.27
-0.60
-0.99
-1.23
-1.17
-0.80
-0.23
0.41
0.99
1.46
1.81
2.07
2.26
2.34
2.21
1.82
1.11
0.21
-0.64
-1.18
-1.24
-0.87
-0.36
-0.02
-0.09
-0.55
-1.19
-1.70
-1.90
-1.77
-1.41
-0.99
-0.62
-0.32
-0.06
0.19
0.48
0.83
1.23
1.62
1.89
1.87
1.48
0.74
-0.20
-1.09
-1.71
-1.90
-1.62
-0.97
-0.09
0.81
1.60
2.12
2.32
2.23
1.92
1.54
1.21
0.98
0.82
0.66
0.48
0.27
0.09
-0.07
-0.23
-0.47
-0.84
-1.24
-1.52
-1.51
-1.22
-0.81
-0.53
-0.52
-0.79
-1.13
-1.29
-1.18
-0.88
-0.61
-0.56
-0.77
-1.12
-1.46
-1.63
-1.57
-1.30
-0.86
-0.31
0.29
0.85
1.27
1.46
1.40
1.10
0.65
0.20
-0.11
-0.14
0.14
0.62
1.09
1.32
1.20
0.78
0.24
-0.24
-0.59
-0.88
-1.18
-1.50
-1.71
-1.63
-1.17
-0.43
0.34
0.86
1.03
0.89
0.60
0.30
0.05
-0.15
-0.32
-0.40
-0.31
-0.01
0.45
0.87
1.09
0.97
0.55
-0.00
-0.50
-0.81
-0.85
-0.62
-0.17
0.46
1.14
1.72
2.02
1.92
1.43
0.72
0.01
-0.49
-0.65
-0.50
-0.20
0.08
0.22
0.19
0.08
0.04
0.15
0.46
0.84
1.11
1.11
0.80
0.30
-0.18
-0.48
-0.59
-0.62
-0.72
-0.95
-1.15
-1.08
-0.62
0.12
0.80
1.07
0.74
-0.07
-0.96
-1.52
-1.54
-1.05
-0.30
0.40
0.86
1.04
1.00
0.83
0.54
0.18
-0.18
-0.45
-0.54
-0.47
-0.36
-0.38
-0.59
-0.94
-1.27
-1.42
-1.31
-0.99
-0.61
-0.33
-0.24
-0.36
-0.60
-0.80
-0.82
-0.60
-0.14
0.40
0.81
0.89
0.60
0.07
-0.45
-0.73
-0.65
-0.29
0.15
0.51
0.70
0.75
0.75
0.78
0.92
1.16
1.42
1.57
1.48
1.08
0.45
-0.23
-0.73
-0.89
-0.64
-0.09
0.58
1.21
1.66
1.87
1.79
1.43
0.82
0.10
-0.55
-0.94
-1.00
-0.77
-0.43
-0.09
0.15
0.28
0.31
0.22
0.00
-0.37
-0.87
-1.40
-1.79
-1.93
-1.77
-1.36
-0.84
-0.32
0.09
0.30
0.32
0.14
-0.17
-0.50
-0.72
-0.73
-0.53
-0.19
0.15
0.37
0.42
0.35
0.26
0.22
0.23
0.26
0.27
0.27
0.31
0.43
0.64
0.88
1.07
1.18
1.20
1.17
1.12
1.03
0.87
0.62
0.34
0.11
0.03
0.12
0.32
0.52
0.59
0.48
0.20
-0.19
-0.61
-1.00
-1.31
-1.47
-1.44
-1.14
-0.55
0.24
1.10
1.78
2.13
2.09
1.71
1.11
0.48
-0.04
-0.30
-0.24
0.10
0.59
1.03
1.23
1.10
0.68
0.06
-0.61
-1.26
-1.86
-2.41
-2.94
-3.36
-3.59
-3.54
-3.20
-2.63
-1.91
-1.16
-0.49
0.04
0.40
0.62
0.72
0.70
0.57
0.27
-0.16
-0.69
-1.15
-1.43
-1.45
-1.21
-0.81
-0.42
-0.16
-0.11
-0.23
-0.41
-0.55
-0.56
-0.43
-0.18
0.11
0.36
0.52
0.57
0.52
0.37
0.17
-0.04
-0.17
-0.09
0.26
0.87
1.61
2.26
2.63
2.58
2.14
1.48
0.81
0.35
0.17
0.31
0.69
1.18
1.66
1.95
1.92
1.50
0.81
0.05
-0.52
-0.74
-0.62
-0.31
-0.05
0.04
-0.10
-0.37
-0.70
-0.98
-1.15
-1.18
-1.05
-0.80
-0.49
-0.22
-0.05
0.02
0.08
0.21
0.46
0.80
1.12
1.34
1.39
1.24
0.91
0.45
-0.06
-0.53
-0.85
-0.98
-0.93
-0.79
-0.65
-0.57
-0.52
-0.46
-0.31
-0.07
0.19
0.39
0.47
0.40
0.20
-0.10
-0.47
-0.84
-1.14
-1.31
-1.33
-1.24
-1.11
-1.02
-0.96
-0.92
-0.81
-0.61
-0.37
-0.11
0.11
0.41
0.89
1.61
2.44
3.03
3.05
2.32
1.03
-0.40
-1.42
-1.65
-1.06
0.03
1.13
1.79
1.82
1.33
0.61
0.00
-0.30
-0.31
-0.18
-0.11
-0.18
-0.37
-0.53
-0.57
-0.47
-0.31
-0.20
-0.16
-0.19
-0.24
-0.25
-0.21
-0.13
-0.01
0.14
0.26
0.22
-0.04
-0.54
-1.11
-1.54
-1.64
-1.39
-0.91
-0.41
-0.04
0.13
0.16
0.05
-0.18
-0.59
-1.18
-1.88
-2.50
-2.85
-2.76
-2.21
-1.28
-0.11
1.09
2.12
2.80
3.03
2.80
2.24
1.53
0.86
0.35
0.03
-0.09
-0.03
0.18
0.53
0.93
1.29
1.53
1.63
1.63
1.59
1.53
1.43
1.20
0.78
0.19
-0.49
-1.12
-1.60
-1.86
-1.90
-1.74
-1.44
-1.11
-0.90
-0.87
-1.02
-1.22
-1.30
-1.14
-0.77
-0.33
-0.02
0.03
-0.17
-0.48
-0.71
-0.72
-0.44
0.06
0.66
1.21
1.59
1.77
1.78
1.64
1.44
1.16
0.88
0.62
0.45
0.44
0.61
0.87
1.05
0.96
0.52
-0.18
-0.87
-1.31
-1.35
-1.05
-0.61
-0.26
-0.13
-0.24
-0.47
-0.65
-0.67
-0.49
-0.18
0.11
0.20
0.01
-0.45
-1.01
-1.49
-1.76
-1.79
-1.67
-1.51
-1.38
-1.22
-0.94
-0.53
-0.07
0.29
0.40
0.30
0.13
0.13
0.42
1.04
1.82
2.57
3.08
3.25
3.09
2.71
2.26
1.88
1.61
1.38
1.11
0.74
0.30
-0.08
-0.25
-0.15
0.04
0.05
-0.40
-1.38
-2.64
-3.80
-4.44
-4.37
-3.64
-2.54
-1.37
-0.33
0.48
1.08
1.49
1.69
1.63
1.31
0.82
0.30
-0.09
-0.25
-0.15
0.13
0.52
0.95
1.34
1.65
1.82
1.83
1.68
1.45
1.24
1.12
1.10
1.10
1.01
0.70
0.14
-0.63
-1.50
-2.34
-3.04
-3.52
-3.70
-3.54
-3.06
-2.32
-1.42
-0.50
0.29
0.84
1.12
1.11
0.89
0.53
0.13
-0.25
-0.53
-0.67
-0.64
-0.41
-0.04
0.42
0.85
1.13
1.18
0.96
0.56
0.12
-0.24
-0.43
-0.50
-0.48
-0.42
-0.33
-0.16
0.18
0.74
1.49
2.32
3.01
3.34
3.11
2.32
1.08
-0.32
-1.56
-2.37
-2.65
-2.48
-2.05
-1.56
-1.20
-0.98
-0.89
-0.87
-0.90
-0.95
-1.00
-0.99
-0.88
-0.60
-0.10
0.59
1.37
2.05
2.44
2.46
2.14
1.66
1.22
0.95
0.84
0.78
0.66
0.46
0.26
0.17
0.19
0.22
0.07
-0.38
-1.06
-1.73
-2.14
-2.14
-1.81
-1.38
-1.09
-0.97
-0.90
-0.66
-0.13
0.61
1.33
1.74
1.66
1.14
0.37
-0.37
-0.92
-1.22
-1.30
-1.25
-1.09
-0.86
-0.54
-0.20
0.08
0.22
0.16
-0.06
-0.34
-0.54
-0.56
-0.32
0.12
0.68
1.17
1.46
1.46
1.18
0.72
0.20
-0.26
-0.57
-0.67
-0.56
-0.27
0.11
0.45
0.61
0.51
0.19
-0.14
-0.28
-0.04
0.59
1.41
2.12
2.46
2.35
1.85
1.19
0.62
0.25
0.10
0.04
-0.11
-0.47
-1.09
-1.85
-2.58
-3.08
-3.23
-2.98
-2.40
-1.64
-0.88
-0.32
-0.12
-0.35
-0.92
-1.57
-1.96
-1.86
-1.22
-0.24
0.75
1.46
1.77
1.79
1.77
1.88
2.12
2.30
2.23
1.80
1.10
0.34
-0.24
-0.51
-0.50
-0.36
-0.24
-0.24
-0.31
-0.40
-0.43
-0.37
-0.27
-0.16
-0.09
-0.04
0.03
0.16
0.36
0.57
0.71
0.66
0.40
-0.06
-0.56
-0.98
-1.17
-1.10
-0.76
-0.20
0.54
1.34
2.07
2.57
2.62
2.15
1.21
0.02
-1.11
-1.89
-2.11
-1.82
-1.15
-0.35
0.37
0.89
1.19
1.32
1.35
1.33
1.27
1.18
1.03
0.84
0.65
0.48
0.34
0.19
0.02
-0.16
-0.32
-0.44
-0.51
-0.60
-0.77
-1.04
-1.36
-1.58
-1.61
-1.39
-1.01
-0.62
-0.33
-0.20
-0.21
-0.30
-0.43
-0.61
-0.81
-0.91
-0.82
-0.45
0.10
0.62
0.90
0.86
0.60
0.33
0.29
0.51
0.92
1.27
1.36
1.16
0.79
0.51
0.46
0.66
0.91
0.99
0.72
0.14
-0.61
-1.27
-1.63
-1.59
-1.20
-0.66
-0.14
0.20
0.26
0.07
-0.36
-0.89
-1.45
-1.90
-2.17
-2.20
-2.00
-1.57
-0.94
-0.24
0.43
0.91
1.15
1.19
1.11
1.02
0.92
0.78
0.54
0.18
-0.25
-0.59
-0.70
-0.48
-0.03
0.51
0.89
0.96
0.72
0.27
-0.22
-0.55
-0.63
-0.40
0.05
0.60
1.07
1.30
1.17
0.71
0.05
-0.60
-1.03
-1.14
-0.92
-0.49
-0.03
0.30
0.42
0.33
0.12
-0.17
-0.47
-0.75
-0.96
-1.01
-0.80
-0.31
0.39
1.12
1.67
1.88
1.72
1.29
0.72
0.12
-0.43
-0.86
-1.07
-0.98
-0.60
-0.10
0.29
0.38
0.15
-0.19
-0.36
-0.16
0.41
1.10
1.62
1.77
1.51
1.02
0.47
0.08
-0.13
-0.18
-0.21
-0.34
-0.61
-0.96
-1.26
-1.36
-1.20
-0.84
-0.45
-0.18
-0.07
-0.09
-0.11
-0.08
-0.03
-0.02
-0.11
-0.27
-0.37
-0.36
-0.24
-0.11
-0.06
-0.12
-0.20
-0.20
-0.05
0.23
0.49
0.63
0.58
0.39
0.19
0.07
0.10
0.23
0.39
0.49
0.52
0.48
0.45
0.45
0.52
0.63
0.73
0.79
0.74
0.59
0.36
0.07
-0.21
-0.44
-0.62
-0.75
-0.81
-0.82
-0.70
-0.40
0.06
0.61
1.05
1.15
0.78
-0.04
-1.07
-1.99
-2.54
-2.59
-2.25
-1.73
-1.28
-1.04
-1.00
-1.06
-1.09
-1.02
-0.79
-0.45
-0.04
0.39
0.78
1.11
1.36
1.51
1.53
1.41
1.14
0.75
0.33
0.01
-0.14
-0.10
0.04
0.16
0.19
0.16
0.14
0.21
0.34
0.52
0.68
0.81
0.95
1.10
1.26
1.34
1.26
1.02
0.69
0.34
-0.00
-0.37
-0.81
-1.31
-1.72
-1.90
-1.76
-1.38
-0.90
-0.45
-0.08
0.22
0.41
0.38
0.00
-0.70
-1.52
-2.12
-2.18
-1.64
-0.77
0.06
0.54
0.59
0.42
0.25
0.27
0.45
0.64
0.71
0.63
0.44
0.18
-0.13
-0.48
-0.85
-1.10
-1.03
-0.52
0.37
1.40
2.20
2.52
2.26
1.55
0.65
-0.15
-0.67
-0.80
-0.54
-0.00
0.69
1.31
1.67
1.58
1.06
0.25
-0.55
-1.09
-1.24
-1.03
-0.64
-0.26
-0.02
0.03
-0.05
-0.18
-0.28
-0.31
-0.27
-0.24
-0.32
-0.53
-0.82
-1.07
-1.11
-0.87
-0.39
0.16
0.55
0.63
0.43
0.11
-0.08
0.03
0.43
0.95
1.31
1.28
0.81
0.01
-0.85
-1.48
-1.68
-1.42
-0.84
-0.14
0.44
0.81
0.98
1.07
1.17
1.33
1.44
1.37
1.03
0.46
-0.16
-0.60
-0.71
-0.56
-0.35
-0.34
-0.63
-1.14
-1.62
-1.83
-1.69
-1.33
-0.99
-0.80
-0.73
-0.59
-0.17
0.53
1.34
1.94
2.09
1.75
1.07
0.34
-0.22
-0.50
-0.52
-0.40
-0.26
-0.12
0.07
0.42
1.01
1.78
2.56
3.04
2.97
2.27
1.15
0.02
-0.73
-0.84
-0.42
0.23
0.73
0.83
0.57
0.13
-0.24
-0.38
-0.27
-0.04
0.11
0.01
-0.35
-0.87
-1.34
-1.57
-1.48
-1.16
-0.84
-0.73
-0.93
-1.34
-1.76
-1.97
-1.94
-1.73
-1.48
-1.28
-1.08
-0.77
-0.28
0.33
0.87
1.10
0.87
0.23
-0.58
-1.20
-1.39
-1.04
-0.29
0.58
1.27
1.59
1.51
1.08
0.45
-0.24
-0.84
-1.19
-1.15
-0.61
0.35
1.47
2.39
2.78
2.52
1.79
0.91
0.22
-0.08
0.01
0.32
0.66
0.89
0.91
0.69
0.24
-0.34
-0.89
-1.22
-1.21
-0.88
-0.43
-0.10
-0.02
-0.18
-0.41
-0.53
-0.46
-0.24
0.02
0.23
0.35
0.40
0.40
0.36
0.23
-0.01
-0.32
-0.55
-0.57
-0.26
0.32
1.01
1.56
1.74
1.45
0.75
-0.13
-0.88
-1.28
-1.26
-0.94
-0.53
-0.22
-0.07
-0.07
-0.12
-0.13
-0.09
-0.05
-0.08
-0.26
-0.59
-1.04
-1.49
-1.82
-1.92
-1.72
-1.25
-0.64
-0.08
0.23
0.27
0.12
-0.01
0.03
0.27
0.56
0.68
0.56
0.24
-0.03
-0.03
0.30
0.83
1.30
1.48
1.33
0.94
0.48
0.07
-0.27
-0.52
-0.66
-0.60
-0.22
0.47
1.30
2.02
2.35
2.15
1.50
0.63
-0.21
-0.84
-1.20
-1.36
-1.39
-1.29
-1.05
-0.66
-0.22
0.11
0.17
-0.08
-0.51
-0.88
-1.01
-0.85
-0.52
-0.20
0.04
0.24
0.53
0.95
1.42
1.73
1.75
1.48
1.05
0.65
0.39
0.25
0.10
-0.22
-0.75
-1.38
-1.86
-1.97
-1.61
-0.86
0.04
0.77
1.12
1.03
0.60
0.04
-0.44
-0.79
-1.00
-1.18
-1.36
-1.49
-1.48
-1.23
-0.72
-0.02
0.73
1.35
1.70
1.71
1.47
1.13
0.83
0.67
0.63
0.62
0.59
0.54
0.55
0.68
0.90
1.05
0.95
0.45
-0.41
-1.37
-2.10
-2.33
-2.04
-1.40
-0.73
-0.32
-0.25
-0.40
-0.57
-0.61
-0.49
-0.33
-0.26
-0.31
-0.37
-0.28
0.06
0.59
1.13
1.43
1.36
0.95
0.42
0.04
0.02
0.41
1.05
1.67
1.97
1.77
1.07
0.04
-1.07
-1.98
-2.47
-2.46
-1.99
-1.20
-0.35
0.32
0.65
0.62
0.34
0.01
-0.16
-0.12
0.10
0.35
0.46
0.39
0.17
-0.05
-0.15
-0.09
0.09
0.29
0.37
0.29
0.05
-0.26
-0.57
-0.84
-1.03
-1.10
-0.98
-0.62
-0.01
0.71
1.30
1.53
1.26
0.64
-0.09
-0.62
-0.78
-0.56
-0.11
0.35
0.68
0.79
0.69
0.43
0.09
-0.23
-0.44
-0.44
-0.21
0.18
0.58
0.81
0.77
0.48
-0.02
-0.56
-1.02
-1.34
-1.48
-1.47
-1.34
-1.15
-0.87
-0.53
-0.17
0.15
0.33
0.27
-0.04
-0.48
-0.84
-0.90
-0.51
0.27
1.23
2.05
2.48
2.46
2.04
1.40
0.69
0.03
-0.56
-1.06
-1.47
-1.71
-1.74
-1.57
-1.20
-0.75
-0.31
-0.00
0.13
0.10
0.02
0.02
0.19
0.52
0.88
1.13
1.14
0.90
0.45
-0.08
-0.59
-1.00
-1.25
-1.31
-1.18
-0.90
-0.47
0.01
0.44
0.75
0.82
0.59
0.10
-0.53
-1.10
-1.41
-1.35
-0.97
-0.43
0.10
0.56
0.97
1.43
1.94
2.42
2.68
2.54
1.94
0.99
-0.06
-0.94
-1.42
-1.47
-1.19
-0.78
-0.42
-0.16
-0.00
0.17
0.37
0.56
0.68
0.69
0.64
0.61
0.69
0.88
1.12
1.34
1.52
1.64
1.72
1.74
1.63
1.33
0.86
0.32
-0.19
-0.55
-0.75
-0.79
-0.72
-0.53
-0.22
0.16
0.55
0.84
0.97
0.92
0.71
0.32
-0.26
-1.03
-1.88
-2.66
-3.17
-3.24
-2.86
-2.12
-1.25
-0.44
0.19
0.57
0.72
0.64
0.38
-0.06
-0.59
-1.09
-1.45
-1.58
-1.46
-1.11
-0.62
-0.11
0.29
0.52
0.62
0.65
0.72
0.84
0.94
0.92
0.66
0.09
-0.68
-1.51
-2.14
-2.36
-2.08
-1.39
-0.51
0.25
0.68
0.71
0.40
-0.06
-0.52
-0.85
-1.00
-0.94
-0.66
-0.19
0.38
0.85
1.07
0.97
0.66
0.37
0.33
0.58
1.02
1.46
1.72
1.77
1.63
1.41
1.15
0.89
0.62
0.37
0.21
0.22
0.45
0.86
1.33
1.67
1.72
1.47
1.00
0.54
0.26
0.26
0.46
0.67
0.70
0.48
0.09
-0.30
-0.54
-0.63
-0.63
-0.65
-0.76
-0.88
-0.91
-0.73
-0.35
0.09
0.35
0.24
-0.33
-1.27
-2.32
-3.19
-3.65
-3.61
-3.13
-2.39
-1.59
-0.86
-0.23
0.33
0.86
1.30
1.57
1.57
1.30
0.87
0.43
0.10
-0.09
-0.21
-0.36
-0.54
-0.68
-0.66
-0.38
0.11
0.64
0.99
0.99
0.68
0.20
-0.21
-0.43
-0.46
-0.34
-0.17
-0.01
0.11
0.15
0.11
-0.07
-0.38
-0.76
-1.07
-1.12
-0.81
-0.19
0.49
0.90
0.86
0.45
-0.03
-0.26
-0.13
0.17
0.28
-0.01
-0.62
-1.16
-1.24
-0.74
0.07
0.69
0.82
0.49
0.04
-0.14
0.09
0.56
0.96
1.08
0.96
0.77
0.69
0.76
0.79
0.58
0.06
-0.69
-1.38
-1.70
-1.50
-0.85
0.01
0.77
1.26
1.46
1.48
1.40
1.24
0.95
0.52
0.10
-0.07
0.26
1.14
2.30
3.33
3.79
3.47
2.52
1.34
0.34
-0.21
-0.30
-0.17
-0.09
-0.24
-0.60
-0.99
-1.22
-1.23
-1.12
-1.06
-1.18
-1.45
-1.75
-1.94
-1.96
-1.87
-1.76
-1.70
-1.69
-1.68
-1.65
-1.61
-1.56
-1.49
-1.31
-0.98
-0.53
-0.09
0.17
0.16
-0.08
-0.36
-0.42
-0.09
0.59
1.43
2.13
2.45
2.30
1.78
1.14
0.60
0.28
0.15
0.09
-0.00
-0.19
-0.38
-0.43
-0.23
0.20
0.73
1.11
1.17
0.86
0.27
-0.38
-0.86
-1.00
-0.77
-0.22
0.48
1.14
1.56
1.67
1.52
1.24
0.98
0.83
0.74
0.60
0.26
-0.30
-1.03
-1.81
-2.49
-2.93
-2.99
-2.64
-1.87
-0.83
0.26
1.15
1.61
1.62
1.28
0.78
0.29
-0.07
-0.23
-0.17
0.15
0.67
1.24
1.65
1.75
1.49
0.98
0.46
0.11
-0.00
0.06
0.14
0.13
-0.03
-0.31
-0.66
-1.03
-1.42
-1.74
-1.92
-1.88
-1.61
-1.20
-0.78
-0.50
-0.36
-0.31
-0.23
-0.01
0.36
0.75
1.00
0.95
0.57
-0.05
-0.72
-1.27
-1.55
-1.52
-1.15
-0.48
0.42
1.36
2.11
2.43
2.19
1.47
0.52
-0.32
-0.80
-0.85
-0.55
-0.08
0.42
0.82
1.06
1.07
0.78
0.22
-0.53
-1.24
-1.68
-1.71
-1.32
-0.67
0.06
0.68
1.10
1.31
1.35
1.27
1.10
0.83
0.50
0.16
-0.07
-0.14
-0.06
0.04
0.04
-0.13
-0.40
-0.58
-0.48
-0.05
0.58
1.13
1.35
1.15
0.65
0.07
-0.37
-0.59
-0.67
-0.80
-1.07
-1.47
-1.80
-1.92
-1.74
-1.34
-0.93
-0.69
-0.72
-0.94
-1.19
-1.35
-1.33
-1.15
-0.91
-0.70
-0.60
-0.60
-0.63
-0.60
-0.44
-0.14
0.21
0.46
0.53
0.40
0.16
-0.05
-0.13
-0.08
0.02
0.14
0.31
0.59
1.01
1.50
1.90
2.10
2.02
1.71
1.25
0.65
-0.02
-0.66
-1.10
-1.16
-0.78
-0.07
0.70
1.26
1.45
1.30
0.94
0.56
0.23
0.03
-0.05
-0.03
0.12
0.34
0.60
0.85
1.04
1.13
1.06
0.80
0.38
-0.03
-0.26
-0.17
0.22
0.68
1.01
1.06
0.88
0.62
0.45
0.39
0.34
0.17
-0.17
-0.64
-1.10
-1.47
-1.72
-1.93
-2.13
-2.28
-2.27
-2.01
-1.48
-0.80
-0.21
0.06
-0.10
-0.60
-1.20
-1.57
-1.51
-0.97
-0.08
0.86
1.59
1.91
1.81
1.37
0.73
0.05
-0.52
-0.83
-0.81
-0.47
0.00
0.42
0.58
0.46
0.15
-0.22
-0.48
-0.57
-0.51
-0.40
-0.25
-0.12
0.01
0.12
0.16
0.05
-0.20
-0.51
-0.74
-0.76
-0.54
-0.09
0.47
1.03
1.48
1.72
1.67
1.30
0.66
-0.11
-0.80
-1.25
-1.33
-1.09
-0.64
-0.11
0.42
0.92
1.34
1.64
1.68
1.40
0.84
0.19
-0.33
-0.52
-0.33
0.12
0.68
1.21
1.67
2.07
2.35
2.41
2.11
1.38
0.34
-0.71
-1.49
-1.81
-1.70
-1.45
-1.35
-1.57
-2.06
-2.57
-2.80
-2.59
-1.96
-1.10
-0.25
0.41
0.85
1.15
1.47
1.88
2.34
2.69
2.75
2.43
1.73
0.82
-0.09
-0.77
-1.10
-1.11
-0.96
-0.83
-0.85
-1.04
-1.25
-1.33
-1.18
-0.81
-0.34
0.13
0.51
0.83
1.15
1.47
1.71
1.79
1.65
1.28
0.78
0.22
-0.34
-0.89
-1.41
-1.82
-1.98
-1.79
-1.24
-0.45
0.32
0.82
0.87
0.51
-0.13
-0.78
-1.21
-1.29
-1.05
-0.65
-0.31
-0.15
-0.21
-0.36
-0.46
-0.37
-0.11
0.22
0.41
0.36
0.06
-0.36
-0.69
-0.81
-0.71
-0.49
-0.29
-0.20
-0.24
-0.39
-0.56
-0.68
-0.67
-0.49
-0.15
0.30
0.77
1.13
1.24
1.07
0.68
0.26
0.04
0.17
0.65
1.30
1.81
1.92
1.55
0.81
0.02
-0.48
-0.52
-0.15
0.36
0.70
0.70
0.42
0.07
-0.12
-0.02
0.28
0.59
0.73
0.62
0.39
0.21
0.24
0.46
0.72
0.81
0.59
0.09
-0.50
-0.95
-1.07
-0.89
-0.59
-0.40
-0.46
-0.75
-1.11
-1.34
-1.34
-1.14
-0.86
-0.65
-0.54
-0.52
-0.54
-0.54
-0.51
-0.45
-0.37
-0.21
0.01
0.29
0.60
0.88
1.09
1.18
1.14
0.96
0.62
0.16
-0.41
-1.00
-1.52
-1.88
-1.99
-1.84
-1.42
-0.78
0.02
0.89
1.71
2.31
2.55
2.39
1.93
1.35
0.90
0.74
0.88
1.23
1.57
1.78
1.73
1.40
0.83
0.10
-0.65
-1.26
-1.64
-1.77
-1.81
-1.90
-2.15
-2.51
-2.80
-2.81
-2.47
-1.80
-0.99
-0.23
0.37
0.80
1.10
1.30
1.42
1.39
1.22
0.93
0.59
0.30
0.12
0.11
0.27
0.55
0.88
1.11
1.13
0.87
0.37
-0.24
-0.78
-1.09
-1.18
-1.11
-0.99
-0.87
-0.71
-0.43
-0.01
0.45
0.76
0.80
0.58
0.24
-0.06
-0.26
-0.42
-0.65
-0.94
-1.15
-1.08
-0.62
0.14
0.97
1.56
1.78
1.66
1.35
0.99
0.64
0.24
-0.22
-0.70
-1.04
-1.12
-0.89
-0.43
0.05
0.37
0.42
0.20
-0.14
-0.46
-0.64
-0.64
-0.56
-0.48
-0.48
-0.57
-0.69
-0.75
-0.68
-0.46
-0.17
0.06
0.08
-0.14
-0.57
-1.02
-1.27
-1.19
-0.75
-0.07
0.64
1.23
1.63
1.86
1.99
2.08
2.16
2.20
2.16
1.96
1.53
0.91
0.18
-0.46
-0.83
-0.90
-0.74
-0.53
-0.43
-0.48
-0.62
-0.76
-0.82
-0.79
-0.70
-0.53
-0.25
0.13
0.55
0.86
0.91
0.66
0.21
-0.26
-0.57
-0.71
-0.68
-0.57
-0.46
-0.39
-0.40
-0.56
-0.89
-1.32
-1.71
-1.83
-1.53
-0.85
-0.02
0.62
0.79
0.41
-0.28
-0.93
-1.19
-0.88
-0.12
0.79
1.52
1.84
1.75
1.44
1.12
0.97
0.97
1.04
0.98
0.73
0.28
-0.22
-0.60
-0.74
-0.62
-0.38
-0.15
-0.01
0.06
0.17
0.35
0.55
0.61
0.36
-0.21
-0.93
-1.47
-1.55
-1.12
-0.33
0.46
0.93
0.96
0.63
0.14
-0.36
-0.77
-1.13
-1.41
-1.62
-1.69
-1.59
-1.33
-0.93
-0.47
0.04
0.53
0.96
1.21
1.21
0.95
0.55
0.22
0.13
0.38
0.91
1.53
2.03
2.29
2.27
2.02
1.64
1.23
0.85
0.52
0.24
-0.03
-0.29
-0.51
-0.63
-0.56
-0.32
-0.01
0.18
0.09
-0.31
-0.91
-1.48
-1.85
-1.95
-1.88
-1.76
-1.66
-1.59
-1.39
-1.04
-0.54
-0.04
0.31
0.46
0.48
0.49
0.58
0.77
0.99
1.17
1.27
1.28
1.19
0.98
0.62
0.15
-0.34
-0.75
-0.97
-1.00
-0.92
-0.84
-0.81
-0.80
-0.70
-0.45
-0.06
0.36
0.70
0.92
1.05
1.18
1.31
1.38
1.25
0.81
0.14
-0.54
-0.93
-0.88
-0.41
0.21
0.66
0.76
0.57
0.31
0.20
0.32
0.53
0.59
0.35
-0.23
-0.94
-1.53
-1.80
-1.70
-1.36
-0.99
-0.73
-0.60
-0.48
-0.26
0.11
0.53
0.83
0.91
0.77
0.55
0.39
0.38
0.49
0.56
0.44
0.09
-0.43
-0.92
-1.19
-1.16
-0.86
-0.42
-0.05
0.09
-0.04
-0.42
-0.89
-1.27
-1.43
-1.35
-1.10
-0.80
-0.49
-0.12
0.39
1.06
1.78
2.31
2.40
1.97
1.14
0.25
-0.34
-0.42
-0.05
0.49
0.91
1.06
0.98
0.86
0.86
0.94
0.98
0.83
0.47
0.03
-0.28
-0.27
0.03
0.49
0.86
0.94
0.67
0.07
-0.72
-1.51
-2.12
-2.37
-2.15
-1.45
-0.49
0.46
1.05
1.15
0.85
0.40
0.10
0.07
0.22
0.35
0.26
-0.07
-0.50
-0.81
-0.86
-0.71
-0.48
-0.37
-0.42
-0.58
-0.77
-0.94
-1.13
-1.39
-1.72
-1.99
-2.03
-1.70
-1.00
-0.12
0.67
1.17
1.26
1.06
0.73
0.42
0.23
0.14
0.14
0.20
0.34
0.53
0.75
0.88
0.86
0.66
0.36
0.07
-0.09
-0.12
-0.07
-0.07
-0.19
-0.45
-0.77
-0.99
-0.99
-0.67
-0.04
0.77
1.52
1.96
1.92
1.43
0.65
-0.10
-0.53
-0.49
-0.03
0.64
1.23
1.53
1.44
1.05
0.55
0.11
-0.14
-0.18
-0.08
0.04
0.12
0.13
0.07
-0.02
-0.13
-0.27
-0.43
-0.61
-0.74
-0.77
-0.58
-0.13
0.56
1.29
1.78
1.77
1.17
0.12
-1.05
-1.96
-2.40
-2.34
-1.94
-1.44
-0.99
-0.67
-0.44
-0.27
-0.13
-0.04
0.00
0.05
0.18
0.47
0.90
1.35
1.67
1.66
1.25
0.55
-0.22
-0.81
-1.05
-0.91
-0.53
-0.08
0.30
0.54
0.66
0.67
0.60
0.50
0.44
0.49
0.63
0.77
0.75
0.49
-0.00
-0.56
-0.99
-1.20
-1.24
-1.22
-1.25
-1.29
-1.23
-0.92
-0.33
0.41
1.05
1.38
1.29
0.87
0.32
-0.13
-0.37
-0.39
-0.30
-0.26
-0.38
-0.69
-1.13
-1.56
-1.84
-1.88
-1.68
-1.29
-0.80
-0.19
0.50
1.22
1.84
2.17
2.08
1.58
0.82
0.04
-0.49
-0.70
-0.63
-0.45
-0.36
-0.45
-0.74
-1.10
-1.36
-1.41
-1.23
-0.87
-0.44
-0.06
0.22
0.40
0.54
0.69
0.87
1.06
1.20
1.23
1.09
0.77
0.29
-0.26
-0.77
-1.13
-1.24
-1.08
-0.71
-0.25
0.24
0.67
1.02
1.28
1.41
1.39
1.20
0.92
0.59
0.32
0.16
0.11
0.13
0.23
0.43
0.77
1.22
1.67
1.95
1.86
1.39
0.68
0.02
-0.32
-0.25
0.11
0.48
0.58
0.28
-0.39
-1.18
-1.80
-2.03
-1.84
-1.39
-0.89
-0.56
-0.43
-0.42
-0.37
-0.24
-0.09
-0.10
-0.41
-1.01
-1.61
-1.79
-1.30
-0.18
1.15
2.15
2.38
1.79
0.73
-0.31
-0.86
-0.81
-0.30
0.31
0.74
0.88
0.80
0.63
0.43
0.17
-0.16
-0.54
-0.90
-1.14
-1.24
-1.22
-1.17
-1.12
-1.06
-0.90
-0.55
-0.05
0.45
0.77
0.74
0.39
-0.14
-0.59
-0.79
-0.71
-0.45
-0.17
0.00
0.04
-0.01
-0.04
0.01
0.15
0.34
0.51
0.62
0.68
0.70
0.68
0.63
0.53
0.36
0.18
0.03
0.02
0.18
0.47
0.77
0.93
0.89
0.71
0.53
0.48
0.52
0.51
0.30
-0.13
-0.55
-0.70
-0.42
0.18
0.72
0.83
0.33
-0.60
-1.53
-2.03
-1.88
-1.22
-0.35
0.37
0.76
0.84
0.76
0.60
0.35
-0.11
-0.83
-1.67
-2.37
-2.57
-2.11
-1.06
0.23
1.33
1.95
2.01
1.69
1.23
0.84
0.59
0.44
0.33
0.24
0.22
0.31
0.46
0.56
0.45
0.05
-0.61
-1.39
-2.02
-2.31
-2.14
-1.61
-0.91
-0.32
-0.02
-0.05
-0.29
-0.57
-0.72
-0.70
-0.61
-0.58
-0.68
-0.87
-0.97
-0.82
-0.38
0.20
0.70
0.93
0.87
0.68
0.58
0.76
1.26
1.95
2.58
2.96
3.01
2.76
2.35
1.89
1.39
0.79
0.04
-0.79
-1.54
-1.98
-2.03
-1.75
-1.32
-0.95
-0.74
-0.62
-0.43
-0.07
0.42
0.90
1.19
1.22
1.05
0.84
0.66
0.50
0.27
-0.07
-0.43
-0.66
-0.59
-0.25
0.18
0.43
0.32
-0.08
-0.52
-0.76
-0.70
-0.54
-0.53
-0.82
-1.28
-1.60
-1.47
-0.83
0.05
0.82
1.22
1.21
0.96
0.67
0.44
0.23
0.02
-0.14
-0.16
0.03
0.37
0.71
0.88
0.80
0.53
0.20
-0.11
-0.38
-0.65
-0.86
-0.93
-0.74
-0.28
0.31
0.76
0.84
0.51
-0.14
-0.82
-1.26
-1.32
-0.99
-0.39
0.29
0.87
1.21
1.24
0.96
0.44
-0.17
-0.66
-0.83
-0.61
-0.09
0.51
0.90
0.90
0.51
-0.12
-0.74
-1.17
-1.32
-1.24
-1.00
-0.72
-0.53
-0.51
-0.66
-0.84
-0.94
-0.89
-0.79
-0.79
-1.02
-1.40
-1.71
-1.64
-1.13
-0.35
0.33
0.65
0.56
0.30
0.17
0.33
0.70
1.07
1.27
1.33
1.38
1.50
1.67
1.74
1.58
1.18
0.68
0.27
0.10
0.17
0.34
0.39
0.21
-0.25
-0.82
-1.27
-1.39
-1.08
-0.43
0.34
0.98
1.32
1.32
1.08
0.71
0.21
-0.43
-1.24
-2.07
-2.62
-2.59
-1.83
-0.50
0.94
1.99
2.36
2.06
1.38
0.71
0.31
0.23
0.32
0.46
0.53
0.54
0.56
0.62
0.69
0.71
0.59
0.31
-0.05
-0.32
-0.42
-0.35
-0.22
-0.24
-0.52
-1.01
-1.53
-1.83
-1.76
-1.30
-0.60
0.15
0.76
1.09
1.12
0.86
0.42
-0.10
-0.53
-0.76
-0.70
-0.33
0.29
1.04
1.69
2.06
1.94
1.30
0.21
-1.07
-2.22
-2.93
-3.01
-2.43
-1.35
-0.03
1.17
1.94
2.11
1.69
0.86
-0.06
-0.81
-1.25
-1.42
-1.49
-1.56
-1.63
-1.52
-1.08
-0.25
0.77
1.65
2.06
1.88
1.23
0.51
0.07
0.07
0.41
0.81
0.96
0.77
0.36
-0.03
-0.24
-0.25
-0.22
-0.31
-0.55
-0.84
-0.92
-0.69
-0.18
0.33
0.51
0.18
-0.58
-1.46
-2.05
-2.06
-1.42
-0.36
0.76
1.58
1.87
1.65
1.11
0.55
0.20
0.20
0.47
0.87
1.20
1.31
1.14
0.73
0.16
-0.47
-1.09
-1.60
-1.91
-1.90
-1.47
-0.67
0.37
1.38
2.09
2.29
1.94
1.17
0.24
-0.61
-1.18
-1.42
-1.35
-1.09
-0.72
-0.33
0.08
0.47
0.84
1.11
1.22
1.10
0.78
0.38
0.05
-0.12
-0.11
-0.06
-0.09
-0.31
-0.68
-1.08
-1.31
-1.25
-0.86
-0.23
0.45
0.95
1.11
0.85
0.29
-0.36
-0.79
-0.76
-0.25
0.56
1.32
1.74
1.72
1.36
0.92
0.59
0.43
0.30
0.05
-0.43
-1.05
-1.62
-1.95
-1.96
-1.75
-1.49
-1.32
-1.29
-1.33
-1.36
-1.38
-1.49
-1.75
-2.12
-2.35
-2.15
-1.29
0.14
1.73
2.92
3.34
2.93
1.98
0.94
0.18
-0.25
-0.41
-0.49
-0.55
-0.56
-0.43
-0.08
0.47
1.17
1.93
2.61
3.03
3.00
2.41
1.33
0.02
-1.17
-1.96
-2.31
-2.30
-2.15
-1.95
-1.72
-1.41
-0.98
-0.50
-0.12
0.03
-0.13
-0.55
-1.10
-1.55
-1.76
-1.63
-1.22
-0.65
-0.04
0.53
1.07
1.63
2.19
2.64
2.82
2.60
1.96
1.04
0.10
-0.63
-0.97
-0.89
-0.45
0.21
0.90
1.52
2.03
2.44
2.75
2.91
2.80
2.26
1.25
-0.06
-1.29
-2.09
-2.26
-1.88
-1.26
-0.75
-0.58
-0.68
-0.87
-0.89
-0.69
-0.38
-0.21
-0.41
-0.99
-1.78
-2.46
-2.72
-2.48
-1.84
-1.09
-0.49
-0.17
-0.09
-0.08
0.02
0.23
0.43
0.47
0.27
-0.09
-0.43
-0.57
-0.43
-0.09
0.28
0.56
0.70
0.79
0.94
1.18
1.43
1.54
1.36
0.92
0.36
-0.11
-0.37
-0.43
-0.45
-0.55
-0.71
-0.83
-0.75
-0.45
-0.08
0.13
-0.01
-0.46
-1.04
-1.47
-1.57
-1.33
-0.90
-0.41
0.07
0.56
1.07
1.58
2.00
2.23
2.21
1.99
1.65
1.31
1.01
0.75
0.48
0.20
-0.03
-0.09
0.09
0.51
1.08
1.70
2.31
2.92
3.50
3.96
4.11
3.75
2.80
1.41
-0.08
-1.35
-2.19
-2.59
-2.71
-2.70
-2.66
-2.57
-2.33
-1.89
-1.26
-0.51
0.19
0.67
0.76
0.38
-0.42
-1.43
-2.34
-2.88
-2.91
-2.50
-1.83
-1.14
-0.64
-0.41
-0.47
-0.80
-1.30
-1.86
-2.30
-2.47
-2.28
-1.74
-0.99
-0.21
0.47
1.00
1.43
1.81
2.19
2.55
2.84
3.00
2.96
2.74
2.39
1.95
1.48
1.03
0.68
0.46
0.38
0.44
0.60
0.83
1.09
1.31
1.39
1.23
0.81
0.21
-0.43
-0.97
-1.30
-1.41
-1.34
-1.16
-0.94
-0.67
-0.37
-0.08
0.15
0.25
0.19
0.02
-0.14
-0.18
-0.04
0.23
0.52
0.67
0.62
0.37
-0.04
-0.49
-0.86
-1.05
-0.97
-0.61
-0.02
0.64
1.18
1.45
1.38
1.08
0.70
0.34
0.04
-0.30
-0.74
-1.29
-1.86
-2.33
-2.57
-2.53
-2.20
-1.66
-0.97
-0.20
0.60
1.38
2.05
2.57
2.90
3.07
3.13
3.17
3.24
3.35
3.43
3.41
3.22
2.83
2.29
1.72
1.26
1.02
1.04
1.23
1.47
1.63
1.63
1.52
1.37
1.28
1.22
1.11
0.83
0.34
-0.26
-0.75
-0.96
-0.82
-0.49
-0.19
-0.16
-0.47
-1.06
-1.73
-2.34
-2.77
-3.03
-3.16
-3.24
-3.35
-3.61
-4.11
-4.92
-5.99
-7.18
-8.29
-9.08
-9.38
-9.08
-8.22
-6.93
-5.44
-4.00
-2.83
-2.04
-1.65
-1.54
-1.55
-1.53
-1.38
-1.13
-0.83
-0.57
-0.43
-0.42
-0.48
-0.49
-0.33
0.09
0.71
1.35
1.85
2.09
2.10
2.03
2.02
2.18
2.47
2.90
3.45
4.15
4.94
5.69
6.15
6.11
5.56
4.66
3.70
2.88
2.28
1.80
1.25
0.56
-0.23
-1.00
-1.61
-2.03
-2.23
-2.24
-2.09
-1.84
-1.63
-1.65
-1.97
-2.51
-3.04
-3.27
-3.02
-2.31
-1.38
-0.49
0.16
0.52
0.67
0.73
0.83
0.98
1.12
1.16
1.08
0.90
0.73
0.71
0.85
1.00
0.92
0.46
-0.32
-1.08
-1.42
-1.09
-0.15
0.98
1.84
2.10
1.78
1.14
0.49
0.05
-0.09
0.01
0.32
0.82
1.51
2.29
3.01
3.49
3.65
3.55
3.38
3.35
3.57
4.01
4.52
4.94
5.19
5.26
5.20
5.10
4.96
4.75
4.48
4.15
3.86
3.65
3.49
3.26
2.88
2.31
1.65
1.10
0.83
0.95
1.48
2.24
3.05
3.69
3.99
3.91
3.48
2.79
1.93
0.98
0.03
-0.80
-1.40
-1.78
-2.04
-2.39
-3.08
-4.21
-5.65
-7.10
-8.17
-8.63
-8.47
-7.97
-7.54
-7.54
-8.10
-9.06
-10.07
-10.70
-10.61
-9.71
-8.19
-6.44
-4.93
-3.99
-3.72
-3.96
-4.38
-4.64
-4.50
-3.93
-3.10
-2.32
-1.90
-2.04
-2.71
-3.68
-4.61
-5.24
-5.50
-5.44
-5.23
-5.02
-4.82
-4.59
-4.23
-3.72
-3.12
-2.57
-2.17
-1.98
-1.93
-1.85
-1.62
-1.09
-0.23
0.87
2.07
3.19
4.18
5.07
5.99
6.97
7.92
8.66
8.98
8.79
8.21
7.44
6.70
6.10
5.61
5.21
4.81
4.38
3.89
3.36
2.78
2.19
1.60
0.96
0.23
-0.61
-1.47
-2.20
-2.67
-2.82
-2.71
-2.53
-2.41
-2.40
-2.47
-2.49
-2.41
-2.21
-1.95
-1.59
-1.09
-0.39
0.48
1.37
2.15
2.72
3.08
3.35
3.68
4.19
4.89
5.68
6.34
6.71
6.75
6.54
6.25
6.00
5.85
5.76
5.69
5.59
5.42
5.11
4.56
3.76
2.78
1.77
0.90
0.27
-0.12
-0.27
-0.21
0.03
0.37
0.66
0.66
0.28
-0.44
-1.26
-1.89
-2.17
-2.09
-1.77
-1.31
-0.84
-0.47
-0.32
-0.46
-0.86
-1.29
-1.43
-1.03
-0.11
1.08
2.14
2.75
2.80
2.36
1.67
0.95
0.35
-0.02
-0.18
-0.21
-0.25
-0.40
-0.69
-1.08
-1.49
-1.93
-2.39
-2.90
-3.38
-3.76
-3.94
-3.93
-3.81
-3.73
-3.76
-3.89
-4.01
-4.00
-3.82
-3.53
-3.21
-2.91
-2.63
-2.31
-1.99
-1.72
-1.57
-1.53
-1.50
-1.37
-1.04
-0.53
0.02
0.47
0.72
0.78
0.77
0.78
0.83
0.84
0.78
0.71
0.77
1.06
1.52
1.99
2.24
2.19
1.89
1.52
1.25
1.12
1.04
0.85
0.50
0.07
-0.24
-0.26
0.07
0.59
1.07
1.31
1.24
0.96
0.65
0.47
0.52
0.75
1.06
1.32
1.50
1.59
1.62
1.62
1.55
1.39
1.13
0.79
0.39
-0.03
-0.43
-0.77
-1.01
-1.16
-1.28
-1.41
-1.55
-1.66
-1.59
-1.26
-0.65
0.12
0.80
1.18
1.17
0.88
0.51
0.25
0.14
0.08
-0.08
-0.44
-0.93
-1.34
-1.48
-1.30
-0.97
-0.77
-0.93
-1.47
-2.20
-2.76
-2.88
-2.50
-1.81
-1.12
-0.69
-0.59
-0.70
-0.81
-0.74
-0.47
-0.12
0.10
0.04
-0.26
-0.65
-0.86
-0.76
-0.32
0.26
0.71
0.81
0.57
0.15
-0.12
-0.03
0.42
0.99
1.38
1.38
1.02
0.56
0.34
0.58
1.25
2.10
2.77
2.97
2.59
1.71
0.57
-0.55
-1.41
-1.91
-2.07
-2.00
-1.81
-1.58
-1.31
-1.03
-0.78
-0.67
-0.84
-1.36
-2.21
-3.22
-4.18
-4.93
-5.42
-5.77
-6.15
-6.72
-7.50
-8.38
-9.16
-9.70
-10.07
-10.53
-11.42
-12.96
-15.12
-17.59
-20.00
-22.08
-23.86
-25.65
-27.87
-30.78
-34.28
-38.04
-41.63
-44.87
-47.78
-50.71
-54.08
-58.18
-62.98
-68.07
-72.96
-77.34
-81.24
-84.98
-89.05
-93.89
-99.63
-105.94
-112.10
-117.14
-119.99
-119.50
-114.30
-103.04
-84.91
-60.01
-29.53
4.62
40.61
77.62
114.39
150.37
184.96
216.85
243.84
263.40
273.66
274.20
266.11
251.34
232.11
210.22
186.79
162.63
138.55
115.58
94.71
76.64
61.38
48.40
36.66
25.06
12.82
-0.19
-13.41
-25.83
-36.44
-44.71
-50.65
-54.78
-57.87
-60.48
-62.60
-63.63
-62.67
-59.00
-52.72
-44.67
-36.41
-29.60
-25.40
-23.96
-24.30
-24.75
-23.86
-20.99
-16.40
-11.14
-6.47
-3.38
-2.56
-4.34
-8.58
-13.92
-17.51
-14.93
-2.04
22.85
57.18
94.53
126.78
147.34
154.66
149.63
136.08
118.05
98.03
76.62
53.68
29.63
5.67
-15.51
-32.29
-44.24
-52.28
-57.95
-62.70
-67.04
-70.51
-72.14
-71.24
-67.72
-62.19
-55.89
-50.16
-45.94
-43.37
-41.89
-40.59
-38.52
-35.41
-31.44
-27.20
-23.37
-20.43
-18.45
-17.15
-16.04
-14.67
-12.90
-10.81
-8.66
-6.75
-5.28
-4.27
-3.62
-3.11
-2.58
-1.95
-1.26
-0.58
0.01
0.44
0.69
0.76
0.67
0.41
-0.03
-0.66
-1.51
-2.61
-3.95
-5.57
-7.49
-9.71
-12.29
-15.24
-18.60
-22.41
-26.68
-31.39
-36.51
-42.05
-47.99
-54.39
-61.33
-68.89
-77.15
-86.15
-95.83
-106.15
-117.10
-128.59
-140.69
-153.42
-166.76
-180.59
-194.62
-208.33
-221.10
-232.27
-240.99
-246.67
-248.62
-246.21
-238.80
-226.05
-207.21
-181.63
-149.04
-109.57
-64.27
-14.56
37.78
90.97
143.53
194.41
242.80
286.94
325.49
356.81
379.61
392.87
396.27
390.50
377.36
359.08
337.68
316.12
294.28
271.36
246.58
219.75
191.74
164.20
138.93
117.40
100.87
90.30
86.89
90.67
99.53
108.80
112.23
104.20
82.44
49.41
10.90
-24.33
-49.59
-62.65
-66.08
-64.64
-62.86
-63.58
-68.18
-77.71
-93.37
-116.78
-148.28
-185.06
-220.78
-247.22
-256.13
-244.83
-217.21
-181.87
-148.87
-125.44
-113.39
-109.35
-107.30
-101.80
-90.18
-72.98
-51.48
-26.90
0.11
29.23
59.60
89.23
115.27
134.32
143.85
142.93
132.25
113.36
88.70
60.58
30.60
-0.40
-32.08
-63.92
-94.79
-123.04
-146.91
-164.96
-176.59
-182.13
-182.70
-179.71
-174.34
-167.64
-159.58
-149.77
-137.97
-124.52
-110.43
-97.12
-86.00
-77.77
-72.09
-67.53
-62.16
-54.18
-42.72
-28.10
-11.73
4.64
19.76
33.62
47.57
63.58
83.15
106.36
131.39
155.03
173.98
186.21
192.00
193.76
195.05
199.11
207.74
220.90
236.90
252.70
264.38
267.80
259.37
237.28
202.56
159.34
113.87
72.35
38.41
11.53
-12.68
-40.12
-74.72
-115.68
-156.78
-188.49
-202.15
-193.99
-166.86
-128.87
-89.48
-55.55
-29.42
-10.54
1.44
3.93
-8.37
-40.01
-90.32
-150.87
-206.98
-242.93
-248.26
-221.94
-172.56
-114.58
-62.54
-26.12
-7.50
-1.98
-0.81
5.05
21.47
49.35
84.63
120.06
147.71
161.29
157.20
134.36
93.59
37.45
-29.09
-97.95
-158.37
-199.66
-214.82
-203.28
-171.29
-129.71
-90.12
-61.42
-47.99
-49.53
-62.24
-80.30
-97.19
-107.15
-106.59
-95.16
-75.62
-52.58
-30.41
-11.57
3.89
17.66
32.00
48.82
69.68
95.79
127.45
163.26
199.44
230.71
251.94
260.19
255.81
242.08
223.56
204.27
186.73
171.83
160.29
152.94
151.40
157.07
170.31
189.66
212.37
235.29
255.51
271.32
281.99
287.33
286.97
280.27
266.25
244.18
215.49
181.02
141.11
95.17
41.78
-20.18
-89.69
-162.44
-230.68
-284.85
-317.48
-325.42
-310.38
-277.60
-234.64
-188.51
-145.71
-111.93
-91.48
-86.02
-92.85
-104.89
-112.66
-108.43
-89.27
-59.04
-25.76
1.13
13.63
7.65
-16.13
-52.67
-94.29
-132.11
-159.63
-174.51
-179.34
-179.77
-181.50
-187.64
-197.98
-209.97
-220.47
-228.27
-232.73
-233.50
-229.74
-220.19
-204.02
-181.79
-155.83
-129.63
-107.02
-90.31
-80.17
-75.58
-74.48
-74.77
-75.13
-75.36
-76.04
-77.96
-81.21
-85.06
-88.16
-89.07
-87.00
-82.18
-75.78
-69.38
-64.26
-60.65
-57.78
-54.25
-48.58
-39.90
-28.20
-14.22
1.02
16.80
33.16
50.88
71.35
96.45
128.21
168.10
216.01
269.44
323.26
370.83
405.79
424.07
425.37
413.18
393.28
371.73
353.25
340.24
333.58
333.40
339.29
350.54
365.84
382.99
399.14
411.40
417.44
415.84
407.53
393.29
373.44
347.46
314.09
271.91
220.23
159.76
92.94
23.79
-43.18
-103.63
-153.82
-191.08
-214.08
-222.57
-217.00
-199.15
-171.27
-136.74
-99.94
-65.91
-39.84
-26.21
-27.83
-45.24
-76.59
-117.90
-164.24
-210.56
-252.67
-288.15
-316.90
-341.15
-364.35
-389.22
-415.55
-438.97
-451.52
-444.25
-411.15
-352.20
-274.27
-189.11
-109.51
-45.34
-1.35
22.85
31.20
28.89
20.67
10.13
-0.55
-10.81
-21.71
-35.33
-53.36
-75.17
-96.52
-109.79
-106.40
-80.63
-33.04
28.35
90.05
137.42
159.81
154.02
124.91
82.76
39.18
3.13
-21.29
-34.75
-41.01
-44.94
-51.15
-63.34
-83.72
-112.47
-146.71
-180.23
-204.49
-211.15
-194.91
-155.71
-99.10
-34.55
27.46
78.44
113.83
133.40
140.24
138.92
133.57
126.40
117.07
103.04
80.84
47.94
4.79
-44.21
-91.12
-126.47
-142.02
-133.24
-100.62
-49.40
11.87
73.38
126.20
163.69
182.44
182.68
168.14
144.94
119.21
94.57
70.91
45.41
15.17
-19.59
-54.63
-83.30
-99.84
-102.24
-92.80
-76.43
-57.79
-40.10
-24.89
-13.08
-5.60
-2.99
-4.02
-6.09
-7.44
-7.05
-5.00
-2.27
0.96
6.55
17.59
36.55
63.37
94.91
126.17
151.61
166.68
168.40
155.57
129.14
92.16
49.53
6.74
-31.64
-62.88
-85.88
-99.76
-102.89
-93.21
-70.38
-37.22
0.53
36.26
64.94
84.49
94.97
96.59
88.69
69.93
39.80
-0.03
-45.51
-91.16
-131.47
-161.83
-178.84
-180.36
-166.01
-137.30
-97.42
-50.67
-1.77
44.70
84.24
112.52
126.13
123.86
107.49
81.37
50.60
19.30
-10.26
-36.94
-59.67
-76.71
-86.65
-89.66
-87.99
-84.84
-81.95
-78.09
-69.62
-53.51
-30.31
-5.30
13.48
18.86
7.70
-17.96
-52.24
-87.76
-117.94
-137.88
-144.71
-137.18
-115.58
-81.62
-37.96
12.27
65.49
117.01
160.55
188.70
195.37
179.05
144.51
102.31
65.10
42.91
39.70
52.50
72.90
91.43
101.22
99.60
87.89
69.97
50.46
32.77
18.02
4.36
-11.67
-33.23
-61.48
-94.22
-126.73
-152.95
-167.83
-168.09
-155.16
-133.05
-107.02
-81.93
-60.50
-43.07
-27.84
-11.83
7.71
31.84
60.45
92.71
127.89
165.53
204.66
242.96
276.09
299.41
307.44
296.43
266.24
221.06
168.95
119.37
80.04
54.00
39.39
29.62
16.76
-4.74
-35.89
-73.36
-111.86
-146.98
-176.85
-202.00
-224.10
-244.02
-261.01
-273.67
-281.12
-283.92
-283.99
-283.75
-284.94
-287.93
-292.14
-295.27
-294.70
-288.58
-276.31
-258.46
-236.16
-210.34
-181.37
-149.04
-112.95
-73.35
-31.48
10.41
49.59
83.68
111.37
132.72
148.74
160.90
170.17
176.69
179.80
178.59
172.91
163.55
153.01
144.94
143.04
149.44
163.49
181.69
198.73
209.54
211.43
205.17
194.52
184.82
180.87
185.29
197.76
214.91
231.14
239.78
234.73
212.50
174.29
126.82
80.79
47.34
33.21
37.43
51.49
62.97
60.65
38.75
-1.23
-52.28
-105.22
-152.26
-188.64
-212.22
-222.19
-217.76
-198.39
-164.86
-120.60
-71.85
-26.56
8.03
27.88
33.72
30.82
26.69
27.66
35.96
48.92
60.65
65.47
60.68
47.30
29.07
10.01
-7.05
-20.54
-28.85
-29.79
-21.49
-4.71
15.55
31.00
34.17
23.32
4.58
-10.75
-12.65
1.56
25.83
49.00
61.33
59.71
47.90
32.59
18.37
5.08
-10.60
-31.31
-56.13
-81.12
-102.47
-119.67
-135.81
-154.58
-176.15
-195.18
-202.74
-191.38
-159.80
-114.37
-66.17
-25.52
3.11
21.94
36.97
53.15
70.85
86.08
93.64
90.89
79.67
65.00
51.59
41.06
31.32
18.76
1.50
-18.54
-36.15
-45.63
-43.88
-32.36
-16.36
-2.29
5.45
6.40
3.59
1.38
2.72
7.60
13.37
16.60
15.39
10.60
5.38
3.43
6.92
15.50
26.74
37.53
45.55
50.03
51.35
50.29
47.51
43.63
39.68
37.22
37.70
41.38
46.60
50.25
49.50
43.53
34.38
25.80
21.06
20.86
22.93
23.39
19.18
9.86
-2.22
-13.40
-20.87
-24.02
-24.46
-24.54
-25.61
-26.89
-25.85
-19.70
-7.26
9.71
26.74
38.21
39.85
30.80
14.25
-3.81
-16.98
-21.08
-15.43
-2.70
12.74
26.75
36.88
42.73
45.07
44.60
41.00
33.03
19.65
1.60
-17.86
-33.75
-41.45
-39.03
-28.32
-14.01
-1.10
7.74
13.13
18.10
25.77
37.43
52.05
67.47
82.05
95.71
109.63
124.78
140.47
153.80
160.31
155.67
137.57
107.02
68.81
30.22
-1.53
-22.18
-32.14
-35.94
-39.40
-46.05
-55.08
-62.12
-62.53
-55.41
-45.56
-42.15
-54.29
-85.56
-131.03
-178.49
-213.74
-227.04
-217.30
-191.53
-160.22
-132.03
-110.27
-93.72
-79.91
-68.32
-60.69
-58.47
-59.74
-58.53
-48.04
-25.57
3.91
28.97
37.37
23.00
-10.00
-48.67
-77.90
-88.15
-79.84
-62.39
-47.78
-43.23
-46.87
-49.06
-39.03
-12.78
22.62
51.56
58.15
35.50
-8.95
-56.47
-86.25
-86.03
-58.09
-17.53
16.22
29.38
19.70
-4.02
-28.53
-43.93
-48.62
-48.57
-52.49
-65.97
-88.31
-113.08
-131.44
-136.83
-127.37
-105.78
-76.90
-44.81
-10.99
25.37
65.54
109.15
152.71
190.64
216.71
225.90
216.14
188.76
147.66
97.55
42.70
-13.89
-70.11
-124.08
-173.61
-215.89
-247.80
-265.86
-267.74
-252.73
-221.95
-178.03
-124.76
-66.49
-7.51
48.55
98.95
141.81
176.21
201.96
219.49
229.61
233.37
231.80
226.11
217.46
206.91
195.34
183.49
171.92
161.05
151.16
142.30
134.58
127.99
122.39
117.51
112.83
107.66
101.16
93.11
82.25
67.62
48.58
24.95
-2.85
-33.82
-66.38
-98.41
-127.50
-151.46
-168.07
-175.73
-173.69
-162.23
-142.68
-117.13
-88.07
-58.07
-29.59
-4.05
17.80
36.07
51.48
65.33
78.87
93.35
109.66
127.64
147.29
167.49
186.79
204.05
218.16
228.36
234.60
237.48
237.32
236.48
236.30
237.73
240.76
244.58
247.65
248.15
244.16
232.50
212.80
183.19
143.14
92.09
30.42
-40.32
-117.02
-195.10
-270.74
-336.55
-388.00
-422.15
-439.08
-440.29
-428.26
-405.27
-362.63
-314.76
-260.28
-200.81
-139.12
-80.90
-31.84
3.06
21.21
23.09
9.93
-12.55
-41.09
-73.96
-113.26
-161.43
-221.55
-295.64
-383.65
-484.11
-590.01
-693.26
-770.42
-801.87
-775.36
-693.54
-573.07
-437.70
-309.43
-199.70
-111.27
-40.58
10.92
48.70
78.30
105.11
133.90
166.90
203.68
240.15
271.78
292.81
302.27
302.81
299.16
295.51
293.96
295.09
300.34
309.95
321.44
330.49
330.09
313.59
278.42
228.73
174.86
130.10
104.51
102.40
120.92
150.70
180.39
201.27
209.46
205.38
191.49
169.95
142.14
109.81
76.01
45.47
23.16
12.29
12.32
18.92
25.44
25.53
15.61
-4.11
-29.68
-54.82
-73.16
-80.62
-76.94
-65.60
-52.12
-41.81
-37.57
-39.02
-43.03
-45.57
-43.72
-36.96
-26.95
-16.34
-7.30
-0.60
4.28
8.36
12.10
14.78
14.84
10.70
1.68
-11.31
-25.85
-38.56
-46.05
-45.88
-37.40
-22.02
-2.87
16.16
31.71
41.80
45.88
44.34
37.70
26.36
10.94
-6.94
-24.39
-37.72
-43.97
-42.40
-35.12
-26.24
-20.10
-19.44
-24.60
-33.85
-44.48
-53.81
-59.92
-61.76
-59.08
-52.34
-42.64
-31.62
-21.11
-12.56
-6.60
-3.03
-1.13
-0.21
-0.11
-1.04
-3.16
-5.95
-8.03
-7.57
-3.09
5.53
16.85
28.23
36.93
41.27
41.30
38.47
34.68
31.24
28.19
24.61
19.40
12.38
4.82
-0.93
-2.54
0.96
8.58
17.66
25.14
28.91
28.75
26.37
24.50
25.63
30.90
39.77
50.23
59.49
64.80
64.33
58.29
49.55
43.00
43.80
54.91
75.19
99.15
118.73
126.40
118.33
95.31
61.71
23.47
-13.68
-44.63
-64.96
-71.60
-63.42
-42.05
-12.17
19.15
44.88
60.39
64.09
58.48
48.37
37.63
25.73
7.96
-21.48
-65.59
-122.52
-183.96
-238.13
-274.72
-288.99
-283.11
-265.11
-244.85
-228.50
-216.21
-203.25
-181.56
-148.28
-111.50
-80.68
-61.20
-53.70
-52.67
-47.87
-30.30
4.00
51.35
102.79
149.31
185.02
208.05
220.92
225.34
221.03
207.23
184.57
156.61
129.50
108.85
96.92
92.62
91.24
87.68
78.38
62.92
44.02
26.53
14.82
11.18
15.34
24.59
35.28
44.49
51.12
56.25
62.37
71.45
83.60
96.69
106.99
110.64
105.39
91.54
71.39
47.84
22.86
-2.78
-28.61
-53.84
-76.89
-95.72
-108.73
-115.58
-117.51
-116.73
-115.59
-115.58
-117.21
-119.97
-122.84
-124.85
-125.71
-125.95
-126.57
-128.52
-131.99
-136.64
-141.45
-145.00
-145.87
-142.94
-135.66
-124.00
-109.49
-92.52
-73.51
-53.02
-31.94
-11.46
7.03
22.07
32.43
37.37
37.06
32.24
24.29
15.00
6.44
0.62
-0.81
3.36
13.65
30.07
51.90
77.91
106.44
135.71
163.93
189.46
210.84
226.78
236.27
238.43
232.51
218.03
194.79
163.04
123.32
77.07
26.44
-26.26
-78.47
-127.58
-171.30
-207.84
-236.16
-255.97
-267.75
-272.78
-272.89
-270.16
-266.71
-264.42
-264.74
-268.46
-275.80
-286.42
-299.62
-314.52
-330.21
-345.93
-361.13
-375.46
-388.72
-400.67
-411.10
-419.83
-426.79
-431.96
-435.33
-436.87
-436.25
-432.78
-425.30
-412.40
-392.67
-365.08
-329.32
-285.87
-235.86
-180.78
-122.18
-61.42
0.18
61.21
119.85
173.95
221.21
259.83
288.94
308.93
321.51
329.25
335.34
343.25
356.59
378.57
410.90
452.46
498.60
541.94
574.60
591.13
590.57
576.51
555.15
532.38
511.61
493.31
476.10
458.27
438.58
415.95
388.79
355.14
313.87
266.25
216.64
171.33
135.87
112.14
97.01
83.74
65.61
39.80
9.45
-17.26
-30.83
-24.74
1.29
41.17
84.93
122.56
146.95
155.08
147.55
127.72
101.28
75.65
58.80
56.71
70.71
95.88
122.37
139.08
138.54
120.53
91.87
63.08
43.34
36.53
40.33
48.64
55.58
58.93
61.29
67.79
82.56
105.98
134.14
160.95
182.10
197.89
210.78
225.82
246.52
272.08
297.30
314.78
318.00
304.30
275.29
235.22
189.16
140.64
91.09
40.51
-11.39
-64.03
-114.79
-159.64
-194.39
-215.86
-223.36
-218.93
-206.67
-190.07
-174.14
-163.16
-160.49
-168.48
-187.90
-217.42
-253.70
-289.39
-316.12
-328.03
-323.73
-306.86
-284.34
-263.04
-247.16
-237.25
-231.08
-226.10
-221.26
-216.86
-213.79
-212.38
-211.90
-211.02
-208.73
-205.01
-201.10
-199.29
-201.55
-208.67
-219.85
-232.78
-244.36
-251.44
-252.14
-245.36
-231.08
-209.90
-182.61
-150.04
-112.93
-72.14
-28.85
15.56
59.75
102.64
143.41
181.02
213.54
237.91
250.60
248.88
232.42
203.99
168.89
133.29
102.26
78.25
61.08
48.79
39.09
30.32
21.76
13.47
5.80
-0.82
-5.81
-8.46
-8.22
-5.10
-0.06
4.91
7.39
5.40
-1.59
-12.25
-23.92
-33.79
-40.10
-42.83
-43.39
-43.59
-44.49
-45.71
-45.52
-41.78
-33.36
-21.03
-7.48
3.65
9.29
8.40
2.40
-5.43
-11.50
-13.54
-11.54
-7.24
-2.91
0.05
1.44
1.35
-0.63
-5.40
-13.03
-21.40
-26.41
-24.34
-14.48
-0.49
10.91
13.47
4.59
-13.32
-34.72
-54.09
-68.30
-76.78
-80.05
-78.25
-70.79
-57.42
-39.11
-17.89
4.33
26.54
48.43
68.97
85.46
94.35
92.97
81.33
62.44
40.92
21.38
7.34
1.04
3.49
14.30
30.88
48.45
61.46
65.93
61.66
52.38
44.03
41.31
45.39
53.65
61.53
65.05
62.38
53.88
41.04
25.40
7.97
-10.82
-30.79
-51.49
-71.66
-89.11
-101.14
-105.67
-102.56
-94.15
-84.59
-77.89
-75.89
-77.32
-78.84
-77.13
-71.04
-62.03
-52.75
-44.85
-37.51
-28.07
-13.94
4.94
25.50
42.98
53.67
57.09
56.34
56.06
59.59
66.89
74.50
77.68
73.09
60.74
44.26
29.12
20.16
19.44
25.34
33.22
37.41
33.37
19.53
-2.23
-27.45
-50.91
-68.49
-78.30
-80.72
-77.56
-71.07
-63.18
-55.21
-48.01
-42.02
-37.29
-33.33
-29.24
-23.92
-16.48
-6.50
5.79
19.63
33.97
47.65
59.44
68.22
73.03
73.35
69.57
63.05
55.89
50.27
47.63
48.21
51.12
54.70
56.95
55.89
49.89
38.18
21.41
1.98
-16.41
-29.81
-35.61
-33.67
-26.45
-17.96
-12.14
-11.33
-15.72
-23.61
-32.33
-39.32
-42.82
-42.15
-37.75
-30.83
-22.95
-15.68
-10.18
-7.03
-6.18
-7.02
-8.58
-9.71
-9.57
-8.02
-5.93
-4.80
-5.89
-9.26
-13.27
-15.11
-12.15
-3.34
10.12
25.14
38.16
46.48
49.12
46.70
40.81
33.22
25.41
18.51
13.30
10.21
9.12
9.27
9.50
8.67
6.13
1.90
-3.33
-8.58
-13.05
-16.27
-18.16
-18.68
-17.72
-15.08
-10.76
-5.35
-0.00
3.89
5.37
4.34
1.46
-2.33
-6.43
-10.64
-14.89
-18.71
-20.99
-20.40
-16.20
-8.97
-0.65
6.34
10.37
11.39
11.00
11.38
13.95
18.43
22.90
24.66
21.59
13.19
0.99
-12.01
-22.38
-27.61
-27.00
-21.94
-15.27
-10.08
-8.38
-10.24
-13.89
-16.62
-16.21
-11.85
-4.35
4.47
12.82
19.76
25.36
30.34
35.29
40.02
43.34
43.38
38.45
28.08
13.61
-1.97
-15.09
-23.00
-24.97
-22.48
-18.43
-15.69
-15.87
-18.65
-22.20
-24.24
-23.33
-19.67
-15.18
-12.71
-14.73
-21.99
-32.85
-43.66
-50.01
-48.42
