1542719946.00
64.000000
-0.00
-0.00
-0.00
-0.00
-0.00
-0.00
-0.00
-0.00
-0.00
-0.00
0.00
0.01
0.01
-0.00
-0.03
-0.05
-0.05
0.00
0.13
0.36
0.66
1.01
1.37
1.72
2.06
2.40
2.79
3.24
3.80
4.42
5.06
5.66
6.20
6.68
7.15
7.68
8.31
9.14
10.09
11.04
11.88
12.56
13.14
13.76
14.65
15.96
17.91
20.32
22.90
25.38
27.58
29.57
31.68
34.32
37.81
42.54
48.15
54.10
59.83
64.97
69.58
74.14
79.34
85.71
93.76
103.00
112.62
121.73
129.77
136.75
143.30
150.75
157.77
166.64
177.95
191.79
206.97
220.57
228.25
225.36
208.53
176.87
132.76
80.05
23.07
-34.95
-92.44
-149.16
-205.22
-260.34
-313.70
-363.84
-409.83
-450.98
-486.68
-516.01
-537.57
-549.61
-550.36
-538.77
-514.62
-479.14
-434.43
-383.08
-327.70
-270.53
-213.28
-157.24
-103.48
-52.93
-6.58
34.70
70.29
100.00
124.03
142.92
157.33
167.85
174.98
179.03
180.30
179.14
176.01
171.42
165.83
159.54
152.64
145.12
136.95
128.26
119.33
110.59
102.37
94.81
87.76
80.82
73.58
65.84
57.76
49.81
42.57
36.43
31.34
26.88
22.50
17.77
12.67
7.44
2.23
-3.09
-8.68
-14.20
-18.34
-19.13
-14.91
-5.50
7.39
20.86
32.25
40.37
45.72
49.50
52.25
53.12
50.44
43.06
31.62
18.50
6.88
-0.97
-4.55
-4.92
-3.78
-2.45
-1.50
-0.69
0.57
2.89
6.55
11.24
16.12
19.97
21.79
21.25
18.90
15.94
13.42
11.72
10.29
8.20
4.82
0.50
-3.58
-5.99
-5.91
-3.56
-0.10
2.95
4.52
4.32
2.95
1.41
0.49
0.30
0.37
-0.03
-1.17
-2.65
-3.61
-3.29
-1.60
0.77
2.81
3.80
3.67
2.96
2.27
1.86
1.58
1.14
0.54
0.13
0.42
1.64
3.58
5.65
7.31
8.37
9.01
9.53
10.07
10.54
10.69
10.39
9.74
9.01
8.46
8.11
7.80
7.04
5.47
2.90
-0.55
-4.53
-8.49
-11.83
-14.08
-15.01
-14.77
-13.76
-12.53
-11.55
-11.09
-11.18
-11.72
-12.51
-13.30
-13.79
-13.65
-12.64
-10.80
-8.53
-6.46
-5.16
-4.90
-5.45
-6.27
-6.76
-6.60
-5.80
-4.64
-3.47
-2.54
-1.96
-1.78
-2.02
-2.68
-3.70
-4.97
-6.28
-7.49
-8.51
-9.35
-10.07
-10.63
-10.95
-11.04
-10.96
-10.84
-10.85
-11.20
-12.09
-13.64
-15.72
-18.00
-20.09
-21.68
-22.75
-23.66
-25.01
-27.33
-30.75
-34.64
-38.10
-40.37
-41.23
-41.08
-40.84
-41.67
-44.41
-49.35
-55.30
-60.64
-63.86
-64.05
-61.07
-55.75
-50.12
-46.73
-48.23
-54.90
-65.99
-80.14
-95.66
-110.45
-121.89
-127.77
-125.87
-115.22
-93.81
-61.66
-21.01
24.72
72.61
121.22
169.49
217.27
263.53
309.73
355.99
400.44
439.55
469.59
488.00
493.03
485.98
449.80
379.75
285.25
185.44
97.21
27.89
-18.54
-50.65
-74.35
-92.85
-104.72
-109.18
-107.86
-103.92
-100.57
-99.53
-101.64
-105.54
-110.00
-111.94
-109.77
-104.07
-96.98
-90.78
-86.62
-85.13
-85.38
-86.55
-86.51
-83.89
-78.45
-70.96
-62.55
-54.08
-46.50
-39.97
-34.67
-29.99
-25.49
-21.06
-16.93
-13.34
-10.31
-7.78
-5.29
-2.55
0.73
4.54
8.52
12.16
15.04
17.12
18.59
19.96
21.76
24.35
27.76
31.46
34.40
35.14
32.38
25.51
15.02
2.49
-9.80
-19.53
-24.94
-25.14
-20.17
-10.78
1.74
15.83
29.94
42.81
53.80
62.89
70.60
77.51
83.99
90.15
96.03
101.77
107.64
113.81
120.06
125.90
130.91
135.13
139.12
143.44
148.04
151.85
153.13
150.47
143.66
133.82
122.59
110.95
98.34
82.84
62.42
36.25
5.39
-27.69
-60.26
-90.35
-117.07
-140.15
-159.40
-174.41
-184.84
-191.00
-194.06
-195.75
-197.64
-200.50
-204.20
-208.09
-211.53
-214.20
-216.05
-217.05
-217.01
-215.76
-213.42
-210.56
-207.92
-206.00
-204.67
-203.11
-200.14
-194.85
-187.04
-177.32
-166.87
-156.90
-148.35
-141.60
-136.36
-131.69
-126.13
-118.06
-106.40
-91.04
-73.11
-54.47
-36.98
-21.64
-8.40
3.49
14.75
25.41
34.78
41.87
46.13
47.80
47.93
47.70
47.88
48.54
49.09
48.83
47.35
44.80
41.77
38.98
36.81
35.12
33.35
30.91
27.66
24.16
21.49
20.71
22.27
25.68
29.75
33.20
35.22
35.85
35.72
35.56
35.71
35.92
35.63
34.34
32.04
29.16
26.31
23.89
21.93
20.17
18.29
16.19
14.10
12.38
11.30
10.74
10.23
9.06
6.67
2.92
-1.77
-6.52
-10.46
-13.13
-14.78
-16.24
-18.51
-22.14
-26.80
-31.37
-34.35
-34.62
-32.11
-27.82
-23.56
-21.34
-22.70
-28.13
-36.80
-46.31
-52.92
-52.18
-40.14
-14.86
22.44
67.16
112.53
151.72
180.00
195.86
200.75
197.56
188.95
176.20
159.37
138.23
113.36
86.60
60.64
37.96
19.87
6.08
-4.84
-14.46
-23.58
-31.73
-37.53
-39.51
-37.11
-31.17
-23.75
-17.27
-13.52
-12.94
-14.63
-16.86
-18.00
-17.20
-14.67
-11.34
-8.29
-6.27
-5.40
-5.40
-5.79
-6.16
-6.36
-6.35
-6.15
-5.77
-5.26
-4.75
-4.48
-4.71
-5.55
-6.90
-8.41
-9.67
-10.35
-10.33
-9.67
-8.50
-6.90
-4.97
-2.81
-0.63
1.30
2.83
3.96
4.94
6.08
7.51
9.07
10.39
11.08
11.04
10.46
9.75
9.26
9.11
9.15
9.14
8.97
8.71
8.56
8.64
8.85
8.89
8.42
7.18
5.20
2.68
-0.02
-2.56
-4.56
-5.72
-5.83
-4.88
-3.15
-1.10
0.75
2.09
2.96
3.73
4.87
6.59
8.74
10.78
12.10
12.31
11.49
10.13
8.91
8.35
8.63
9.50
10.39
10.70
10.01
8.10
5.03
1.15
-2.76
-5.46
-5.42
-1.34
7.17
19.09
32.04
43.05
49.70
51.01
47.82
42.15
36.29
31.75
28.94
27.34
26.10
24.60
22.57
20.01
16.89
13.10
8.54
3.33
-1.97
-6.54
-9.58
-10.71
-10.17
-8.68
-7.17
-6.32
-6.34
-6.96
-7.63
-7.82
-7.29
-6.23
-5.09
-4.48
-4.87
-6.40
-8.84
-11.63
-14.15
-15.97
-16.99
-17.35
-17.32
-16.95
-16.07
-14.31
-11.33
-7.10
-2.03
2.99
6.95
9.02
8.91
7.06
4.47
2.29
1.34
1.72
2.75
3.32
2.40
-0.38
-4.47
-8.69
-11.80
-13.09
-12.77
-11.83
-11.57
-13.14
-17.29
-24.24
-33.55
-43.77
-52.15
-54.83
-47.92
-29.17
0.53
36.75
72.78
101.98
120.24
127.09
125.21
118.49
110.02
100.93
90.51
77.37
60.70
40.98
19.78
-0.93
-19.59
-35.36
-48.09
-57.76
-64.08
-66.48
-64.46
-58.20
-48.87
-38.45
-29.16
-22.62
-19.39
-18.91
-20.00
-21.44
-22.53
-23.19
-23.74
-24.60
-25.84
-27.13
-27.81
-27.25
-25.23
-22.13
-18.78
-15.93
-13.76
-11.59
-8.22
-2.55
5.75
15.78
25.80
33.83
38.58
39.88
38.71
36.54
34.62
33.45
32.78
31.93
30.39
28.12
25.52
23.20
21.55
20.57
20.06
19.72
19.48
19.46
19.77
20.25
20.44
19.72
17.62
14.16
9.87
5.66
2.52
1.15
1.79
4.21
7.81
11.78
15.33
17.80
18.80
18.25
16.45
13.94
11.51
9.97
10.01
11.94
15.39
19.33
22.18
22.27
18.44
10.43
-0.95
-14.14
-27.43
-39.53
-49.79
-58.09
-64.47
-68.77
-70.65
-69.85
-66.49
-61.19
-54.93
-48.62
-42.74
-37.29
-32.02
-26.72
-21.46
-16.56
-12.39
-9.17
-6.89
-5.40
-4.48
-3.97
-3.73
-3.66
-3.60
-3.43
-3.08
-2.50
-1.70
-0.70
0.48
1.77
3.01
3.99
4.54
4.58
4.17
3.42
2.38
1.06
-0.59
-2.50
-4.50
-6.29
-7.65
-8.56
-9.14
-9.62
-10.03
-10.18
-9.72
-8.33
-5.93
-2.73
0.83
4.32
7.42
10.03
12.08
13.52
14.27
14.22
13.36
11.77
9.63
7.17
4.59
2.05
-0.29
-2.29
-3.77
-4.61
-4.74
-4.16
-3.05
-1.66
-0.33
0.70
1.27
1.37
1.08
0.52
-0.25
-1.28
-2.67
-4.46
-6.52
-8.47
-9.73
-9.71
-8.01
-4.57
0.25
5.77
11.18
15.68
18.71
19.96
19.42
17.43
14.56
11.51
8.90
7.12
6.20
5.87
5.74
5.47
4.89
4.04
3.01
1.92
0.80
-0.38
-1.63
-2.92
-4.15
-5.18
-5.94
-6.41
-6.70
-6.91
-7.19
-7.63
-8.24
-8.99
-9.71
-10.13
-9.89
-8.63
-6.16
-2.58
1.72
6.14
10.08
13.16
15.32
16.71
17.61
18.23
18.67
18.95
19.03
18.89
18.54
18.00
17.30
16.47
15.57
14.64
13.72
12.82
11.93
11.02
10.04
8.89
7.45
5.61
3.29
0.55
-2.45
-5.47
-8.34
-10.89
-13.08
-14.82
-15.97
-16.33
-15.68
-13.91
-11.10
-7.53
-3.57
0.37
3.97
7.02
9.45
11.32
12.77
13.96
15.02
16.00
16.82
17.39
17.59
17.34
16.52
14.91
12.23
8.15
2.55
-4.35
-11.95
-19.39
-25.90
-31.01
-34.65
-37.07
-38.71
-39.90
-40.89
-41.76
-42.60
-43.42
-44.13
-44.49
-43.99
-42.06
-38.20
-32.27
-24.64
-16.24
-8.26
-1.81
2.40
4.28
4.23
2.98
1.28
-0.31
-1.34
-1.49
-0.53
1.63
4.80
8.40
11.65
13.73
14.05
12.49
9.39
5.40
1.34
-2.03
-4.15
-4.76
-3.93
-2.05
0.29
2.51
4.20
5.18
5.51
5.37
4.99
4.60
4.45
4.78
5.77
7.44
9.62
11.95
14.04
15.65
16.77
17.53
18.07
18.41
18.37
17.74
16.38
14.40
12.11
9.86
7.86
6.09
4.41
2.69
0.92
-0.72
-2.05
-2.98
-3.58
-4.07
-4.64
-5.39
-6.28
-7.20
-8.06
-8.81
-9.36
-9.51
-8.97
-7.47
-4.99
-1.86
1.27
3.77
5.34
6.15
6.81
7.96
9.88
12.26
14.26
14.95
13.76
10.80
6.90
3.24
0.96
0.65
2.08
4.31
5.94
5.76
3.18
-1.48
-7.07
-12.16
-15.51
-16.37
-14.70
-11.25
-7.64
-6.15
-9.23
-18.66
-34.59
-55.09
-76.43
-94.34
-105.56
-108.96
-105.55
-97.43
-86.48
-73.38
-57.52
-37.73
-13.43
14.32
42.74
68.21
87.48
98.89
102.77
101.24
97.30
93.82
92.27
92.50
93.46
94.06
93.84
92.88
91.50
89.90
88.00
84.93
79.51
71.45
62.00
54.04
50.92
55.10
66.91
83.76
99.52
106.48
98.49
73.37
33.82
-14.11
-63.53
-109.00
-144.97
-166.26
-171.24
-163.74
-150.39
-135.69
-120.73
-105.14
-88.58
-71.79
-57.67
-50.92
-52.89
-63.41
-81.08
-104.17
-130.84
-158.18
-176.64
-179.65
-164.10
-131.68
-88.94
-44.90
-7.92
17.22
31.09
37.65
40.44
41.26
40.11
36.33
30.48
25.43
23.84
28.29
39.04
53.19
66.66
75.92
79.68
79.47
78.56
80.34
87.84
101.28
118.46
136.66
153.99
169.98
185.81
203.23
218.85
230.58
235.28
229.89
212.59
183.00
141.75
91.17
34.15
-24.38
-76.17
-113.14
-128.82
-120.26
-90.39
-48.51
-6.61
22.28
29.46
13.69
-21.92
-71.13
-126.23
-180.36
-229.15
-268.89
-299.29
-321.39
-324.72
-303.69
-261.76
-210.72
-164.30
-139.21
-131.08
-130.49
-127.12
-112.76
-80.92
-33.23
23.83
83.44
133.76
166.87
180.54
180.17
174.11
167.25
160.50
153.97
148.48
145.29
148.79
158.49
171.49
183.29
188.36
182.78
166.89
144.18
118.71
95.15
74.06
53.60
31.66
5.60
-26.48
-63.62
-102.38
-137.57
-161.17
-167.84
-156.24
-130.14
-98.62
-73.19
-62.44
-64.72
-73.94
-78.79
-72.32
-54.47
-29.64
-3.61
15.72
28.49
34.75
32.20
19.41
-6.84
-48.66
-100.21
-146.09
-168.47
-153.68
-101.44
-36.46
24.25
66.34
81.05
69.55
37.99
-3.58
-44.55
-72.69
-80.83
-67.75
-40.90
-9.83
20.47
48.59
74.14
96.12
112.17
119.85
119.90
114.03
103.93
93.23
83.92
75.80
67.08
55.16
37.66
14.54
-8.52
-28.51
-43.12
-51.68
-54.92
-54.46
-52.22
-49.94
-48.08
-46.57
-45.48
-44.20
-42.46
-40.35
-38.07
-35.90
-34.05
-32.38
-30.79
-29.87
-29.82
-30.87
-32.97
-35.53
-37.87
-39.29
-39.43
-38.54
-37.80
-38.31
-40.95
-45.87
-52.03
-58.05
-62.58
-64.69
-64.40
-62.69
-60.63
-59.28
-60.60
-64.16
-69.64
-75.71
-79.48
-76.66
-63.20
-37.12
-0.51
40.63
78.43
105.81
119.27
119.72
111.02
97.08
81.53
65.65
49.35
32.77
16.76
2.96
-7.18
-13.35
-16.51
-18.09
-19.67
-21.76
-23.73
-24.40
-22.64
-17.86
-10.44
-1.64
6.98
13.97
18.64
21.22
22.40
23.02
23.69
24.42
24.68
23.74
20.84
15.81
8.97
1.02
-7.17
-14.57
-20.62
-25.23
-28.77
-31.86
-34.80
-37.60
-39.98
-41.40
-40.98
-38.31
-33.63
-27.88
-22.41
-17.98
-15.02
-13.43
-12.41
-10.37
-6.04
1.08
10.62
21.66
34.02
47.86
63.92
81.09
100.34
123.57
153.04
190.28
234.67
283.28
329.15
362.56
374.83
362.21
327.13
277.36
222.89
165.85
109.78
57.03
8.42
-35.21
-71.86
-99.20
-115.91
-122.74
-122.80
-119.42
-116.26
-116.96
-123.77
-137.30
-157.38
-182.96
-211.70
-239.63
-260.73
-265.78
-250.98
-219.12
-178.40
-138.87
-108.29
-89.65
-81.47
-79.30
-79.28
-80.13
-81.81
-84.05
-85.61
-84.61
-79.52
-70.31
-57.95
-44.42
-32.26
-22.71
-15.37
-8.72
-1.00
8.78
20.38
33.04
45.44
56.14
64.72
72.12
80.57
93.11
112.76
138.42
168.09
197.74
221.88
235.41
235.40
222.23
199.42
172.19
145.55
123.17
106.16
93.55
83.43
74.08
64.65
55.31
46.87
40.31
36.52
35.49
36.32
37.53
37.77
36.26
32.99
28.40
22.95
16.97
10.39
2.94
-5.89
-17.03
-31.95
-52.21
-78.34
-108.36
-137.11
-157.29
-162.18
-148.77
-119.97
-84.23
-52.53
-33.87
-31.65
-42.36
-57.70
-68.56
-69.01
-58.42
-40.89
-22.81
-9.81
-4.78
-7.51
-15.81
-26.93
-38.72
-49.82
-59.28
-66.12
-69.14
-67.12
-59.34
-45.90
-27.89
-7.37
13.09
30.82
43.66
50.43
51.13
46.67
38.29
26.90
12.85
-3.75
-22.38
-41.47
-58.49
-70.58
-75.69
-73.42
-65.19
-53.50
-40.94
-29.15
-18.60
-8.92
0.40
9.41
17.49
23.50
26.16
24.60
18.71
9.70
-0.09
-7.68
-10.50
-7.44
0.51
10.54
19.10
23.52
23.08
19.16
14.38
11.18
10.75
12.71
15.71
18.37
19.94
20.45
20.24
19.59
18.40
16.40
13.52
10.04
6.65
4.16
3.20
3.91
6.02
8.87
11.62
13.47
13.81
12.37
9.27
4.98
0.12
-4.74
-9.14
-12.78
-15.32
-16.30
-15.09
-11.12
-4.30
4.77
14.64
23.38
29.05
30.39
27.14
20.21
11.27
2.32
-4.83
-8.97
-9.65
-7.20
-2.54
2.99
8.03
11.46
12.68
11.67
8.97
5.38
1.65
-1.72
-4.59
-6.94
-8.71
-9.64
-9.48
-8.35
-7.04
-6.86
-9.21
-14.84
-23.40
-33.38
-42.60
-49.04
-51.51
-49.87
-44.73
-37.05
-27.69
-17.38
-6.89
2.73
10.25
14.54
14.97
11.74
5.92
-0.90
-7.20
-12.02
-15.19
-17.28
-19.24
-21.94
-25.91
-31.13
-37.14
-43.19
-48.40
-51.86
-52.69
-50.05
-43.31
-32.23
-17.16
0.89
20.38
39.45
56.13
68.48
74.90
74.37
66.81
53.34
36.23
18.48
3.07
-7.74
-12.94
-12.74
-8.39
-1.65
5.60
11.68
15.50
16.66
15.64
13.52
11.64
11.00
11.93
13.99
16.24
17.80
18.26
17.84
17.24
17.14
17.86
19.15
20.48
21.38
21.86
22.32
23.28
24.91
26.73
27.74
26.92
23.76
18.55
12.26
6.01
0.60
-3.70
-7.03
-9.59
-11.43
-12.45
-12.59
-12.02
-11.14
-10.35
-9.86
-9.55
-9.11
-8.33
-7.35
-6.73
-7.18
-9.29
-13.15
-18.31
-23.80
-28.33
-30.68
-29.95
-25.91
-19.09
-10.77
-2.58
3.90
7.66
8.55
7.30
5.14
3.25
2.25
2.01
1.74
0.47
-2.48
-7.14
-12.97
-19.11
-24.87
-29.99
-34.56
-38.83
-42.90
-46.48
-48.99
-49.85
-48.68
-45.44
-40.26
-33.26
-24.30
-13.08
0.63
16.59
33.88
50.94
65.86
76.90
82.90
83.47
78.83
69.54
56.32
39.97
21.62
2.75
-14.89
-29.75
-40.77
-47.65
-50.62
-50.05
-46.04
-38.33
-26.60
-10.88
8.01
28.47
48.31
65.29
77.55
83.94
84.19
78.88
69.31
57.11
43.98
31.38
20.42
11.74
5.52
1.51
-0.95
-2.71
-4.56
-6.98
-9.95
-13.02
-15.54
-16.95
-16.97
-15.69
-13.58
-11.40
-9.96
-9.91
-11.48
-14.34
-17.80
-21.11
-23.79
-25.80
-27.32
-28.42
-28.86
-28.13
-25.82
-22.00
-17.33
-12.85
-9.52
-7.81
-7.50
-7.78
-7.51
-5.57
-1.13
6.15
16.04
27.64
39.58
50.18
57.84
61.42
60.40
54.95
45.79
34.05
21.06
8.28
-2.99
-11.76
-17.62
-20.78
-21.93
-21.91
-21.33
-20.38
-18.75
-15.98
-11.79
-6.37
-0.38
5.28
9.81
12.74
14.02
13.87
12.68
10.74
8.35
5.83
3.61
2.21
2.06
3.31
5.69
8.63
11.47
13.64
14.88
15.13
14.48
13.07
11.04
8.66
6.35
4.62
3.94
4.54
6.24
8.42
10.09
10.15
7.69
2.36
-5.44
-14.57
-23.38
-30.21
-33.85
-33.93
-30.89
-25.74
-19.61
-13.36
-7.46
-2.03
2.85
6.99
10.05
11.64
11.60
10.12
7.76
5.21
3.05
1.52
0.50
-0.33
-1.27
-2.32
-3.25
-3.70
-3.42
-2.44
-1.08
0.16
0.81
0.63
-0.30
-1.61
-2.83
-3.54
-3.56
-3.00
-2.12
-1.22
-0.44
0.31
1.26
2.60
4.34
6.15
7.54
8.03
7.44
5.95
4.05
2.29
1.05
0.41
0.22
0.22
0.20
0.08
-0.12
-0.38
-0.75
-1.34
-2.27
-3.54
-5.10
-6.73
-8.19
-9.20
-9.51
-9.01
-7.72
-5.84
-3.66
-1.49
0.47
2.17
3.68
5.08
6.37
7.41
8.01
7.97
7.18
5.65
3.42
0.62
-2.46
-5.30
-7.16
-7.28
-5.21
-1.03
4.57
10.51
15.74
19.51
21.47
21.52
19.63
15.80
10.20
3.30
-4.08
-10.93
-16.35
-19.79
-21.08
-20.33
-17.72
-13.47
-7.81
-1.10
6.13
13.15
19.19
23.55
25.73
25.50
22.92
18.33
12.30
5.56
-1.15
-7.19
-12.15
-15.80
-18.18
-19.42
-19.72
-19.35
-18.56
-17.69
-17.05
-16.89
-17.30
-18.17
-19.23
-20.21
-20.92
-21.42
-21.84
-22.32
-22.80
-23.03
-22.60
-21.23
-18.89
-15.84
-12.58
-9.71
-7.73
-6.99
-7.60
-9.32
-11.38
-12.61
-11.64
-7.40
0.36
10.78
22.12
32.31
39.74
43.75
44.69
43.53
41.34
38.84
36.31
33.73
31.04
28.23
25.30
22.09
18.31
13.59
7.72
0.83
-6.56
-13.62
-19.46
-23.34
-24.86
-24.14
-21.72
-18.47
-15.37
-13.21
-12.35
-12.60
-13.18
-13.04
-11.22
-7.30
-1.70
4.41
9.39
11.80
10.86
6.70
0.35
-6.62
-12.43
-15.55
-15.00
-10.61
-3.17
5.73
14.05
19.86
21.96
20.17
15.26
8.51
1.23
-5.58
-11.35
-15.78
-18.70
-20.04
-19.84
-18.33
-15.95
-13.17
-10.42
-7.91
-5.63
-3.40
-1.01
1.64
4.51
7.32
9.72
11.33
11.90
11.40
9.96
7.92
5.63
3.42
1.54
0.15
-0.67
-0.90
-0.59
0.06
0.76
1.15
0.93
-0.02
-1.59
-3.42
-5.03
-6.00
-6.07
-5.25
-3.72
-1.81
0.16
1.90
3.26
4.19
4.78
5.19
5.66
6.42
7.62
9.22
10.97
12.46
13.27
13.15
12.14
10.59
9.02
7.88
7.40
7.58
8.21
9.08
9.98
10.69
10.86
9.96
7.47
3.11
-2.91
-9.82
-16.48
-21.72
-24.74
-25.37
-23.97
-21.24
-17.91
-14.54
-11.44
-8.72
-6.33
-4.11
-1.84
0.70
3.59
6.54
8.96
10.08
9.28
6.46
2.19
-2.44
-6.22
-8.29
-8.43
-7.08
-5.06
-3.22
-2.12
-1.91
-2.36
-3.08
-3.70
-4.05
-4.11
-4.03
-3.97
-4.05
-4.34
-4.87
-5.70
-6.81
-8.12
-9.39
-10.32
-10.63
-10.17
-9.02
-7.43
-5.70
-4.07
-2.66
-1.43
-0.32
0.76
1.83
2.83
3.63
4.08
4.10
3.69
2.96
2.15
1.52
1.31
1.67
2.57
3.88
5.33
6.69
7.75
8.41
8.65
8.47
7.89
6.88
5.43
3.58
1.49
-0.58
-2.26
-3.20
-3.20
-2.25
-0.61
1.34
3.20
4.70
5.79
6.54
7.07
7.48
7.76
7.90
7.96
8.04
8.30
8.79
9.45
10.11
10.57
10.72
10.51
10.05
9.42
8.72
8.00
7.27
6.48
5.54
4.23
2.33
-0.38
-3.92
-8.07
-12.39
-16.38
-19.55
-21.61
-22.48
-22.24
-21.10
-19.30
-17.13
-14.88
-12.73
-10.78
-8.98
-7.22
-5.39
-3.51
-1.72
-0.19
0.94
1.61
1.92
1.98
1.90
1.74
1.50
1.19
0.87
0.61
0.52
0.66
1.04
1.57
2.13
2.55
2.75
2.67
2.34
1.81
1.11
0.19
-1.00
-2.50
-4.22
-5.97
-7.46
-8.43
-8.78
-8.58
-8.06
-7.46
-6.92
-6.43
-5.84
-4.99
-3.80
-2.36
-0.89
0.31
1.01
1.20
1.09
1.03
1.36
2.20
3.40
4.60
5.43
5.70
5.40
4.60
3.35
1.62
-0.58
-3.02
-5.15
-6.30
-5.94
-4.06
-1.30
1.33
2.78
2.46
0.42
-2.74
-6.32
-9.77
-12.83
-15.27
-16.61
-15.93
-12.26
-5.13
4.89
15.98
25.68
31.78
33.24
30.53
25.24
19.25
13.91
9.66
6.27
3.32
0.66
-1.52
-2.90
-3.39
-3.26
-3.11
-3.54
-4.95
-7.33
-10.33
-13.45
-16.26
-18.54
-20.30
-21.67
-22.68
-23.20
-22.91
-21.46
-18.59
-14.29
-8.81
-2.59
3.85
10.03
15.56
20.15
23.65
26.03
27.34
27.63
27.01
25.51
23.24
20.41
17.33
14.37
11.83
9.77
8.05
6.42
4.71
2.87
1.01
-0.73
-2.29
-3.71
-5.06
-6.29
-7.24
-7.68
-7.51
-6.87
-6.16
-5.80
-6.05
-6.83
-7.75
-8.29
-8.04
-6.87
-4.97
-2.67
-0.37
1.63
3.13
4.04
4.32
4.07
3.50
2.94
2.73
3.05
3.88
4.97
5.98
6.57
6.61
6.15
5.41
4.61
3.90
3.35
2.85
2.23
1.31
-0.06
-1.87
-3.98
-6.10
-7.97
-9.40
-10.30
-10.69
-10.63
-10.17
-9.36
-8.25
-6.93
-5.48
-3.99
-2.48
-0.99
0.52
2.02
3.50
4.90
6.16
7.15
7.73
7.76
7.21
6.23
5.14
4.26
3.82
3.77
3.90
3.90
3.57
2.92
2.12
1.42
0.93
0.66
0.43
0.07
-0.56
-1.45
-2.51
-3.60
-4.60
-5.45
-6.16
-6.71
-7.10
-7.27
-7.14
-6.70
-5.92
-4.88
-3.63
-2.25
-0.84
0.48
1.56
2.26
2.56
2.49
2.17
1.76
1.40
1.18
1.14
1.24
1.43
1.63
1.72
1.58
1.11
0.29
-0.80
-1.99
-3.09
-3.91
-4.41
-4.68
-4.83
-5.03
-5.30
-5.62
-5.88
-6.04
-6.06
-5.99
-5.80
-5.44
-4.78
-3.76
-2.43
-0.97
0.41
1.59
2.60
3.60
4.70
5.92
7.12
8.07
8.59
8.61
8.19
7.44
6.45
5.26
3.92
2.52
1.25
0.31
-0.12
-0.03
0.47
1.17
1.85
2.35
2.55
2.39
1.77
0.68
-0.82
-2.53
-4.20
-5.54
-6.43
-6.86
-6.92
-6.75
-6.45
-6.02
-5.43
-4.62
-3.59
-2.36
-1.01
0.33
1.53
2.43
2.89
2.90
2.53
1.93
1.30
0.75
0.34
0.07
-0.04
0.03
0.30
0.77
1.29
1.70
1.80
1.53
0.92
0.09
-0.86
-1.91
-3.12
-4.54
-6.10
-7.60
-8.75
-9.31
-9.22
-8.61
-7.75
-6.86
-5.97
-4.93
-3.46
-1.33
1.42
4.42
7.07
8.72
8.96
7.78
5.62
3.17
1.10
-0.17
-0.64
-0.57
-0.40
-0.46
-0.92
-1.78
-2.91
-4.09
-4.98
-5.12
-4.01
-1.41
2.46
6.85
10.68
13.01
13.41
12.15
10.04
7.96
6.50
5.76
5.47
5.30
5.08
4.82
4.62
4.50
4.31
3.85
2.96
1.66
0.14
-1.29
-2.38
-2.97
-3.10
-2.90
-2.60
-2.41
-2.49
-2.90
-3.56
-4.26
-4.74
-4.77
-4.27
-3.34
-2.29
-1.44
-1.04
-1.16
-1.68
-2.38
-3.08
-3.65
-4.02
-4.19
-4.10
-3.73
-3.05
-2.12
-1.06
-0.02
0.86
1.50
1.87
1.99
1.89
1.64
1.30
0.96
0.68
0.53
0.46
0.40
0.19
-0.33
-1.21
-2.34
-3.47
-4.19
-4.14
-3.12
-1.19
1.31
3.83
5.84
6.94
7.01
6.13
4.62
2.81
1.02
-0.47
-1.44
-1.67
-1.06
0.36
2.31
4.35
5.96
6.77
6.71
5.94
4.85
3.73
2.80
2.07
1.46
0.88
0.32
-0.22
-0.72
-1.18
-1.61
-2.04
-2.43
-2.74
-2.94
-3.04
-3.05
-3.01
-2.99
-3.07
-3.32
-3.80
-4.52
-5.37
-6.12
-6.52
-6.35
-5.51
-4.07
-2.30
-0.56
0.85
1.79
2.33
2.68
3.00
3.32
3.54
3.49
3.15
2.63
2.14
1.88
1.86
1.98
2.08
2.04
1.86
1.61
1.33
0.98
0.51
-0.12
-0.87
-1.70
-2.61
-3.63
-4.82
-6.15
-7.47
-8.49
-8.96
-8.73
-7.90
-6.69
-5.37
-4.13
-2.99
-1.87
-0.70
0.54
1.72
2.72
3.40
3.70
3.60
3.16
2.45
1.61
0.84
0.38
0.39
0.91
1.77
2.67
3.33
3.48
3.07
2.19
1.04
-0.11
-1.01
-1.45
-1.38
-0.90
-0.28
0.16
0.19
-0.24
-0.97
-1.75
-2.32
-2.54
-2.48
-2.25
-2.00
-1.71
-1.26
-0.38
1.08
3.12
5.46
7.66
9.26
9.98
9.81
9.00
7.92
6.80
5.74
4.68
3.50
2.21
0.92
-0.13
-0.78
-0.99
-0.87
-0.64
-0.48
-0.49
-0.63
-0.86
-1.14
-1.51
-2.06
-2.83
-3.76
-4.72
-5.52
-6.03
-6.20
-6.05
-5.60
-4.85
-3.83
-2.56
-1.16
0.22
1.42
2.33
2.88
3.11
3.05
2.79
2.40
1.96
1.59
1.38
1.42
1.72
2.24
2.88
3.50
3.95
4.13
4.05
3.81
3.60
3.50
3.52
3.50
3.19
2.40
1.06
-0.66
-2.45
-3.94
-4.88
-5.19
-4.92
-4.24
-3.29
-2.16
-0.89
0.50
1.93
3.29
4.45
5.37
6.07
6.61
7.00
7.12
6.75
5.68
3.85
1.47
-1.01
-3.11
-4.44
-4.89
-4.63
-3.97
-3.21
-2.56
-2.10
-1.87
-1.91
-2.29
-3.09
-4.25
-5.63
-6.97
-8.03
-8.66
-8.83
-8.60
-7.98
-7.01
-5.68
-4.03
-2.18
-0.32
1.38
2.79
3.90
4.77
5.47
6.00
6.30
6.31
6.03
5.52
4.94
4.43
4.06
3.86
3.76
3.66
3.45
3.07
2.52
1.83
1.05
0.16
-0.87
-2.02
-3.22
-4.27
-5.02
-5.39
-5.50
-5.60
-5.92
-6.54
-7.30
-7.85
-7.85
-7.10
-5.65
-3.76
-1.77
0.09
1.67
2.95
3.93
4.59
4.86
4.72
4.16
3.32
2.39
1.61
1.20
1.23
1.72
2.51
3.38
4.08
4.41
4.29
3.78
3.03
2.20
1.39
0.57
-0.35
-1.44
-2.68
-3.98
-5.21
-6.29
-7.20
-7.96
-8.53
-8.79
-8.51
-7.51
-5.73
-3.30
-0.50
2.27
4.66
6.46
7.56
7.99
7.84
7.27
6.44
5.54
4.73
4.13
3.76
3.57
3.45
3.32
3.14
2.88
2.52
2.04
1.39
0.60
-0.28
-1.18
-2.06
-2.96
-3.95
-5.07
-6.26
-7.37
-8.21
-8.66
-8.72
-8.49
-8.02
-7.28
-6.16
-4.53
-2.43
-0.07
2.19
3.99
5.14
5.67
5.78
5.69
5.48
5.14
4.61
3.90
3.18
2.73
2.74
3.26
4.08
4.84
5.20
4.96
4.14
2.96
1.67
0.54
-0.33
-0.94
-1.43
-1.97
-2.75
-3.84
-5.17
-6.58
-7.83
-8.73
-9.11
-8.90
-8.01
-6.45
-4.31
-1.82
0.63
2.65
3.97
4.62
4.82
4.87
4.98
5.12
5.15
4.93
4.47
3.97
3.64
3.63
3.88
4.20
4.36
4.24
3.84
3.23
2.54
1.83
1.15
0.50
-0.17
-0.88
-1.70
-2.65
-3.73
-4.87
-5.97
-6.88
-7.49
-7.71
-7.49
-6.82
-5.74
-4.33
-2.71
-1.05
0.53
1.88
2.93
3.66
4.10
4.32
4.37
4.31
4.12
3.78
3.33
2.83
2.42
2.21
2.22
2.36
2.46
2.31
1.84
1.10
0.25
-0.53
-1.13
-1.55
-1.87
-2.22
-2.68
-3.25
-3.89
-4.51
-5.04
-5.48
-5.82
-6.08
-6.17
-5.94
-5.21
-3.91
-2.13
-0.10
1.88
3.54
4.76
5.57
6.04
6.25
6.21
5.92
5.43
4.80
4.18
3.65
3.27
3.00
2.75
2.39
1.85
1.09
0.15
-0.83
-1.71
-2.32
-2.63
-2.72
-2.69
-2.71
-2.90
-3.30
-3.89
-4.61
-5.34
-5.96
-6.31
-6.25
-5.66
-4.49
-2.79
-0.73
1.45
3.44
5.00
5.95
6.29
6.12
5.64
5.06
4.51
4.03
3.62
3.26
2.96
2.75
2.58
2.41
2.18
1.89
1.63
1.48
1.50
1.61
1.60
1.24
0.40
-0.84
-2.25
-3.54
-4.52
-5.18
-5.66
-6.10
-6.52
-6.82
-6.82
-6.37
-5.48
-4.29
-2.99
-1.73
-0.57
0.54
1.65
2.77
3.78
4.53
4.86
4.67
4.01
3.06
2.12
1.42
1.08
1.04
1.13
1.11
0.84
0.28
-0.52
-1.48
-2.56
-3.62
-4.52
-5.08
-5.23
-5.08
-4.93
-5.19
-6.09
-7.56
-9.18
-10.41
-10.84
-10.42
-9.47
-8.44
-7.70
-7.31
-7.04
-6.51
-5.43
-3.73
-1.66
0.31
1.60
1.73
0.42
-2.24
-5.65
-8.69
-9.82
-7.47
-0.71
10.20
23.58
36.61
46.29
50.39
48.25
40.86
30.37
19.16
9.07
0.96
-5.16
-9.79
-13.45
-16.44
-18.84
-20.56
-21.47
-21.52
-20.78
-19.43
-17.65
-15.66
-13.67
-11.94
-10.79
-10.44
-10.71
-10.84
-9.56
-5.50
1.98
12.31
23.54
33.02
38.37
38.43
33.68
25.84
17.08
9.15
2.97
-1.36
-4.13
-5.69
-6.31
-6.19
-5.68
-5.23
-5.32
-6.26
-8.01
-10.21
-12.28
-13.72
-14.20
-13.71
-12.45
-10.74
-8.84
-6.92
-5.02
-3.10
-1.12
0.92
2.93
4.73
6.12
6.89
6.95
6.36
5.29
4.03
2.88
2.08
1.72
1.74
1.96
2.16
2.21
2.08
1.83
1.56
1.29
0.94
0.33
-0.67
-2.10
-3.81
-5.56
-7.06
-8.10
-8.58
-8.53
-8.02
-7.18
-6.07
-4.70
-3.08
-1.24
0.72
2.61
4.23
5.44
6.16
6.46
6.46
6.28
5.98
5.57
5.02
4.34
3.57
2.87
2.33
2.05
2.01
2.10
2.21
2.22
2.07
1.75
1.20
0.42
-0.62
-1.90
-3.32
-4.76
-6.04
-7.08
-7.85
-8.37
-8.64
-8.57
-8.02
-6.86
-5.08
-2.88
-0.58
1.47
3.03
4.10
4.79
5.27
5.60
5.76
5.69
5.39
4.95
4.48
4.08
3.75
3.43
3.14
2.90
2.76
2.67
2.51
2.09
1.35
0.37
-0.64
-1.48
-2.06
-2.50
-2.99
-3.69
-4.67
-5.85
-7.01
-7.92
-8.35
-8.11
-7.09
-5.33
-2.97
-0.31
2.32
4.61
6.37
7.56
8.20
8.41
8.28
7.93
7.41
6.78
6.10
5.42
4.83
4.42
4.20
4.10
3.97
3.62
2.99
2.09
1.14
0.37
-0.08
-0.24
-0.35
-0.70
-1.54
-2.92
-4.75
-6.78
-8.75
-10.39
-11.52
-12.00
-11.78
-10.87
-9.36
-7.40
-5.19
-2.94
-0.83
1.02
2.54
3.70
4.53
5.11
5.47
5.64
5.62
5.38
4.94
4.35
3.72
3.18
2.81
2.67
2.72
2.84
2.91
2.78
2.34
1.58
0.56
-0.58
-1.71
-2.73
-3.65
-4.54
-5.46
-6.40
-7.26
-7.88
-8.17
-8.08
-7.72
-7.15
-6.40
-5.39
-4.00
-2.21
-0.15
1.88
3.55
4.64
5.14
5.15
4.87
4.41
3.84
3.19
2.56
2.06
1.84
1.92
2.23
2.59
2.78
2.67
2.21
1.43
0.42
-0.74
-1.92
-2.97
-3.83
-4.52
-5.18
-5.95
-6.88
-7.82
-8.50
-8.62
-8.03
-6.79
-5.18
-3.51
-1.96
-0.55
0.87
2.44
4.18
5.95
7.48
8.52
8.94
8.72
7.96
6.81
5.47
4.11
2.87
1.86
1.16
0.77
0.63
0.67
0.81
1.01
1.21
1.31
1.19
0.74
-0.13
-1.41
-3.02
-4.81
-6.64
-8.33
-9.73
-10.63
-10.83
-10.15
-8.51
-5.98
-2.84
0.49
3.51
5.79
7.14
7.57
7.34
6.78
6.19
5.72
5.35
4.93
4.30
3.42
2.35
1.28
0.37
-0.29
-0.71
-0.89
-0.77
-0.22
0.92
2.64
4.65
6.43
7.40
7.15
5.61
3.04
-0.05
-3.19
-6.04
-8.40
-10.18
-11.28
-11.59
-11.03
-9.61
-7.50
-5.00
-2.44
-0.12
1.82
3.38
4.60
5.59
6.36
6.88
7.05
6.79
6.09
5.01
3.73
2.46
1.39
0.65
0.22
0.02
-0.06
-0.14
-0.23
-0.32
-0.37
-0.33
-0.27
-0.31
-0.57
-1.15
-2.04
-3.08
-4.10
-4.91
-5.40
-5.54
-5.32
-4.75
-3.83
-2.58
-1.06
0.56
2.10
3.34
4.15
4.48
4.42
4.08
3.64
3.25
3.04
3.05
3.27
3.58
3.83
3.89
3.71
3.27
2.61
1.78
0.84
-0.12
-0.97
-1.56
-1.82
-1.83
-1.86
-2.20
-3.03
-4.31
-5.74
-6.91
-7.49
-7.35
-6.54
-5.24
-3.65
-1.92
-0.19
1.37
2.63
3.50
3.99
4.23
4.34
4.40
4.43
4.40
4.27
4.09
3.92
3.78
3.69
3.56
3.30
2.82
2.08
1.13
0.05
-1.02
-1.94
-2.65
-3.20
-3.69
-4.23
-4.85
-5.51
-6.07
-6.39
-6.42
-6.19
-5.77
-5.20
-4.44
-3.38
-1.90
-0.04
1.98
3.82
5.12
5.69
5.56
4.99
4.31
3.81
3.59
3.59
3.65
3.64
3.48
3.19
2.83
2.48
2.21
2.00
1.85
1.69
1.46
1.12
0.65
0.04
-0.73
-1.67
-2.76
-3.94
-5.07
-5.97
-6.50
-6.59
-6.23
-5.52
-4.51
-3.29
-1.94
-0.52
0.88
2.17
3.25
4.06
4.54
4.73
4.67
4.43
4.11
3.78
3.45
3.07
2.59
1.96
1.28
0.67
0.29
0.18
0.30
0.45
0.48
0.29
-0.14
-0.74
-1.47
-2.32
-3.30
-4.36
-5.39
-6.19
-6.60
-6.53
-5.98
-5.03
-3.75
-2.18
-0.40
1.47
3.22
4.60
5.43
5.66
5.39
4.84
4.24
3.72
3.30
2.94
2.61
2.30
2.07
1.95
1.92
1.90
1.71
1.25
0.45
-0.57
-1.64
-2.58
-3.25
-3.71
-4.08
-4.49
-5.03
-5.64
-6.16
-6.44
-6.32
-5.79
-4.89
-3.69
-2.27
-0.68
1.01
2.65
4.06
5.02
5.42
5.28
4.78
4.17
3.66
3.32
3.12
2.98
2.81
2.59
2.35
2.13
1.95
1.82
1.68
1.47
1.13
0.61
-0.11
-1.04
-2.10
-3.20
-4.22
-5.12
-5.85
-6.40
-6.74
-6.79
-6.44
-5.60
-4.29
-2.62
-0.82
0.84
2.12
2.89
3.17
3.05
2.75
2.46
2.28
2.16
1.97
1.55
0.87
0.01
-0.79
-1.27
-1.31
-0.96
-0.42
0.06
0.34
0.39
0.33
0.20
-0.05
-0.61
-1.67
-3.28
-5.25
-7.16
-8.58
-9.17
-8.81
-7.60
-5.74
-3.44
-0.85
1.85
4.44
6.64
8.19
8.97
9.00
8.51
7.73
6.82
5.84
4.78
3.66
2.60
1.80
1.42
1.53
2.01
2.63
3.09
3.16
2.75
1.90
0.83
-0.24
-1.10
-1.71
-2.22
-2.86
-3.84
-5.19
-6.69
-7.99
-8.70
-8.54
-7.47
-5.67
-3.45
-1.11
1.06
2.91
4.36
5.42
6.07
6.31
6.11
5.52
4.67
3.80
3.17
2.92
3.04
3.34
3.52
3.39
2.92
2.23
1.46
0.72
0.02
-0.70
-1.45
-2.20
-2.87
-3.42
-3.89
-4.35
-4.85
-5.34
-5.73
-5.87
-5.70
-5.21
-4.38
-3.21
-1.65
0.25
2.34
4.35
5.96
6.93
7.18
6.86
6.20
5.49
4.92
4.54
4.34
4.22
4.06
3.80
3.36
2.71
1.84
0.76
-0.46
-1.67
-2.70
-3.36
-3.62
-3.60
-3.56
-3.79
-4.48
-5.60
-6.91
-8.05
-8.66
-8.50
-7.58
-6.07
-4.22
-2.34
-0.65
0.72
1.72
2.39
2.85
3.24
3.69
4.24
4.83
5.30
5.48
5.29
4.76
4.06
3.38
2.83
2.43
2.09
1.73
1.32
0.90
0.53
0.22
-0.09
-0.49
-1.11
-2.02
-3.20
-4.55
-5.89
-7.01
-7.79
-8.15
-8.08
-7.62
-6.76
-5.49
-3.83
-1.87
0.19
2.11
3.67
4.75
5.34
5.51
5.35
4.95
4.41
3.86
3.44
3.28
3.35
3.54
3.65
3.50
3.03
2.29
1.41
0.53
-0.27
-0.93
-1.45
-1.83
-2.10
-2.33
-2.69
-3.33
-4.33
-5.60
-6.92
-7.98
-8.50
-8.30
-7.36
-5.73
-3.55
-1.01
1.61
4.00
5.84
6.89
7.12
6.71
5.98
5.22
4.61
4.17
3.83
3.46
3.03
2.52
1.96
1.38
0.83
0.32
-0.14
-0.58
-1.04
-1.59
-2.21
-2.83
-3.29
-3.52
-3.50
-3.39
-3.38
-3.63
-4.17
-4.88
-5.56
-6.00
-6.05
-5.66
-4.78
-3.45
-1.79
-0.01
1.66
2.98
3.90
4.47
4.83
5.09
5.23
5.14
4.73
4.02
3.19
2.47
1.98
1.73
1.56
1.28
0.83
0.31
-0.10
-0.28
-0.22
-0.11
-0.19
-0.66
-1.55
-2.71
-3.91
-4.96
-5.74
-6.23
-6.44
-6.42
-6.16
-5.61
-4.75
-3.55
-2.03
-0.25
1.69
3.60
5.22
6.32
6.71
6.33
5.32
3.97
2.60
1.49
0.78
0.48
0.49
0.68
0.94
1.23
1.51
1.70
1.75
1.53
0.99
0.15
-0.87
-1.92
-2.88
-3.71
-4.47
-5.24
-6.05
-6.81
-7.31
-7.34
-6.72
-5.43
-3.60
-1.42
0.83
2.89
4.53
5.59
6.03
5.92
5.50
4.99
4.58
4.29
4.05
3.70
3.15
2.43
1.60
0.82
0.18
-0.19
-0.26
-0.04
0.38
0.78
0.94
0.67
-0.08
-1.19
-2.46
-3.69
-4.74
-5.58
-6.18
-6.50
-6.46
-6.02
-5.23
-4.17
-2.99
-1.81
-0.67
0.44
1.51
2.50
3.35
3.97
4.30
4.32
4.08
3.64
3.04
2.28
1.35
0.23
-1.02
-2.25
-3.23
-3.80
-3.97
-3.96
-4.12
-4.75
-5.94
-7.57
-9.34
-11.02
-12.46
-13.71
-14.83
-15.84
-16.68
-17.24
-17.46
-17.37
-17.08
-16.66
-16.10
-15.33
-14.29
-13.01
-11.65
-10.50
-9.90
-10.21
-11.51
-13.67
-16.32
-19.00
-21.32
-23.08
-24.46
-25.89
-27.95
-30.88
-34.65
-39.02
-43.66
-48.41
-53.22
-58.26
-63.80
-70.15
-77.00
-83.76
-89.69
-94.03
-96.36
-96.60
-95.10
-92.35
-88.69
-83.14
-74.32
-60.93
-42.53
-19.91
5.42
32.06
59.36
87.50
118.10
152.30
189.93
229.18
267.20
301.15
329.24
351.03
359.92
350.94
321.52
273.47
213.16
149.12
88.85
36.94
-5.07
-37.72
-61.49
-77.09
-85.44
-87.90
-86.30
-82.61
-78.45
-74.73
-71.82
-69.05
-65.79
-61.81
-57.35
-52.97
-49.17
-46.14
-43.93
-42.61
-41.82
-41.05
-39.65
-37.11
-33.25
-28.45
-23.58
-19.68
-17.52
-16.96
-17.08
-16.69
-14.97
-11.89
-8.17
-4.77
-2.27
-0.55
0.97
2.91
5.34
7.75
9.36
9.68
8.81
7.41
6.40
5.96
5.79
5.17
3.34
-0.07
-4.82
-10.14
-15.06
-18.74
-20.71
-20.98
-20.02
-18.67
-17.86
-18.26
-19.95
-22.27
-24.10
-24.36
-22.67
-19.64
-16.45
-14.29
-13.48
-13.37
-12.94
-11.68
-9.77
-7.58
-5.11
-1.77
2.76
7.69
10.85
9.94
4.35
-3.55
-9.28
-8.63
-0.52
12.04
23.47
28.74
26.25
18.52
10.42
6.05
6.66
10.50
14.62
17.10
18.01
19.05
21.97
27.32
34.06
40.07
43.29
42.77
39.17
34.37
30.61
29.53
31.55
35.84
40.76
44.57
46.04
44.82
41.40
36.91
32.62
29.62
28.45
28.91
30.18
31.22
31.35
30.48
29.10
27.86
26.97
25.99
23.94
19.93
13.71
5.94
-2.12
-9.14
-14.25
-17.20
-18.21
-17.90
-17.35
-18.37
-23.47
-35.14
-54.65
-80.75
-109.39
-134.66
-150.88
-154.60
-145.70
-126.93
-102.48
-76.34
-51.61
-30.58
-15.19
-6.93
-5.97
-10.33
-15.76
-17.01
-9.89
6.87
31.03
57.87
82.04
99.27
107.29
105.75
95.68
78.86
57.38
33.27
8.41
-15.70
-38.09
-58.32
-76.37
-92.08
-104.68
-112.50
-113.39
-105.85
-90.59
-71.35
-54.11
-44.63
-45.53
-54.48
-65.03
-69.76
-64.26
-49.45
-30.83
-15.23
-7.08
-6.43
-9.55
-11.72
-9.91
-4.10
3.44
10.04
14.37
16.92
19.27
22.83
27.88
33.57
38.53
41.83
43.29
43.42
42.83
41.81
40.31
38.09
35.04
31.30
27.03
22.27
16.79
10.34
2.87
-5.15
-12.93
-19.73
-25.24
-29.97
-34.98
-41.34
-49.31
-57.93
-65.00
-67.93
-64.85
-55.47
-41.42
-25.58
-10.89
0.75
9.07
15.11
20.29
25.48
30.60
34.87
37.57
38.69
39.01
39.64
41.24
43.38
44.74
43.73
39.59
32.95
25.75
20.30
18.17
19.34
22.16
24.17
23.20
18.39
10.63
2.23
-4.20
-6.72
-4.78
0.68
7.80
14.60
19.69
22.56
23.55
23.25
22.04
19.76
15.90
10.08
2.53
-5.58
-12.51
-16.61
-17.12
-14.63
-10.79
-7.68
-6.70
-8.00
-10.51
-12.65
-13.20
-11.87
-9.25
-6.36
-3.98
-2.30
-0.99
0.40
2.04
3.74
5.13
6.07
6.85
8.02
10.06
12.97
16.15
18.68
19.86
19.58
18.38
17.11
16.51
16.83
17.78
18.72
19.06
18.48
17.04
15.10
13.08
11.28
9.77
8.39
6.83
4.86
2.42
-0.30
-2.93
-5.06
-6.38
-6.83
-6.55
-5.86
-5.15
-4.76
-4.87
-5.43
-6.17
-6.60
-6.30
-5.03
-2.89
-0.32
2.15
4.15
5.71
7.11
8.70
10.51
12.21
13.24
13.25
12.41
11.37
11.01
11.90
13.84
15.86
16.55
14.63
9.44
1.19
-9.10
-19.86
-29.34
-35.98
-38.79
-37.66
-33.49
-27.97
-23.11
-20.50
-20.74
-23.19
-26.33
-28.50
-28.70
-26.96
-24.21
-21.57
-19.76
-18.72
-17.87
-16.58
-14.71
-12.65
-11.07
-10.39
-10.46
-10.65
-10.21
-8.83
-6.85
-5.07
-4.35
-5.08
-7.03
-9.44
-11.39
-12.25
-11.82
-10.35
-8.28
-5.98
-3.61
-1.13
1.56
4.46
7.47
10.42
13.16
15.62
17.78
19.62
21.04
21.95
22.36
22.41
22.45
22.81
23.58
24.38
24.50
23.16
19.97
15.29
10.18
5.97
3.65
3.37
4.37
5.33
5.00
2.69
-1.40
-6.32
-10.79
-13.62
-14.12
-12.30
-8.84
-4.77
-1.11
1.47
2.83
3.22
3.00
2.40
1.45
0.05
-1.72
-3.51
-4.75
-4.90
-3.72
-1.40
1.47
4.15
6.03
6.85
6.67
5.85
4.85
4.06
3.67
3.57
3.31
2.16
-0.62
-5.47
-12.20
-19.66
-25.94
-28.94
-27.31
-21.19
-12.37
-3.60
2.52
4.63
3.07
-0.45
-3.82
-5.56
-5.42
-4.28
-3.46
-3.83
-5.25
-6.54
-6.03
-2.46
4.23
12.66
20.43
25.32
26.22
23.58
19.00
14.36
10.79
8.31
6.05
2.96
-1.04
-5.34
-9.07
-11.88
-14.10
-16.44
-19.47
-23.17
-27.12
-30.13
-31.29
-30.51
-28.51
-26.24
-24.17
-22.07
-19.29
-15.58
-10.46
-4.14
2.64
8.97
14.47
19.72
25.87
34.04
39.58
37.96
26.58
7.01
-16.03
-37.49
-54.17
-65.35
-70.92
-73.92
-75.94
-77.32
-77.55
-75.91
-71.75
-64.21
-53.63
-39.21
-20.03
5.38
37.47
74.85
114.16
150.80
180.04
198.00
202.57
193.32
172.42
143.79
112.23
82.45
58.01
40.71
30.38
25.62
24.42
25.51
28.39
32.90
39.07
46.73
55.14
62.89
68.24
69.69
66.95
60.85
52.90
45.22
39.79
37.65
38.34
39.96
40.11
37.01
29.50
17.04
0.51
-17.87
-35.50
-50.42
-62.19
-71.45
-79.18
-84.59
-87.30
-87.74
-86.64
-84.20
-80.13
-74.76
-71.27
-70.30
-72.13
-77.10
-84.23
-91.12
-95.01
-90.89
-76.52
-52.15
-20.57
14.56
43.72
57.18
51.56
31.68
6.78
-15.20
-30.11
-37.52
-41.95
-45.54
-47.90
-47.15
-41.81
-32.19
-20.79
-10.83
-4.75
-2.02
-1.77
-2.27
-1.60
1.29
5.97
10.75
13.87
14.38
12.28
8.31
3.81
0.22
-1.65
-1.87
-1.27
-0.84
-1.17
-2.38
-4.21
-6.06
-7.34
-7.70
-7.26
-6.53
-6.07
-6.27
-7.23
-8.84
-10.67
-12.20
-12.93
-12.58
-11.12
-8.72
-5.69
-2.36
0.95
3.97
6.52
8.51
9.90
10.71
11.01
10.93
10.70
10.55
10.74
11.38
12.43
13.71
14.93
15.89
16.51
16.93
17.39
18.14
19.31
20.89
22.71
24.54
26.11
27.16
27.55
27.28
26.55
25.79
25.66
26.83
29.80
34.68
41.08
48.22
55.14
60.91
65.38
68.84
72.05
75.90
81.05
87.52
94.62
101.12
105.44
106.60
104.03
97.86
88.77
77.72
65.64
53.26
40.92
28.30
15.81
3.55
-7.93
-17.57
-24.03
-26.04
-23.03
-15.29
-5.19
6.78
19.09
30.80
41.72
52.20
62.81
73.85
85.09
93.34
99.66
102.72
101.84
97.37
90.85
84.79
81.90
84.28
89.06
99.05
111.77
123.90
132.19
134.34
129.41
117.66
100.00
72.63
41.12
6.07
-31.44
-69.40
-105.08
-135.76
-159.75
-147.55
-137.23
-126.61
-118.77
-115.50
-116.92
-121.71
-128.26
-135.65
-144.35
-160.78
-182.05
-209.47
-243.16
-282.32
-325.67
-371.62
-417.69
-459.82
-495.97
-516.10
-515.28
-491.73
-447.25
-386.27
-313.84
-234.43
-151.95
-72.96
-0.79
57.53
95.14
107.79
95.89
65.36
26.49
-8.89
-31.84
-35.61
-20.16
10.40
50.66
96.93
148.62
206.81
271.03
335.82
391.44
425.63
429.18
400.45
346.02
277.98
208.43
144.72
87.86
33.77
-23.16
-86.91
-158.20
-234.44
-310.63
-380.53
-437.77
-477.12
-495.77
-494.12
-475.38
-444.19
-404.83
-360.03
-311.19
-259.48
-207.01
-156.94
-112.21
-73.79
-39.53
-4.77
35.71
85.26
143.57
206.35
266.17
314.49
343.55
348.04
326.31
281.29
220.62
155.65
98.69
59.16
40.07
36.96
40.20
39.97
31.11
15.31
-0.54
-8.70
-4.76
11.02
35.47
65.55
100.17
139.18
181.11
221.33
252.76
268.72
265.86
245.05
209.78
163.44
108.04
45.36
-20.59
-81.74
-127.06
-146.36
-134.82
-95.93
-40.64
16.39
61.46
84.98
82.19
52.66
-0.62
-71.20
-149.01
-221.00
-273.81
-297.68
-289.82
-255.14
-203.79
-146.96
-93.20
-47.36
-11.85
11.47
20.71
15.28
-2.12
-25.02
-44.86
-54.39
-50.39
-33.99
-8.56
23.01
59.80
101.51
145.71
186.12
213.70
220.50
203.56
166.59
118.13
67.69
22.19
-15.18
-43.37
-61.13
-65.76
-54.20
-25.73
15.95
62.78
104.94
134.53
148.08
147.00
135.70
119.18
100.99
82.81
64.80
46.71
28.67
11.52
-3.50
-15.21
-22.92
-26.81
-27.77
-27.11
-25.95
-24.78
-23.32
-20.65
-15.87
-8.55
0.90
11.43
21.82
31.24
39.55
47.26
55.25
64.44
75.47
88.53
102.91
116.70
126.57
128.07
116.89
90.56
50.03
0.22
-51.17
-96.03
-128.23
-145.05
-147.14
-137.34
-119.33
-96.77
-72.97
-50.86
-32.70
-19.57
-10.98
-5.12
0.22
6.54
13.96
21.34
27.06
29.80
29.02
24.77
17.51
7.98
-2.70
-12.95
-21.03
-25.49
-25.68
-22.10
-16.13
-9.48
-3.51
1.15
4.51
6.84
8.29
8.67
7.76
5.56
2.57
-0.25
-1.93
-1.91
-0.35
2.01
4.26
5.85
6.87
7.94
9.71
12.38
15.51
18.21
19.64
19.44
17.89
15.68
13.59
12.17
11.59
11.85
12.89
14.70
17.26
20.48
24.02
27.33
29.82
31.02
30.80
29.35
27.04
24.32
21.56
19.07
17.13
16.01
15.95
17.01
19.05
21.74
24.64
27.37
29.73
31.60
32.80
33.00
31.84
29.16
25.24
20.84
16.90
14.13
12.77
12.44
12.43
12.07
10.99
9.23
7.10
4.98
3.13
1.65
0.42
-0.70
-1.85
-3.10
-4.36
-5.45
-6.07
-5.98
-5.05
-3.34
-0.97
1.86
5.03
8.46
12.04
15.61
18.92
21.73
23.82
25.14
25.69
25.50
24.60
23.02
20.88
18.39
15.81
13.36
11.10
8.88
6.42
3.47
-0.13
-4.39
-9.16
-14.15
-18.96
-23.13
-26.25
-28.08
-28.55
-27.77
-25.87
-22.91
-18.88
-13.83
-8.00
-1.85
3.97
8.84
12.37
14.47
15.37
15.45
15.09
14.55
13.95
13.22
12.23
10.88
9.23
7.48
5.93
4.81
4.18
3.94
3.90
3.95
3.99
4.00
3.90
3.50
2.59
1.01
-1.24
-3.99
-6.92
-9.63
-11.76
-12.99
-13.14
-12.18
-10.24
-7.57
-4.52
-1.45
1.43
3.97
6.16
7.96
9.31
10.11
10.30
9.95
9.27
8.54
7.96
7.59
7.33
6.93
6.18
4.97
3.43
1.80
0.38
-0.64
-1.32
-1.96
-2.97
-4.69
-7.25
-10.45
-13.86
-16.88
-19.02
-19.98
-19.71
-18.41
-16.38
-13.92
-11.29
-8.68
-6.24
-4.09
-2.37
-1.24
-0.83
-1.15
-2.13
-3.53
-5.09
-6.54
-7.69
-8.44
-8.75
-8.61
-8.06
-7.17
-5.99
-4.62
-3.13
-1.55
0.03
1.51
2.71
3.44
3.56
3.02
1.91
0.40
-1.29
-2.87
-4.02
-4.47
-4.00
-2.58
-0.34
2.45
5.48
8.52
11.40
14.03
16.19
17.61
17.98
17.17
15.32
12.86
10.33
8.16
6.57
5.51
4.80
4.19
3.46
2.45
1.09
-0.66
-2.73
-4.96
-7.08
-8.82
-9.94
-10.36
-10.23
-9.89
-9.75
-10.14
-11.08
-12.25
-13.07
-13.01
-11.77
-9.47
-6.57
-3.55
-0.70
1.97
4.62
7.26
9.63
11.26
11.70
10.80
8.86
6.41
4.01
2.00
0.49
-0.61
-1.34
-1.69
-1.66
-1.33
-0.97
-0.95
-1.56
-2.88
-4.73
-6.79
-8.75
-10.48
-12.10
-13.84
-15.86
-18.01
-19.80
-20.56
-19.75
-17.16
-13.13
-8.28
-3.34
1.13
4.91
7.96
10.28
11.84
12.53
12.26
11.11
9.33
7.28
5.28
3.56
2.23
1.34
0.88
0.80
1.01
1.35
1.63
1.68
1.43
0.90
0.16
-0.72
-1.74
-2.91
-4.26
-5.74
-7.18
-8.39
-9.16
-9.32
-8.82
-7.67
-5.92
-3.66
-0.97
2.06
5.32
8.60
11.60
13.98
15.49
16.09
16.06
15.83
15.82
16.18
16.68
16.87
16.37
15.19
13.81
13.02
13.46
15.26
17.89
20.35
21.66
21.25
19.22
16.25
13.27
11.17
10.60
11.79
14.42
17.41
18.88
16.53
8.30
-6.58
-26.98
-49.95
-71.56
-88.30
-98.14
-100.94
-97.93
-90.78
-80.81
-68.74
-55.04
-40.34
-25.75
-12.57
-1.83
6.15
11.77
15.89
19.33
22.46
25.17
27.21
28.45
29.09
29.61
30.49
31.97
34.04
36.46
39.03
41.57
43.94
45.96
47.45
48.37
48.95
49.69
51.18
53.77
57.46
62.00
67.14
72.70
78.26
82.57
83.35
77.70
63.34
40.10
10.59
-20.18
-46.47
-63.73
-69.88
-65.31
-52.12
-32.94
-10.36
12.94
33.82
48.63
54.02
48.14
31.78
8.37
-16.95
-39.36
-56.03
-66.99
-74.47
-81.35
-89.30
-97.85
-104.62
-106.65
-102.03
-90.90
-75.29
-58.14
-41.86
-27.50
-14.80
-2.95
8.53
19.22
28.12
34.23
37.02
36.13
30.76
19.28
-0.56
-30.16
-68.59
-111.64
-152.52
-183.95
-200.68
-201.15
-187.56
-164.35
-136.23
-106.86
-78.47
-52.36
-29.49
-10.66
3.78
14.26
22.07
28.78
35.61
42.89
49.99
55.83
59.55
60.96
60.63
59.52
58.49
57.88
57.46
56.72
55.17
52.75
49.77
46.73
43.92
41.24
38.29
34.66
30.22
25.34
20.90
17.98
17.45
19.71
24.38
30.44
36.49
41.18
43.61
43.41
40.62
35.45
28.13
18.97
8.60
-1.93
-11.23
-18.08
-21.81
-22.72
-21.88
-20.74
-20.61
-22.28
-26.02
-31.68
-38.73
-46.16
-52.29
-54.88
-51.72
-41.56
-24.73
-3.31
19.56
40.84
58.59
72.29
82.40
89.45
93.33
93.18
87.96
77.13
61.22
41.80
20.95
0.81
-16.78
-30.43
-39.24
-42.78
-41.25
-35.54
-27.13
-17.84
-9.37
-2.97
0.83
2.16
1.65
0.11
-1.71
-3.33
-4.57
-5.49
-6.33
-7.38
-8.86
-10.89
-13.36
-15.93
-18.07
-19.19
-18.85
-16.97
-13.88
-10.28
-6.98
-4.66
-3.67
-4.03
-5.46
-7.58
-9.98
-12.33
-14.29
-15.52
-15.72
-14.76
-12.74
-10.07
-7.32
-4.91
-2.97
-1.24
0.74
3.26
6.19
8.95
10.80
11.23
10.23
8.30
6.22
4.61
3.79
3.67
3.98
4.39
4.68
4.73
4.53
4.14
3.60
2.97
2.25
1.44
0.54
-0.43
-1.42
-2.44
-3.59
-5.06
-7.02
-9.46
-12.12
-14.49
-16.09
-16.61
-16.12
-14.97
-13.61
-12.40
-11.44
-10.61
-9.68
-8.51
-7.08
-5.59
-4.34
-3.69
-3.83
-4.70
-5.87
-6.65
-6.24
-4.08
-0.06
5.42
11.53
17.35
22.08
25.22
26.61
26.36
24.67
21.81
18.02
13.51
8.52
3.38
-1.50
-5.53
-8.09
-8.73
-7.31
-4.19
-0.09
4.09
7.60
10.06
11.43
11.91
11.72
10.99
9.78
8.14
6.24
4.37
2.74
1.48
0.54
-0.21
-0.96
-1.79
-2.75
-3.76
-4.70
-5.40
-5.72
-5.65
-5.33
-5.03
-4.99
-5.31
-5.85
-6.33
-6.49
-6.22
-5.59
-4.73
-3.78
-2.82
-1.87
-1.00
-0.31
0.21
0.69
1.44
2.76
4.74
7.16
9.49
11.15
11.80
11.44
10.46
9.40
8.67
8.32
8.03
7.21
5.32
2.18
-1.91
-6.21
-9.79
-11.87
-12.10
-10.65
-8.23
-5.90
-4.73
-5.52
-8.52
-13.27
-18.74
-23.57
-26.53
-26.91
-24.69
-20.52
-15.47
-10.70
-7.15
-5.40
-5.55
-7.25
-9.84
-12.42
-14.13
-14.38
-13.03
-10.43
-7.30
-4.36
-2.02
-0.16
1.79
4.52
8.51
13.76
19.73
25.65
30.72
34.39
36.35
36.54
35.05
32.08
27.98
23.31
18.76
14.97
12.44
11.30
11.32
11.99
12.72
12.96
12.52
11.49
10.19
8.99
7.92
6.61
4.31
0.35
-5.48
-12.59
-19.81
-25.87
-30.00
-32.21
-33.22
-33.92
-35.01
-36.73
-38.93
-41.31
-43.49
-44.94
-44.97
-42.82
-38.08
-31.11
-23.12
-15.94
-11.27
-10.05
-12.09
-16.32
-21.22
-25.46
-28.11
-28.77
-27.39
-24.22
-19.68
-14.26
-8.33
-1.96
5.13
13.34
22.84
33.24
43.46
52.04
57.66
59.65
58.22
54.23
48.83
42.94
37.07
31.27
25.46
19.62
13.93
8.72
4.31
0.82
-1.85
-3.88
-5.30
-5.85
-5.01
-2.35
2.11
7.70
13.21
17.40
19.51
19.58
18.46
17.29
17.07
18.22
20.48
23.26
25.93
28.14
29.93
31.49
33.02
34.49
35.71
36.42
36.50
36.12
35.66
35.62
36.45
38.51
42.07
47.33
54.12
61.53
67.80
70.51
67.39
57.22
40.38
18.78
-4.92
-28.20
-49.44
-68.08
-84.26
-98.34
-110.45
-120.44
-128.08
-133.29
-136.28
-137.52
-137.60
-137.05
-136.17
-135.01
-133.36
-130.89
-127.29
-122.34
-115.78
-107.21
-96.03
-81.65
-63.82
-42.98
-20.40
2.08
22.52
39.42
52.11
60.79
66.24
69.45
71.19
71.93
71.87
71.16
70.06
68.97
68.27
68.09
68.29
68.45
68.19
67.38
66.24
65.23
64.79
65.25
66.79
69.77
74.71
82.19
92.33
104.42
116.80
127.30
134.06
136.19
134.02
128.71
121.49
112.83
102.13
88.17
70.00
47.80
23.08
-1.95
-25.56
-47.30
-68.18
-89.70
-112.63
-135.93
-156.95
-172.39
-179.90
-179.05
-171.39
-159.52
-145.84
-131.86
-118.30
-105.88
-95.89
-89.99
-89.22
-92.99
-98.72
-102.55
-100.90
-91.88
-75.97
-55.50
-33.40
-11.98
7.64
25.33
41.42
56.15
69.42
80.87
89.90
95.83
97.90
95.63
89.13
79.32
67.77
56.20
46.03
38.07
32.51
29.12
27.38
26.50
25.49
23.29
19.12
12.82
4.94
-3.48
-11.47
-18.47
-24.59
-30.33
-36.19
-42.30
-48.30
-53.60
-57.67
-60.37
-61.97
-62.94
-63.58
-63.64
-62.27
-58.25
-50.47
-38.51
-22.99
-5.53
11.57
26.05
36.21
41.32
41.63
38.15
32.29
25.55
19.24
14.30
11.20
9.93
10.00
10.71
11.36
11.51
11.14
10.61
10.51
11.40
13.59
17.09
21.62
26.73
31.91
36.71
40.73
43.75
45.79
47.05
47.86
48.48
48.93
48.98
48.29
46.67
44.25
41.60
39.52
38.69
39.39
41.29
43.56
45.19
45.38
43.79
40.67
36.78
33.11
30.62
29.87
30.72
32.11
32.23
28.88
20.26
5.78
-13.53
-35.14
-55.79
-72.50
-83.49
-88.47
-88.43
-84.99
-79.75
-73.88
-68.07
-62.58
-57.49
-52.81
-48.58
-44.85
-41.64
-38.99
-36.79
-34.85
-32.88
-30.62
-27.93
-24.89
-21.74
-18.76
-16.13
-13.83
-11.67
-9.49
-7.37
-5.58
-4.45
-4.06
-4.08
-3.85
-2.80
-0.73
1.94
4.42
5.92
6.14
5.36
4.27
3.51
3.32
3.45
3.41
2.84
1.68
0.23
-1.15
-2.26
-3.11
-3.80
-4.35
-4.58
-4.17
-2.91
-0.81
1.78
4.39
6.60
8.26
9.47
10.46
11.35
12.02
12.15
11.40
9.73
7.57
5.80
5.50
7.50
11.91
17.97
24.38
29.75
33.24
34.89
35.51
36.37
38.71
43.50
50.98
60.28
69.05
73.46
69.13
52.58
22.98
-16.94
-61.44
-103.61
-137.72
-160.98
-173.64
-177.87
-176.01
-169.27
-157.63
-140.56
-118.04
-91.07
-61.55
-31.68
-3.40
21.89
43.31
60.27
72.39
79.55
82.09
80.89
77.21
72.43
67.68
63.62
60.37
57.65
54.96
51.84
47.99
43.37
38.25
33.10
28.52
24.99
22.74
21.61
21.04
20.23
18.32
14.89
10.04
4.42
-1.13
-5.92
-9.80
-13.12
-16.44
-20.21
-24.42
-28.68
-32.45
-35.28
-37.01
-37.72
-37.60
-36.83
-35.53
-33.74
-31.47
-28.82
-25.96
-23.17
-20.81
-19.21
-18.49
-18.47
-18.65
-18.56
-18.01
-17.32
-17.27
-18.67
-21.82
-26.14
-30.20
-32.11
-30.16
-23.39
-12.06
2.36
17.44
30.34
38.56
40.64
36.68
28.40
18.63
10.45
6.19
6.66
11.03
17.20
22.61
25.06
23.24
16.90
6.71
-5.81
-18.44
-28.48
-33.07
-29.90
-18.08
1.26
24.84
48.06
66.41
76.90
78.92
73.99
64.77
53.69
42.00
29.51
15.13
-2.30
-23.17
-46.77
-71.35
-94.31
-112.53
-122.65
-121.73
-108.15
-82.53
-48.16
-10.38
24.93
53.25
72.74
84.30
90.51
94.02
96.28
97.24
95.98
91.65
84.11
74.07
62.89
52.21
43.60
38.23
36.51
37.80
40.48
42.53
42.28
39.24
34.13
28.46
23.60
20.08
17.50
14.94
11.65
7.37
2.33
-3.05
-8.41
-13.35
-17.31
-19.60
-19.78
-18.08
-15.63
-14.10
-14.88
-18.25
-23.14
-27.56
-29.53
-27.94
-22.81
-15.01
-5.60
4.70
15.54
26.76
38.06
48.89
58.53
66.34
71.91
75.00
75.40
72.89
67.54
60.10
52.43
47.20
46.89
52.24
61.17
68.97
69.99
60.06
38.41
8.01
-25.88
-58.10
-85.64
-108.07
-126.56
-142.11
-154.24
-161.05
-160.32
-151.14
-134.88
-114.97
-95.63
-80.09
-69.40
-62.21
-55.85
-47.65
-36.22
-21.82
-5.82
10.04
24.53
37.15
47.83
56.62
63.63
69.04
73.15
76.46
79.19
81.20
82.04
80.85
76.63
68.94
58.64
48.25
41.86
43.28
54.36
73.49
94.37
107.69
104.85
82.05
42.56
-3.66
-44.82
-71.11
-77.93
-67.46
-46.76
-23.70
-3.67
11.66
24.19
35.38
45.74
54.58
59.30
56.77
45.50
26.46
2.56
-21.99
-45.86
-69.84
-89.18
-98.11
-92.91
-74.42
-47.20
-22.85
-0.79
20.11
38.56
50.73
54.05
44.23
18.92
-20.48
-68.19
-113.90
-147.17
-158.83
-143.28
-101.27
-40.67
26.43
87.10
131.05
153.36
152.81
131.90
95.35
47.94
-6.89
-66.36
-127.47
-186.16
-236.48
-272.74
-290.63
-289.30
-272.56
-248.13
-224.45
-207.61
-199.89
-200.13
-206.37
-216.98
-230.66
-245.33
-257.16
-260.60
-250.27
-223.45
-181.18
-127.87
-69.04
-9.08
49.41
104.68
154.50
195.47
223.93
237.73
237.57
227.10
211.58
195.70
181.99
170.33
158.69
144.90
128.06
109.25
91.04
76.27
66.56
61.84
60.27
59.36
57.10
52.78
47.22
42.87
43.48
53.17
74.90
108.52
149.38
188.62
215.44
220.75
200.15
155.36
93.26
23.71
-42.74
-96.41
-129.61
-138.07
-122.31
-88.49
-47.08
-9.22
17.87
33.67
43.47
54.20
69.36
86.67
99.19
99.68
84.73
56.53
21.31
-14.45
-46.85
-75.67
-102.65
-129.02
-154.34
-177.39
-198.58
-221.43
-251.74
-294.09
-348.00
-406.18
-456.38
-486.30
-488.80
-464.86
-422.56
-373.00
-325.62
-285.22
-251.89
-222.96
-195.39
-167.25
-137.78
-106.77
-74.16
-39.67
-3.36
34.26
72.42
110.57
149.00
188.79
231.08
275.94
321.61
364.15
398.43
419.66
425.02
414.44
390.49
357.38
319.83
282.38
247.95
217.00
187.39
155.57
118.75
76.96
33.87
-4.23
-30.05
-39.49
-33.42
-16.79
4.59
27.36
51.68
79.76
113.05
152.41
194.96
234.76
264.63
279.11
276.38
258.36
229.34
194.41
162.13
139.16
128.68
129.43
137.65
149.81
164.08
180.09
198.12
222.92
257.18
300.22
347.49
393.13
432.91
464.85
488.29
473.00
401.70
277.54
126.91
-17.05
-132.43
-213.66
-266.23
-299.37
-321.17
-329.70
-325.67
-311.44
-293.04
-277.84
-270.76
-272.46
-279.96
-288.82
-291.77
-284.63
-268.12
-248.57
-234.63
-233.17
-247.26
-276.51
-318.35
-366.62
-414.79
-456.08
-484.39
-494.43
-482.68
-448.93
-397.21
-335.07
-269.96
-207.86
-151.70
-101.83
-56.65
-13.48
30.38
76.73
125.62
175.29
221.62
259.14
282.38
287.90
275.55
248.73
213.29
176.20
144.18
122.83
115.78
123.93
145.04
173.95
203.88
228.49
243.66
248.34
243.69
231.55
213.39
190.18
163.38
135.90
112.03
96.11
90.50
94.22
103.06
111.40
114.69
111.23
102.41
91.56
82.03
75.85
73.24
73.03
73.31
71.87
66.31
54.36
34.54
6.97
-26.06
-60.62
-92.64
-119.80
-142.40
-162.69
-182.98
-203.92
-224.22
-242.14
-257.05
-269.90
-281.98
-293.06
-300.71
-301.44
-293.12
-276.84
-256.57
-236.98
-220.62
-206.71
-192.17
-173.93
-150.87
-124.34
-97.15
-72.15
-51.27
-35.30
-23.75
-14.60
-4.22
12.16
39.08
79.09
131.56
192.51
255.48
313.06
358.46
386.65
395.14
384.36
357.64
320.63
279.90
241.27
208.38
182.21
161.59
144.27
128.13
111.85
95.11
78.28
62.16
47.63
35.43
25.98
19.22
14.54
10.92
7.15
2.15
-4.73
-13.62
-24.03
-34.91
-44.91
-52.64
-57.19
-58.44
-57.24
-55.02
-53.26
-52.80
-53.49
-54.44
-54.52
-53.07
-50.22
-46.84
-44.01
-42.50
-42.31
-42.64
-42.20
-39.73
-34.53
-26.70
-17.08
-6.93
2.56
10.68
17.25
22.47
26.72
30.31
33.49
36.54
39.83
43.73
48.39
53.59
58.64
62.60
64.66
64.38
61.80
57.17
50.57
41.57
29.21
12.32
-9.83
-36.92
-67.14
-97.52
-124.61
-145.50
-158.66
-164.33
-164.22
-160.88
-156.82
-153.82
-152.65
-153.09
-154.26
-155.01
-154.26
-151.16
-145.24
-136.47
-125.30
-112.72
-100.11
-88.94
-80.39
-75.05
-72.64
-72.16
-72.21
-71.44
-68.93
-64.33
-57.70
-49.37
-39.84
-29.69
-19.63
-10.42
-2.65
3.40
7.86
11.13
13.66
15.70
17.22
18.09
18.28
18.08
17.95
18.20
18.71
18.87
17.92
15.40
11.56
7.25
3.63
1.56
1.36
2.68
4.84
7.11
8.95
10.02
10.18
9.45
8.01
6.22
4.57
3.53
3.40
4.27
6.13
8.91
12.52
16.69
20.92
24.46
26.61
26.89
25.35
22.53
19.21
16.18
13.94
12.60
12.02
11.96
12.20
12.62
13.20
13.87
14.55
15.15
15.51
15.52
15.17
14.56
13.87
13.31
12.94
12.63
12.14
11.25
10.02
8.78
8.09
8.41
9.91
12.35
15.14
17.62
19.22
19.56
18.49
16.07
12.57
8.49
4.48
1.16
-1.12
-2.48
-3.33
-4.08
-4.87
-5.40
-5.20
-3.92
-1.63
1.20
3.90
5.88
6.74
6.23
4.21
0.63
-4.27
-9.83
-15.07
-18.96
-20.86
-20.83
-19.56
-17.95
-16.69
-15.91
-15.36
-14.58
-13.34
-11.70
-9.92
-8.30
-6.88
-5.46
-3.68
-1.29
1.68
4.86
7.68
9.58
10.24
9.72
8.33
6.41
4.19
1.62
-1.47
-5.21
-9.50
-13.95
-18.03
-21.25
-23.37
-24.44
-24.74
-24.63
-24.47
-24.47
-24.65
-24.81
-24.62
-23.73
-21.88
-19.03
-15.37
-11.37
-7.46
-3.91
-0.74
2.27
5.37
8.61
11.74
14.28
15.71
15.77
14.58
12.58
10.46
8.81
8.05
8.34
9.61
11.56
13.72
15.45
16.10
15.21
12.60
8.49
3.35
-2.32
-8.10
-13.64
-18.60
-22.42
-24.36
-23.65
-19.80
-12.87
-3.63
6.62
16.34
24.09
28.96
30.76
30.01
27.75
25.17
23.17
22.10
21.77
21.71
21.45
20.76
19.73
18.51
17.18
15.62
13.64
11.13
8.21
5.19
2.39
0.01
-1.99
-3.78
-5.49
-7.06
-8.28
-8.86
-8.61
-7.58
-5.94
-3.96
-1.89
0.08
1.81
3.24
4.43
5.47
6.59
7.95
9.65
11.61
13.60
15.29
16.36
16.66
16.25
15.37
14.35
13.46
12.81
12.31
11.71
10.73
9.21
7.21
4.95
2.71
0.70
-1.03
-2.55
-3.94
-5.23
-6.34
-7.08
-7.29
-6.95
-6.20
-5.33
-4.67
-4.54
-5.19
-6.88
-9.73
-13.72
-18.46
-23.20
-26.93
-28.76
-28.30
-25.79
-21.97
-17.76
-13.90
-10.72
-8.29
-6.62
-5.87
-6.25
-7.85
-10.46
-13.58
-16.59
-18.97
-20.49
-21.16
-21.12
-20.53
-19.56
-18.41
-17.27
-16.28
-15.35
-14.23
-12.59
-10.23
-7.27
-4.14
-1.36
0.71
2.08
3.09
4.16
5.57
7.39
9.47
11.52
13.34
14.77
15.74
16.22
16.19
15.70
14.93
14.07
13.32
12.81
12.52
12.27
11.86
11.07
9.82
8.16
6.28
4.43
2.91
1.91
1.51
1.71
2.40
3.54
5.07
6.92
8.99
11.15
13.20
15.01
16.52
17.66
18.37
18.59
18.21
17.22
15.73
13.95
12.17
10.59
9.29
8.19
7.19
6.20
5.17
4.05
2.68
0.76
-1.99
-5.69
-10.14
-14.86
-19.26
-22.90
-25.60
-27.37
-28.28
-28.26
-27.13
-24.73
-21.19
-16.95
-12.75
-9.29
-6.97
-5.80
-5.49
-5.81
-6.75
-8.47
-11.09
-14.34
-17.56
-19.92
-20.90
-20.61
-19.90
-20.04
-22.06
-26.38
-32.54
-39.46
-45.78
-50.25
-51.92
-50.23
-45.04
-36.77
-26.42
-15.53
-5.79
1.48
5.75
7.47
7.74
7.83
8.74
10.89
14.35
18.96
24.49
30.73
37.38
43.95
49.86
54.69
58.24
60.60
62.01
62.56
62.10
60.27
56.74
51.45
44.82
37.64
30.84
25.19
21.06
18.30
16.39
14.68
12.65
10.02
6.80
3.12
-0.96
-5.44
-10.38
-15.84
-21.55
-26.94
-31.24
-33.65
-33.67
-31.27
-26.99
-21.74
-16.62
-12.53
-10.00
-9.10
-9.51
-10.74
-12.29
-13.86
-15.33
-16.70
-17.93
-18.83
-19.12
-18.55
-17.06
-14.87
-12.49
-10.57
-9.61
-9.82
-11.00
-12.67
-14.15
-14.88
-14.41
-12.53
-9.26
-4.87
0.00
4.40
7.18
7.45
5.05
0.85
-3.36
-5.50
-3.96
1.60
10.18
19.83
28.38
34.17
36.35
34.85
30.11
22.82
13.84
4.16
-5.05
-12.75
-18.26
-21.43
-22.60
-22.25
-20.62
-17.55
-12.59
-5.34
4.02
14.61
24.91
33.08
37.30
36.15
28.87
15.78
-1.39
-19.50
-34.49
-42.52
-41.39
-31.51
-15.78
1.41
15.98
25.65
30.38
31.70
31.53
30.88
29.66
27.08
22.58
16.49
10.03
4.73
1.70
1.16
2.44
4.42
6.16
7.15
7.34
6.90
5.97
4.47
2.25
-0.83
-4.63
-8.68
-12.24
-14.55
-15.20
-14.24
-12.26
-10.06
-8.36
-7.45
-7.02
-6.46
-5.22
-3.16
-0.67
1.53
2.88
3.22
2.90
2.51
2.59
3.41
4.93
7.00
9.51
12.49
15.92
19.62
23.09
25.65
26.65
25.70
22.83
18.31
12.66
6.51
0.57
-4.35
-7.48
-8.29
-6.70
-3.17
1.43
6.15
10.28
13.43
15.50
16.41
16.03
14.25
11.14
7.20
3.24
0.18
-1.32
-1.09
0.63
3.31
6.40
9.41
11.90
13.54
14.07
13.43
11.79
9.46
6.77
3.95
1.15
-1.54
-3.98
-6.04
-7.62
-8.81
-9.81
-10.85
-12.06
-13.41
-14.73
-15.82
-16.51
-16.69
-16.26
-15.16
-13.42
-11.25
-9.03
-7.20
-6.03
-5.49
-5.30
-5.01
-4.23
-2.86
-1.10
0.60
1.77
2.08
1.47
0.09
-1.74
-3.66
-5.43
-6.93
-8.17
-9.23
-10.27
-11.41
-12.74
-14.36
-16.25
-18.34
-20.40
-22.09
-23.07
-23.15
-22.44
-21.33
-20.32
-19.73
-19.53
-19.33
-18.53
-16.62
-13.41
-9.06
-3.99
1.28
6.25
10.56
13.94
16.24
17.45
17.80
17.77
17.99
19.05
21.29
24.54
28.13
31.03
32.22
31.04
27.54
22.46
17.04
12.64
10.40
11.04
14.71
21.02
28.97
36.86
42.46
43.49
38.44
27.31
11.92
-4.53
-18.54
-27.55
-30.72
-28.91
-23.92
-17.53
-10.88
-4.48
1.30
5.79
7.93
6.68
1.83
-5.68
-13.82
-20.18
-22.94
-21.51
-16.64
-10.02
-3.48
1.68
4.93
6.39
6.49
5.56
3.78
1.26
-1.78
-4.81
-7.08
-7.92
-6.96
-4.36
-0.79
2.79
5.45
6.57
6.04
4.12
1.29
-1.98
-5.37
-8.68
-11.70
-14.15
-15.72
-16.15
-15.52
-14.27
-13.15
-12.90
-14.01
-16.48
-19.82
-23.15
-25.53
-26.20
-24.78
-21.37
-16.42
-10.64
-4.65
1.10
6.48
11.54
16.40
21.07
25.40
29.09
31.76
33.05
32.80
31.13
28.46
25.48
22.95
21.40
20.92
21.01
20.68
18.82
14.62
7.92
-0.59
-9.44
-16.77
-20.84
-20.67
-16.42
-9.38
-1.61
4.80
8.39
8.72
6.35
2.43
-1.87
-5.67
-8.61
-10.67
-11.98
-12.69
-12.82
-12.42
-11.47
-10.03
-8.15
-5.93
-3.50
-1.06
1.11
2.76
3.63
3.59
2.56
0.56
-2.31
-5.79
-9.46
-12.76
-15.04
-15.85
-15.04
-12.93
-10.17
-7.50
-5.54
-4.49
-4.22
-4.32
-4.38
-4.25
-3.98
-3.84
-4.01
-4.52
-5.14
-5.61
-5.75
-5.66
-5.58
-5.78
-6.37
-7.18
-7.89
-8.22
-8.10
-7.73
-7.45
-7.55
-8.11
-8.93
-9.71
-10.16
-10.21
-10.06
-10.02
-10.36
-11.05
-11.78
-12.07
-11.50
-9.91
-7.46
-4.49
-1.33
1.79
4.77
7.52
9.94
11.86
13.13
13.69
13.57
12.92
11.83
10.39
8.63
6.53
4.13
1.47
-1.34
-4.09
-6.41
-7.87
-8.14
-7.05
-4.85
-2.01
0.92
3.51
5.61
7.29
8.66
9.71
10.37
10.52
10.33
10.23
10.79
12.45
15.26
18.70
21.99
24.35
25.32
24.92
23.43
21.18
18.31
14.63
9.76
3.41
-4.31
-12.84
-21.20
-28.28
-33.21
-35.52
-35.20
-32.52
-27.93
-21.92
-15.03
-7.87
-1.14
4.41
8.17
9.85
9.69
8.43
7.11
6.64
7.50
9.51
11.95
14.01
15.18
15.55
15.65
16.06
17.00
18.19
19.03
18.99
17.94
16.13
13.98
11.85
9.92
8.27
7.08
6.71
7.53
9.79
13.36
17.75
22.31
26.42
29.73
32.17
33.90
35.18
36.28
37.31
38.29
39.03
39.36
39.09
38.18
36.71
34.74
32.31
29.41
26.08
22.52
19.12
16.28
14.27
13.05
12.28
11.51
10.46
9.16
7.94
7.21
7.24
7.99
9.19
10.44
11.45
12.12
12.54
12.87
13.16
13.33
13.07
12.03
9.91
6.71
2.63
-1.97
-6.65
-11.13
-15.18
-18.67
-21.45
-23.31
-24.03
-23.46
-21.63
-18.73
-15.12
-11.25
-7.64
-4.82
-3.26
-3.35
-5.22
-8.66
-13.10
-17.77
-21.78
-24.42
-25.26
-24.22
-21.65
-18.21
-14.74
-12.10
-10.77
-10.58
-10.70
-10.02
-7.72
-3.90
0.32
3.16
2.92
-1.31
-9.26
-19.76
-31.27
-42.45
-52.44
-60.73
-66.92
-70.64
-71.60
-69.82
-65.83
-60.56
-55.04
-50.10
-46.02
-42.55
-39.08
-34.99
-30.03
-24.47
-18.94
-14.16
-10.61
-8.39
-7.17
-6.47
-5.81
-4.88
-3.50
-1.48
1.35
5.04
9.43
14.13
18.67
22.71
26.19
29.26
32.15
34.94
37.38
39.08
39.62
38.78
36.58
33.19
28.82
23.75
18.43
13.50
9.76
7.85
8.00
9.85
12.61
15.37
17.37
18.20
17.72
15.96
13.03
9.15
4.80
0.68
-2.41
-3.83
-3.36
-1.30
1.69
4.82
7.41
9.16
10.10
10.48
10.58
10.63
10.67
10.64
10.45
9.97
9.18
8.07
6.66
4.92
2.87
0.56
-1.76
-3.78
-5.02
-5.11
-3.87
-1.43
1.75
5.02
7.72
9.45
10.13
10.04
9.65
9.34
9.34
9.57
9.80
9.74
9.22
8.20
6.86
5.50
4.41
3.81
3.71
3.89
3.99
3.62
2.51
0.59
-1.97
-4.80
-7.42
-9.34
-10.21
-9.90
-8.62
-6.86
-5.27
-4.46
-4.83
-6.37
-8.70
-11.21
-13.23
-14.27
-14.13
-12.89
-10.86
-8.42
-5.92
-3.59
-1.66
-0.34
0.13
-0.38
-1.85
-4.03
-6.46
-8.66
-10.27
-11.19
-11.55
-11.63
-11.68
-11.87
-12.24
-12.74
-13.31
-13.95
-14.63
-15.33
-15.90
-16.04
-15.38
-13.66
-10.86
-7.27
-3.46
-0.12
2.17
3.09
2.63
1.10
-1.02
-3.14
-4.72
-5.43
-5.20
-4.23
-2.87
-1.53
-0.55
-0.20
-0.64
-1.92
-3.99
-6.54
-9.13
-11.25
-12.55
-12.94
-12.64
-12.02
-11.41
-10.97
-10.57
-9.91
-8.57
-6.19
-2.64
1.85
6.79
11.42
15.02
17.08
17.37
15.95
13.14
9.38
5.21
1.23
-1.99
-4.03
-4.67
-4.05
-2.49
-0.47
1.56
3.31
4.63
5.54
6.18
6.67
6.99
6.93
6.16
4.40
1.70
-1.50
-4.45
-6.44
-7.14
-6.72
-5.75
-4.84
-4.33
-4.06
-3.57
-2.31
-0.07
2.89
5.88
8.11
9.11
9.02
8.62
8.91
10.72
14.08
18.37
22.49
25.46
26.83
26.76
25.86
24.79
24.02
23.58
23.23
22.45
20.70
17.70
13.50
8.61
3.75
-0.35
-3.43
-5.63
-7.35
-8.88
-10.02
-10.12
-8.42
-4.51
1.34
8.19
14.81
20.08
23.29
24.22
23.00
19.97
15.48
9.88
3.57
-2.85
-8.55
-12.57
-13.97
-12.15
-7.01
1.04
11.08
22.05
32.89
42.74
50.95
57.25
61.69
64.65
66.78
68.73
71.03
73.83
76.84
79.34
80.23
78.31
72.57
62.73
49.46
34.42
19.72
7.26
-1.83
-7.44
-10.17
-10.86
-10.35
-9.39
-8.81
-9.51
-12.12
-16.55
-21.83
-26.29
-28.36
-27.26
-23.39
-17.91
-11.97
-6.10
-0.03
6.96
15.45
25.55
36.92
49.01
61.00
71.54
78.36
78.23
67.71
44.68
9.64
-33.74
-79.41
-120.94
-153.55
-175.31
-186.98
-190.70
-188.61
-182.16
-172.35
-160.43
-148.22
-137.78
-130.48
-126.20
-123.42
-120.09
-114.80
-107.43
-98.93
-90.49
-82.61
-74.82
-65.95
-54.93
-41.48
-26.39
-11.17
2.49
13.26
20.53
24.31
24.90
22.76
18.39
12.53
6.32
1.32
-0.89
0.77
6.37
14.82
24.27
32.71
38.65
41.40
41.18
38.94
36.10
34.24
34.71
38.08
43.66
49.46
52.70
50.74
42.21
27.74
9.79
-7.99
-21.94
-29.46
-29.47
-22.57
-10.66
3.40
16.25
24.30
24.21
13.89
-6.67
-34.53
-64.00
-87.86
-99.62
-95.67
-76.66
-47.24
-14.34
15.19
36.60
48.07
50.38
45.76
36.76
25.56
14.02
3.86
-3.21
-5.83
-3.43
3.36
12.85
22.83
31.39
37.49
41.10
42.90
43.78
44.34
44.73
44.76
44.19
42.90
40.96
38.53
35.73
32.60
29.20
25.57
21.86
18.26
15.03
12.44
10.74
9.89
9.35
8.11
5.07
-0.04
-6.03
-10.22
-9.40
-1.49
13.16
31.71
50.08
64.75
74.25
79.07
80.62
79.82
76.46
69.95
60.63
50.75
44.25
45.19
55.66
74.45
97.18
117.73
130.46
132.03
122.18
103.26
78.95
52.75
27.09
3.16
-18.62
-37.94
-54.22
-66.69
-74.73
-78.18
-77.44
-73.29
-66.66
-58.46
-49.51
-40.66
-32.79
-26.68
-22.81
-21.07
-20.76
-20.72
-19.81
-17.37
-13.48
-8.93
-4.84
-2.19
-1.38
-2.14
-3.70
-5.24
-6.24
-6.59
-6.55
-6.48
-6.56
-6.74
-6.86
-6.81
-6.67
-6.81
-7.63
-9.40
-12.06
-15.09
-17.78
-19.36
-19.38
-17.74
-14.67
-10.57
-5.81
-0.66
4.66
9.92
14.82
18.97
22.01
23.68
23.91
22.85
20.96
18.99
17.90
18.77
22.49
29.38
38.84
49.31
58.53
64.30
65.40
62.24
56.99
52.83
52.85
58.79
70.12
84.13
96.63
102.99
99.35
83.46
55.28
17.27
-25.73
-67.15
-100.01
-118.62
-120.21
-105.73
-79.46
-47.62
-16.48
9.23
26.98
36.28
37.89
33.15
23.54
10.60
-4.09
-19.13
-33.55
-47.08
-60.04
-72.94
-85.92
-98.50
-109.61
-118.00
-122.74
-123.56
-120.76
-115.00
-107.03
-97.42
-86.69
-75.32
-63.87
-52.98
-43.31
-35.49
-29.94
-26.68
-25.15
-24.24
-22.47
-18.43
-11.11
-0.32
13.38
28.78
44.14
57.50
66.93
71.05
69.44
63.11
54.53
47.06
43.92
47.16
56.82
70.64
84.63
94.12
94.97
84.83
63.57
33.22
-2.79
-40.57
-76.61
-108.17
-133.23
-150.34
-158.60
-157.81
-148.77
-133.27
-113.76
-92.82
-72.59
-54.44
-38.94
-25.96
-15.03
-5.51
2.89
9.99
14.96
16.75
14.64
8.98
1.39
-5.58
-9.43
-8.79
-4.06
2.75
8.91
12.07
11.06
6.19
-1.12
-9.03
-15.89
-20.62
-22.78
-22.41
-19.80
-15.37
-9.64
-3.29
2.90
8.16
12.00
14.35
15.60
16.21
16.21
15.04
11.75
5.79
-2.15
-9.91
-14.55
-13.67
-6.68
4.67
17.19
27.65
34.14
36.48
35.68
32.76
28.04
21.16
11.82
0.60
-10.79
-20.05
-25.31
-25.85
-22.38
-16.61
-10.51
-5.64
-2.73
-1.69
-1.95
-2.72
-3.44
-3.88
-4.24
-4.79
-5.63
-6.43
-6.43
-4.85
-1.24
4.19
10.60
16.88
22.05
25.65
27.76
29.01
30.22
32.16
35.26
39.38
43.86
47.79
50.41
51.38
50.84
49.20
46.64
43.00
37.78
30.61
21.67
11.82
2.40
-5.27
-10.41
-12.87
-13.05
-11.60
-9.15
-6.24
-3.39
-1.06
0.41
0.87
0.49
-0.31
-1.10
-1.55
-1.57
-1.28
-0.87
-0.46
-0.09
0.33
0.94
1.86
3.08
4.46
5.68
6.33
6.15
5.06
3.34
1.50
0.05
-0.73
-1.07
-1.64
-3.40
-7.15
-13.28
-21.53
-30.94
-39.92
-46.38
-48.15
-43.60
-32.34
-15.61
3.82
22.38
36.94
45.73
48.76
47.40
43.51
38.51
33.05
27.20
21.06
15.12
10.28
7.47
7.11
8.96
12.15
15.59
18.46
20.38
21.44
21.90
21.90
21.36
20.07
17.85
14.83
11.39
8.03
5.20
3.14
1.85
1.17
0.73
0.05
-1.49
-4.47
-9.26
-15.74
-23.25
-30.80
-37.39
-42.31
-45.35
-46.73
-46.88
-46.23
-45.02
-43.38
-41.39
-39.24
-37.36
-36.37
-36.85
-39.05
-42.63
-46.63
-49.79
-50.96
-49.55
-45.67
-40.01
-33.43
-26.74
-20.61
-15.65
-12.30
-10.68
-10.27
-9.90
-7.94
-2.87
6.32
19.78
36.83
56.16
76.03
94.42
109.15
118.03
119.21
111.42
94.50
69.73
40.03
9.71
-16.08
-32.45
-36.00
-25.83
-3.92
25.37
56.44
83.84
103.38
112.73
111.58
101.35
84.75
65.12
45.59
28.08
12.74
-1.91
-18.21
-37.94
-61.25
-86.27
-109.77
-128.29
-139.39
-142.16
-137.06
-125.42
-108.97
-89.63
-69.55
-51.03
-36.18
-26.50
-22.44
-23.30
-27.49
-33.11
-38.54
-42.95
-46.45
-49.88
-54.29
-60.25
-67.38
-74.40
-79.58
-81.44
-79.31
-73.31
-63.91
-51.50
-36.25
-18.40
1.31
21.57
40.68
57.17
70.22
79.68
85.71
88.33
87.39
82.81
75.08
65.45
55.76
47.78
42.57
40.16
39.76
40.30
40.98
41.56
42.29
43.67
46.09
49.71
54.34
59.56
64.70
69.06
71.90
72.71
71.20
67.34
61.19
52.95
42.88
31.40
19.29
7.59
-2.44
-9.64
-13.18
-12.81
-8.95
-2.56
5.05
12.58
19.10
24.27
28.33
31.87
35.38
38.84
41.51
42.33
40.51
36.20
30.73
26.14
24.24
25.79
30.00
34.87
37.99
37.30
31.69
20.99
5.79
-12.86
-33.51
-54.42
-73.60
-89.21
-99.99
-105.61
-106.66
-104.29
-99.68
-93.78
-87.22
-80.50
-74.24
-69.06
-65.33
-62.85
-60.78
-57.87
-52.98
-45.60
-36.07
-25.48
-15.23
-6.61
-0.45
3.12
4.64
5.17
5.81
7.36
9.93
12.99
15.72
17.51
18.37
18.84
19.69
21.26
23.39
25.51
27.10
28.12
28.97
30.18
31.89
33.62
34.49
33.73
31.14
27.35
23.54
20.85
19.81
19.94
20.04
18.66
14.89
8.80
1.49
-5.26
-9.65
-10.40
-7.25
-0.93
6.92
14.11
18.27
17.28
9.82
-4.26
-23.63
-45.59
-66.59
-83.05
-92.21
-92.86
-85.52
-72.19
-55.65
-38.60
-22.99
-9.72
1.17
10.06
17.32
23.11
27.38
30.11
31.61
32.47
33.46
35.09
37.37
39.84
41.77
42.49
41.64
39.23
35.50
30.70
25.00
18.41
10.92
2.58
-6.33
-15.36
-23.87
-31.14
-36.47
-39.27
-39.19
-36.13
-30.27
-21.99
-11.79
-0.37
11.38
22.24
30.77
35.58
35.77
31.28
22.99
12.57
2.01
-6.89
-12.82
-15.12
-13.80
-9.42
-3.13
3.60
9.10
11.99
11.47
7.59
1.29
-6.00
-12.65
-17.38
-19.40
-18.62
-15.56
-11.24
-6.89
-3.74
-2.61
-3.80
-6.93
-11.05
-14.92
-17.38
-17.66
-15.62
-11.71
-6.86
-2.16
1.44
3.35
3.43
1.95
-0.57
-3.61
-6.77
-9.83
-12.65
-15.16
-17.20
-18.58
-19.19
-19.00
-18.16
-16.83
-15.12
-13.00
-10.40
-7.42
-4.32
-1.58
0.41
1.58
2.30
3.30
5.30
8.73
13.47
18.88
24.13
28.49
31.63
33.64
34.96
36.10
37.57
39.64
42.30
45.23
47.80
49.20
48.52
45.07
38.49
29.01
17.34
4.55
-8.11
-19.52
-28.89
-35.88
-40.56
-43.18
-43.97
-43.01
-40.31
-35.91
-30.19
-23.69
-17.11
-10.97
-5.53
-0.80
3.34
6.99
10.20
12.99
15.41
17.54
19.36
20.69
21.22
20.73
19.20
16.89
14.19
11.45
8.88
6.61
4.78
3.66
3.50
4.38
6.05
7.91
9.15
8.99
6.93
3.02
-2.17
-7.59
-11.98
-14.25
-13.84
-10.98
-6.57
-1.83
2.20
5.03
6.69
7.57
7.99
8.01
7.47
6.27
4.50
2.54
0.81
-0.46
-1.34
-2.04
-2.73
-3.34
-3.64
-3.37
-2.59
-1.65
-1.11
-1.43
-2.73
-4.84
-7.34
-9.95
-12.51
-15.02
-17.31
-19.16
-20.36
-20.85
-20.91
-20.95
-21.40
-22.38
-23.61
-24.40
-23.89
-21.30
-16.17
-8.49
1.15
11.63
21.48
29.26
33.90
35.00
32.80
27.99
21.20
12.84
3.04
-7.88
-19.09
-29.13
-35.99
-38.10
-34.93
-27.55
-18.29
-9.88
-4.34
-2.40
-3.50
-6.38
-9.90
-13.34
-16.33
-18.63
-19.74
-19.20
-16.79
-12.90
-8.35
-4.08
-0.63
1.94
3.90
5.55
6.94
7.91
8.38
8.56
8.78
9.03
8.57
5.98
-0.00
-9.56
-21.21
-31.97
-38.52
-38.59
-31.80
-19.84
-5.56
8.23
19.49
27.14
30.70
29.77
24.12
14.09
1.25
-11.60
-21.14
-24.70
-21.43
-12.54
-0.86
10.45
19.12
24.33
26.48
26.39
24.60
21.19
16.17
9.92
3.39
-2.20
-5.99
-7.86
-8.38
-8.53
-9.19
-10.90
-13.90
-18.20
-23.89
-31.20
-40.37
-51.48
-64.10
-77.21
-89.23
-98.46
-103.69
-104.70
-102.21
-97.35
-90.69
-81.74
-69.20
-52.11
-30.98
-8.17
13.12
30.91
46.33
63.98
90.19
129.95
183.74
246.37
308.39
359.67
393.24
407.21
404.13
388.21
362.43
327.43
282.93
230.39
174.70
123.32
82.89
55.78
38.52
23.43
2.71
-28.00
-68.31
-114.74
-163.60
-213.49
-265.32
-320.49
-378.47
-435.29
-484.11
-517.48
-529.89
-519.53
-488.83
-443.35
-389.95
-334.64
-281.08
-230.48
-182.25
-135.18
-88.05
-40.44
7.72
56.36
105.78
156.73
209.64
263.87
317.27
366.54
407.64
437.07
452.67
454.07
442.37
418.84
384.07
338.20
282.90
221.08
156.62
93.50
35.34
-15.14
-56.93
-91.28
-120.62
-145.45
-165.79
-181.18
-190.95
-194.09
-189.54
-178.08
-162.63
-146.20
-127.42
-104.03
-75.29
-43.57
-13.08
12.44
30.70
41.61
49.19
63.61
93.15
139.69
198.01
259.76
318.16
369.48
412.18
418.40
373.06
282.87
173.43
69.60
-16.69
-83.63
-127.67
-156.10
-172.21
-172.71
-155.30
-121.53
-76.76
-30.15
12.63
48.16
73.49
88.16
96.61
103.84
113.12
124.29
134.35
139.20
134.30
115.84
84.61
47.27
11.77
-16.77
-38.49
-57.34
-77.36
-100.18
-124.32
-145.01
-156.86
-157.94
-151.28
-143.69
-142.22
-150.82
-169.39
-194.14
-218.58
-235.69
-240.11
-229.74
-206.03
-173.25
-136.86
-102.06
-72.53
-49.69
-33.22
-21.85
-14.28
-9.69
-7.64
-7.62
-8.94
-10.63
-11.84
-12.04
-11.15
-9.73
-8.83
-9.63
-13.55
-22.01
-36.27
-57.12
-84.19
-115.55
-147.72
-176.28
-196.97
-206.97
-205.48
-193.81
-174.54
-150.61
-124.66
-98.85
-75.09
-55.28
-41.19
-33.81
-32.63
-35.41
-38.87
-40.14
-38.28
-34.84
-33.32
-37.41
-48.90
-66.89
-88.12
-108.38
-124.11
-133.62
-137.29
-136.96
-134.91
-132.83
-131.51
-130.61
-128.71
-123.40
-111.52
-89.77
-55.76
-9.24
47.32
108.45
167.07
216.83
254.32
279.79
296.17
306.93
314.15
318.55
319.08
314.52
305.07
292.77
280.32
269.25
259.02
247.40
233.79
218.23
201.74
186.29
174.37
167.68
165.99
167.24
168.63
170.50
173.13
176.43
180.21
184.79
190.60
197.38
203.73
207.67
210.47
211.76
209.23
200.26
184.29
163.46
141.65
122.83
88.70
34.79
-31.02
-96.29
-153.71
-201.38
-238.69
-264.62
-278.62
-281.68
-273.26
-255.81
-234.09
-212.90
-194.96
-180.64
-169.12
-159.53
-151.50
-142.75
-132.75
-122.46
-113.38
-106.02
-99.59
-92.72
-84.36
-75.21
-64.18
-51.87
-40.03
-30.08
-22.63
-16.69
-10.34
-1.83
9.79
24.90
42.64
61.18
78.04
89.44
91.94
83.61
65.12
40.01
13.46
-9.41
-25.38
-34.48
-40.85
-49.59
-64.53
-87.40
-113.89
-140.74
-165.44
-186.65
-195.30
-186.62
-161.29
-124.90
-84.25
-44.20
-7.90
23.15
48.36
67.55
80.17
86.64
88.62
88.53
88.73
90.17
92.82
95.88
97.57
96.08
90.25
79.99
66.26
50.59
34.07
17.39
3.38
-8.09
-18.15
-27.83
-37.44
-46.48
-53.83
-58.52
-59.95
-58.18
-54.46
-50.58
-48.25
-48.44
-50.89
-54.26
-56.78
-57.06
-54.81
-51.23
-48.18
-47.38
-49.39
-53.44
-58.07
-62.23
-65.71
-68.65
-70.68
-69.58
-62.12
-45.61
-19.97
11.76
44.25
72.45
93.75
108.00
115.86
116.34
106.35
82.95
47.17
6.15
-28.34
-44.68
-37.23
-9.38
27.55
59.20
73.94
67.16
41.82
5.83
-31.69
-63.85
-86.97
-100.43
-105.73
-105.54
-102.87
-99.93
-97.25
-93.33
-85.44
-70.77
-48.34
-20.02
9.79
35.57
52.85
60.13
59.14
53.57
47.34
42.87
40.74
40.57
41.68
44.14
48.46
54.94
63.11
71.75
79.66
86.31
92.80
100.70
110.86
121.98
129.98
129.32
115.66
88.49
51.06
12.78
-17.25
-33.67
-36.37
-29.44
-18.26
-6.84
3.19
11.99
20.25
27.64
33.20
36.25
36.96
36.57
36.70
38.66
42.61
47.79
52.38
54.57
53.26
48.23
40.12
30.11
19.25
8.05
-3.43
-15.72
-29.24
-43.14
-57.03
-69.99
-80.86
-88.86
-93.76
-95.88
-96.06
-95.26
-94.09
-93.09
-92.26
-91.31
-89.91
-87.70
-84.40
-79.78
-74.63
-67.89
-58.96
-47.32
-32.57
-14.65
6.16
29.16
53.20
77.20
99.03
116.86
129.52
136.47
137.79
133.91
125.39
112.76
96.37
76.64
54.20
30.11
6.73
-14.44
-32.03
-45.28
-54.33
-60.31
-64.78
-69.04
-73.71
-78.47
-82.47
-84.82
-85.06
-83.53
-81.38
-79.96
-80.35
-83.33
-89.39
-98.52
-109.40
-119.48
-123.89
-118.15
-100.07
-71.34
-37.46
-5.91
16.89
28.07
28.90
23.30
15.27
7.18
-0.64
-8.90
-18.02
-27.35
-35.45
-41.08
-43.97
-45.02
-45.46
-46.34
-47.66
-48.44
-47.25
-43.07
-35.27
-24.41
-11.95
0.31
10.90
19.14
25.17
29.83
34.04
38.57
43.68
49.23
54.88
60.31
65.39
70.13
74.51
78.35
81.25
82.59
81.69
78.04
71.47
62.21
50.86
38.22
25.11
12.27
0.26
-10.58
-20.07
-28.22
-35.11
-40.90
-45.81
-50.08
-53.95
-57.52
-60.92
-64.27
-67.65
-71.14
-74.78
-78.64
-82.80
-87.35
-92.18
-97.23
-102.46
-107.84
-113.35
-118.97
-124.73
-130.67
-136.86
-143.11
-149.24
-155.03
-160.21
-164.42
-167.22
-168.06
-166.25
-162.99
-158.76
-153.91
-148.72
-143.34
-137.90
-132.46
-127.13
-122.09
-117.62
-113.75
-110.56
-108.04
-106.02
-104.22
-102.27
-99.86
-96.77
-93.00
-88.35
-82.66
-75.58
-66.49
-54.65
-39.41
-20.44
2.01
27.07
53.65
80.54
106.77
131.80
155.50
177.91
198.92
218.07
234.64
247.93
257.57
263.82
267.62
270.41
273.88
279.63
288.98
302.49
319.52
337.69
353.04
360.85
357.18
340.42
312.13
276.59
239.19
204.36
174.21
148.32
124.95
102.53
80.72
60.36
42.70
28.60
18.05
10.52
5.49
2.88
2.90
5.69
10.72
16.80
22.45
26.51
28.44
28.31
26.49
23.30
19.01
13.88
8.34
2.99
-1.65
-5.24
-7.76
-9.41
-10.51
-11.27
-11.83
-12.32
-12.77
-13.18
-13.40
-13.28
-12.77
-12.08
-11.59
-11.78
-12.99
-15.10
-17.44
-18.94
-18.58
-15.76
-10.55
-3.54
4.35
12.21
19.55
26.40
33.23
40.62
48.78
57.26
65.43
72.27
76.95
79.41
80.69
82.79
87.90
97.28
110.37
125.47
139.39
148.52
150.43
144.88
134.11
122.10
113.03
109.67
113.73
123.92
136.07
144.65
144.97
135.41
118.94
102.86
96.91
111.86
153.52
219.85
300.83
381.63
447.61
489.20
504.41
485.10
431.28
347.84
243.24
127.75
11.83
-95.33
-186.78
-258.62
-310.49
-343.53
-361.41
-368.71
-369.22
-365.01
-356.54
-343.33
-325.34
-303.66
-279.20
-253.86
-229.76
-208.56
-190.90
-176.07
-163.30
-151.94
-141.76
-132.21
-123.51
-116.13
-110.49
-106.39
-102.97
-99.00
-93.22
-84.66
-72.47
-57.00
-39.32
-20.92
-2.96
14.03
30.10
45.63
61.08
76.54
90.35
100.63
104.17
97.84
79.61
49.01
7.06
-40.34
-85.86
-123.65
-150.68
-167.55
-177.12
-182.43
-185.02
-184.54
-186.18
-187.47
-185.60
-179.96
-173.11
-169.84
-175.71
-195.24
-230.72
-274.34
-315.80
-343.90
-349.01
-326.22
-277.27
-210.56
-139.80
-81.20
-47.87
-45.68
-71.82
-115.69
-162.61
-198.93
-216.19
-208.09
-178.03
-136.47
-95.85
-65.16
-47.11
-39.40
-40.47
-47.24
-57.10
-67.85
-76.16
-77.91
-69.95
-51.04
-23.25
8.91
40.72
68.63
90.54
106.60
118.41
127.81
135.84
143.04
149.48
155.88
163.88
175.74
194.48
223.16
263.99
312.15
360.81
401.86
428.35
436.43
425.96
400.04
363.57
321.40
277.23
233.98
193.41
156.49
123.72
95.21
70.97
50.93
34.80
21.85
11.59
3.27
-3.85
-10.26
-16.06
-20.87
-24.09
-25.20
-24.24
-21.58
-18.20
-15.21
-13.36
-12.76
-12.80
-12.54
-11.13
-7.97
-2.53
5.45
15.49
25.64
32.22
30.64
17.31
-8.23
-42.25
-77.73
-107.02
-125.00
-130.75
-127.15
-118.72
-109.19
-100.11
-91.24
-81.86
-71.99
-62.70
-55.33
-50.56
-47.85
-45.83
-42.88
-37.95
-31.15
-23.34
-15.84
-9.58
-4.74
-0.57
4.05
10.33
18.89
29.48
41.05
51.94
60.44
65.17
65.41
61.10
52.80
41.54
28.42
14.68
1.05
-12.08
-24.61
-36.53
-47.71
-57.74
-65.81
-71.37
-73.55
-72.51
-69.29
-65.61
-63.30
-63.72
-67.12
-72.42
-77.85
-81.30
-81.65
-78.97
-74.56
-70.58
-69.61
-73.99
-84.55
-99.67
-114.95
-124.02
-120.28
-100.15
-63.99
-18.02
27.36
61.37
76.53
71.31
50.14
21.67
-4.45
-20.21
-21.19
-6.96
19.26
51.48
82.39
104.73
114.03
109.36
93.16
69.96
44.86
21.99
3.74
-9.29
-17.67
-22.70
-26.14
-29.42
-33.46
-38.31
-42.99
-46.00
-45.82
-41.57
-32.98
-20.61
-5.28
12.19
31.03
50.74
70.79
91.38
112.52
133.04
149.78
157.92
152.73
132.09
98.33
58.03
20.08
-8.57
-24.75
-29.74
-27.74
-23.12
-18.52
-14.37
-10.17
-5.65
-1.52
1.04
1.34
-0.07
-1.59
-1.31
2.12
8.65
17.00
25.29
32.00
36.49
39.05
40.52
41.42
41.45
39.25
33.09
21.66
5.14
-14.39
-33.53
-48.59
-56.82
-57.36
-51.53
-41.92
-31.73
-23.09
-16.61
-11.63
-7.42
-3.78
-1.78
-3.38
-9.73
-22.19
-40.74
-64.24
-90.54
-116.40
-136.93
-145.93
-139.11
-113.81
-73.98
-29.58
7.06
26.49
26.43
12.77
-4.04
-14.12
-12.70
-1.71
12.98
25.24
31.28
29.97
21.63
6.99
-12.45
-33.20
-50.19
-57.47
-50.79
-29.72
2.08
37.65
68.65
87.83
90.85
76.68
48.12
10.93
-27.81
-61.15
-84.58
-97.50
-102.65
-104.24
-105.52
-107.41
-108.87
-108.09
-103.46
-94.04
-79.33
-58.61
-31.07
3.10
42.29
84.03
124.30
160.75
193.20
221.81
244.65
256.79
252.41
228.57
188.55
141.63
98.88
67.05
45.57
28.37
9.50
-12.06
-32.34
-46.55
-54.48
-62.42
-79.73
-112.29
-157.21
-202.17
-231.52
-234.52
-210.74
-169.47
-123.74
-84.09
-55.07
-38.37
-32.52
-34.64
-43.00
-57.74
-78.17
-102.30
-124.83
-138.95
-139.53
-124.89
-97.63
-63.74
-29.58
0.16
25.60
49.74
76.02
105.82
138.42
171.86
204.38
235.09
262.44
285.56
302.84
313.43
319.21
325.58
339.47
364.96
399.68
422.45
412.75
360.07
272.79
174.79
91.44
36.97
10.71
3.45
1.15
-2.48
-7.41
-11.06
-12.19
-13.07
-18.47
-33.62
-60.96
-100.36
-147.86
-199.30
-251.93
-304.42
-355.39
-401.37
-436.07
-452.14
-444.75
-412.85
-361.50
-300.06
-238.84
-185.58
-143.85
-113.38
-91.63
-75.51
-60.94
-44.05
-21.89
6.49
38.83
69.01
89.13
92.59
76.69
47.33
16.81
-3.06
-6.62
4.83
25.38
48.93
71.39
90.96
107.36
120.31
129.11
133.44
135.18
135.16
133.61
129.86
122.27
108.57
86.24
52.97
7.24
-46.93
-102.19
-149.05
-178.68
-186.05
-172.34
-144.88
-114.71
-91.63
-80.35
-79.74
-84.38
-88.90
-89.43
-85.31
-77.40
-66.93
-53.68
-36.07
-12.81
15.70
46.70
75.83
98.31
111.41
114.78
110.78
103.67
97.78
95.61
96.94
99.48
97.07
86.64
68.13
44.58
21.29
4.18
-2.15
4.96
26.02
59.26
101.14
141.78
168.44
170.49
145.62
101.76
53.52
14.84
-6.94
-12.17
-5.91
3.34
9.37
9.50
3.59
-6.94
-19.88
-32.54
-43.74
-49.94
-49.85
-45.87
-42.38
-43.31
-50.05
-61.58
-75.87
-91.23
-107.03
-123.57
-140.63
-156.45
-169.18
-178.07
-184.33
-190.55
-198.90
-211.20
-226.42
-241.55
-251.84
-253.06
-242.62
-220.18
-187.50
-148.27
-107.22
-69.21
-38.14
-15.01
0.78
10.69
15.81
16.26
11.16
-0.43
-18.22
-45.56
-80.88
-120.51
-159.75
-194.02
-219.07
-231.62
-229.65
-212.53
-181.43
-138.17
-85.76
-27.74
32.55
93.01
151.55
205.61
251.89
286.52
307.14
312.83
304.82
286.24
263.17
241.58
226.38
221.22
228.08
247.46
276.43
307.97
332.32
343.40
339.90
327.08
315.01
313.87
329.35
359.24
394.27
422.34
437.54
439.62
433.44
425.67
421.63
424.54
435.64
455.23
461.11
439.58
386.43
308.20
216.62
120.37
22.84
-74.24
-165.93
-242.84
-291.90
-306.91
-293.62
-268.58
-251.50
-255.48
-281.25
-318.91
-354.50
-375.05
-375.62
-359.44
-334.01
-306.42
-280.62
-257.37
-236.27
-217.75
-202.11
-189.47
-178.28
-164.89
-144.72
-114.84
-76.83
-37.74
-7.52
6.29
2.29
-13.59
-31.42
-41.98
-41.82
-32.76
-20.25
-9.49
-2.62
0.67
1.77
0.77
-3.29
-11.39
-22.73
-35.04
-45.67
-53.10
-57.54
-58.82
-55.35
-44.02
-23.00
5.74
35.55
57.66
65.47
57.71
39.98
20.96
7.94
2.87
2.17
0.22
-6.76
-18.58
-32.67
-45.03
-53.08
-56.08
-54.62
-49.60
-41.15
-28.76
-8.09
20.73
54.79
88.88
116.81
132.92
133.22
116.43
85.14
45.99
6.03
-29.16
-56.90
-76.74
-89.34
-96.02
-97.86
-95.90
-91.21
-85.56
-80.36
-76.33
-73.42
-71.08
-68.79
-66.13
-63.30
-60.90
-60.10
-61.54
-64.92
-69.05
-72.63
-74.73
-75.16
-74.58
-73.98
-74.61
-77.59
-83.74
-93.15
-104.61
-115.11
-120.16
-115.49
-99.14
-73.29
-44.07
-19.27
-5.11
-3.59
-12.37
-25.53
-37.20
-43.46
-42.94
-36.03
-23.49
-5.74
17.03
43.74
71.90
98.37
120.07
134.69
141.65
142.06
138.12
132.16
125.98
120.31
115.01
109.39
102.73
94.77
86.09
77.59
70.19
64.49
60.52
58.02
56.47
55.31
54.18
53.28
52.89
53.23
54.97
56.91
58.13
57.69
54.63
48.60
39.98
29.74
19.06
8.89
-0.32
-8.41
-15.71
-22.85
-30.18
-37.24
-42.85
-45.46
-43.55
-36.54
-24.93
-9.59
7.80
25.56
42.57
58.28
73.29
86.92
98.29
106.79
111.93
112.72
107.57
94.15
70.06
34.44
-10.80
-60.23
-106.06
-140.09
-157.33
-157.79
-145.58
-126.63
-106.06
-86.93
-70.42
-56.73
-45.84
-38.08
-33.08
-29.44
-25.23
-18.52
-8.36
4.69
18.75
31.61
41.03
45.92
46.17
42.44
35.50
25.76
13.30
-2.02
-20.06
-40.83
-63.70
-86.78
-106.58
-118.31
-117.51
-102.12
-73.96
-38.87
-4.85
21.19
35.91
40.29
38.29
34.40
31.41
29.92
28.96
27.28
24.68
21.94
20.18
20.01
21.18
22.75
23.31
21.77
17.54
10.73
2.11
-7.11
-15.38
-21.18
-23.39
-21.61
-16.23
-8.36
0.59
9.23
16.47
21.89
25.57
28.14
30.46
33.40
37.20
40.79
41.45
35.54
20.33
-4.30
-34.06
-62.07
-81.11
-86.97
-79.86
-63.90
-44.96
-28.07
-15.94
-8.34
-2.93
3.87
15.38
33.77
58.68
86.26
109.91
122.76
121.05
105.97
83.04
59.29
39.60
24.83
12.20
-2.08
-20.16
-41.13
-61.91
-78.72
-88.88
-91.63
-87.56
-78.67
-67.22
-55.67
-45.59
-36.99
-27.94
-15.76
1.68
24.34
49.46
72.50
88.09
91.45
79.26
51.28
11.29
-32.45
-68.37
-84.80
-74.39
-37.96
14.57
67.34
104.97
118.59
108.95
85.00
58.71
39.92
32.87
35.61
42.62
47.79
46.98
38.30
21.67
-2.40
-32.06
-63.99
-92.89
-111.69
-113.10
-92.58
-51.45
1.85
53.50
89.52
101.38
89.55
62.82
33.57
11.81
1.18
-0.87
0.32
0.70
-0.42
-1.28
-0.09
2.81
4.66
1.80
-8.38
-25.88
-48.19
-71.37
-91.51
-106.07
-114.49
-117.96
-118.53
-117.86
-116.01
-111.51
-102.34
-87.25
-66.95
-44.24
-23.09
-6.99
2.36
5.76
5.05
1.94
-3.01
-10.55
-21.36
-34.80
-48.00
-56.75
-57.44
-49.15
-34.19
-16.54
0.80
18.40
40.62
72.92
117.59
170.79
221.97
257.16
264.37
238.50
182.92
107.97
26.64
-49.22
-111.33
-155.30
-179.52
-184.41
-173.05
-151.39
-128.45
-114.26
-115.83
-133.90
-161.48
-186.09
-194.96
-181.33
-147.97
-106.64
-73.32
-61.51
-77.07
-116.49
-168.97
-220.46
-259.61
-279.75
-278.53
-255.97
-213.44
-153.58
-81.24
-3.73
70.86
134.08
179.65
206.00
217.36
222.38
230.10
246.41
272.00
304.41
337.32
363.08
376.35
376.39
366.82
353.34
341.58
335.31
338.03
348.31
359.79
363.80
352.75
322.49
272.82
207.34
118.22
13.38
-88.02
-166.70
-213.76
-231.53
-227.84
-211.19
-188.38
-163.99
-138.52
-111.77
-86.12
-65.23
-51.92
-47.48
-52.29
-66.51
-91.54
-123.79
-158.53
-190.52
-213.25
-219.68
-205.05
-169.97
-121.37
-70.17
-25.48
7.01
26.28
35.55
39.95
43.31
46.66
48.87
48.55
46.34
43.82
42.18
41.51
41.00
39.48
36.18
31.26
24.83
16.66
5.08
-12.56
-38.02
-70.16
-104.32
-133.50
-148.97
-147.64
-131.30
-105.32
-76.11
-48.53
-24.83
-5.39
10.04
21.49
28.29
30.58
29.45
26.68
24.27
23.92
26.47
31.70
38.81
46.39
53.34
58.91
62.57
64.16
63.95
62.41
59.95
56.89
53.08
48.00
40.98
31.24
18.85
5.01
-7.86
-17.09
-20.61
-17.89
-10.21
-0.42
7.76
11.11
7.89
-2.26
-18.91
-40.41
-63.14
-81.42
-88.69
-80.97
-58.75
-28.03
1.58
20.14
22.49
10.63
-7.99
-24.41
-33.70
-35.59
-33.37
-30.53
-29.27
-28.99
-27.38
-22.55
-10.02
8.64
30.32
50.18
69.44
89.49
110.68
131.29
147.83
156.08
151.55
131.06
94.70
48.06
-0.81
-44.35
-78.48
-102.92
-119.72
-131.92
-141.25
-147.53
-149.46
-146.58
-139.61
-130.43
-121.33
-114.31
-111.17
-112.76
-118.58
-126.32
-132.32
-131.68
-119.81
-94.53
-57.89
-16.10
22.63
51.29
66.86
70.49
66.23
58.32
49.39
39.94
29.76
19.25
9.99
4.44
4.07
9.65
20.00
32.92
46.02
57.74
67.39
74.90
80.38
82.89
81.80
76.18
65.27
49.13
28.97
6.84
-14.84
-33.77
-48.52
-58.45
-63.96
-66.17
-66.38
-65.93
-65.37
-65.00
-64.81
-64.83
-64.79
-64.33
-62.97
-60.01
-54.59
-45.92
-33.50
-17.36
1.31
21.34
41.32
59.71
75.29
87.23
95.25
99.53
100.52
98.84
95.26
90.46
84.92
79.05
73.16
67.55
62.45
57.96
54.15
50.92
48.03
45.18
42.18
38.99
35.86
33.18
31.20
30.17
30.02
30.37
30.69
30.54
29.77
28.79
28.80
30.40
34.24
40.48
48.60
57.32
65.53
71.58
74.64
74.81
73.13
71.33
70.95
72.05
72.72
69.16
57.14
34.05
0.54
-39.17
-78.32
-109.94
-128.92
-133.16
-123.75
-104.43
-80.59
-58.20
-42.67
-37.56
-43.19
-56.83
-73.47
-87.92
-97.07
-100.78
-100.91
-99.34
-95.88
-87.89
-72.12
-47.03
-14.67
19.41
48.10
65.51
68.96
59.72
42.10
21.68
3.95
-6.96
-8.91
-2.70
8.06
17.91
21.33
15.09
-0.31
-20.59
-39.60
-52.08
-55.96
-53.16
-48.49
-47.41
-53.82
-69.07
-91.95
-120.07
-149.20
-174.94
-193.66
-203.13
-202.73
-193.18
-176.77
-156.97
-137.91
-123.49
-116.53
-117.91
-125.67
-135.21
-139.88
-133.81
-114.21
-82.34
-43.01
-2.97
31.78
58.57
79.21
99.95
127.47
164.98
209.98
254.55
288.50
303.57
297.53
275.61
249.67
232.03
230.95
248.86
283.24
328.67
377.96
422.66
453.66
464.37
450.69
412.50
354.89
286.45
215.68
147.61
82.87
10.60
-69.14
-145.52
-203.30
-232.78
-235.59
-222.31
-205.87
-195.32
-192.67
-193.59
-190.84
-180.94
-165.10
-148.20
-136.21
-133.32
-140.11
-153.65
-168.93
-180.08
-184.75
-181.99
-170.29
-146.83
-108.87
-56.99
2.84
59.65
102.29
125.39
133.50
137.98
149.97
172.99
200.20
217.96
211.93
175.26
111.94
34.19
-44.73
-116.58
-179.88
-237.17
-278.82
-293.73
-277.76
-237.06
-182.79
-125.11
-71.07
-24.71
12.86
43.16
67.43
86.78
102.55
116.35
128.11
136.30
139.06
135.12
124.38
106.00
79.09
46.48
12.27
-19.58
-46.10
-65.41
-77.05
-81.69
-81.87
-80.40
-78.80
-77.45
-76.05
-74.74
-74.17
-74.79
-75.03
-71.09
-57.56
-30.72
7.83
49.81
82.86
96.17
85.34
54.78
14.96
-22.76
-51.12
-68.72
-77.42
-78.62
-70.56
-50.81
-19.83
15.86
44.90
56.06
44.15
13.22
-25.83
-59.27
-77.76
-79.54
-69.51
-55.59
-44.45
-38.45
-34.11
-28.17
-14.31
10.18
42.95
76.51
101.08
108.84
98.23
75.20
50.31
34.45
32.63
42.42
56.08
65.11
64.52
54.62
39.39
23.17
8.72
-4.51
-18.39
-34.62
-53.19
-72.36
-88.68
-98.85
-100.88
-94.34
-81.39
-65.23
-49.36
-37.01
-30.97
-33.01
-44.60
-66.30
-94.78
-125.98
-154.11
-173.12
-179.44
-173.51
-158.62
-139.86
-120.87
-102.21
-81.71
-55.47
-20.10
26.23
77.57
128.16
170.98
200.99
217.18
223.05
226.28
236.44
260.52
299.79
349.63
399.97
438.93
456.65
447.48
412.09
357.51
293.01
226.95
166.21
114.53
72.84
40.24
13.66
-9.37
-28.26
-43.11
-55.49
-66.15
-75.69
-84.73
-94.27
-108.11
-129.88
-159.41
-198.44
-249.95
-313.75
-385.75
-458.48
-522.83
-574.27
-610.66
-628.51
-629.79
-619.92
-601.70
-574.45
-535.67
-465.12
-359.95
-259.67
-185.01
-137.67
-116.01
-109.84
-103.75
-83.72
-43.28
10.65
64.78
110.18
139.77
150.72
146.77
134.32
118.77
103.36
88.01
74.18
68.10
72.45
84.62
99.40
111.64
118.94
123.37
128.74
139.77
160.49
188.94
218.79
244.39
263.38
277.01
288.30
299.15
311.04
325.23
342.16
361.78
383.95
406.64
425.53
435.06
430.67
412.52
384.41
352.16
321.51
297.08
280.65
271.31
266.05
261.10
253.87
240.57
216.64
177.73
122.05
51.08
-29.95
-112.79
-195.45
-266.56
-314.22
-334.36
-334.86
-328.57
-325.58
-327.08
-327.72
-320.27
-298.98
-264.35
-221.15
-176.95
-137.49
-107.19
-88.92
-83.84
-90.54
-105.36
-125.90
-148.94
-176.04
-207.13
-239.23
-266.63
-282.92
-280.44
-254.60
-205.25
-133.80
-47.35
42.70
122.00
177.50
201.80
196.98
181.03
167.15
164.84
178.22
206.36
243.99
284.97
317.41
334.02
321.07
273.27
197.41
110.19
30.85
-27.33
-59.88
-69.69
-62.64
-44.64
-20.89
3.20
21.71
28.37
17.38
-13.62
-62.14
-120.57
-178.29
-219.88
-238.99
-237.78
-220.20
-194.33
-167.88
-145.25
-126.38
-108.62
-88.79
-66.30
-42.18
-17.55
7.58
35.28
68.63
108.97
153.54
195.62
225.49
235.19
222.10
189.41
144.38
95.89
50.56
10.70
-20.31
-39.85
-46.59
-40.21
-21.88
5.36
38.70
74.76
110.36
143.86
174.79
202.85
227.37
246.54
257.05
257.28
245.99
222.75
187.74
145.27
100.84
59.93
25.93
-6.31
-37.49
-66.65
-91.95
-109.54
-118.04
-118.61
-114.34
-101.61
-83.55
-63.06
-43.31
-27.66
-16.62
-12.29
-17.09
-19.89
-13.33
2.90
26.15
51.81
61.52
55.98
38.86
13.30
-19.40
-48.99
-71.86
-84.54
-84.53
-71.46
-44.33
-5.85
39.93
88.83
135.90
175.08
203.45
220.90
227.49
226.70
221.80
216.54
214.31
215.98
218.77
218.98
212.55
191.70
151.65
90.45
10.84
-80.77
-176.96
-271.14
-356.79
-428.48
-488.57
-539.09
-581.02
-612.93
-632.70
-639.99
-637.15
-627.36
-614.46
-609.81
-621.45
-651.74
-696.71
-749.17
-803.12
-855.87
-906.83
-906.16
-825.74
-665.70
-456.37
-239.29
-45.38
112.01
232.89
324.38
393.96
439.89
460.83
459.01
441.54
417.96
396.01
374.56
357.87
348.20
340.22
329.55
315.28
300.77
291.29
290.24
298.38
314.90
336.46
355.21
364.69
361.59
346.10
323.73
297.87
270.41
242.71
214.61
183.85
149.21
111.23
72.13
34.92
1.50
-27.41
-51.79
-73.01
-93.48
-115.37
-140.07
-167.84
-197.39
-226.28
-250.61
-265.88
-268.94
-258.93
-237.82
-209.77
-179.83
-152.11
-129.24
-111.87
-99.38
-91.00
-86.04
-84.09
-84.79
-87.83
-92.82
-99.60
-108.14
-118.49
-130.67
-143.87
-156.35
-165.72
-169.71
-166.92
-157.59
-143.44
-127.18
-111.66
-97.63
-83.92
-68.04
-47.94
-23.02
5.23
33.91
59.56
79.22
92.93
102.79
111.94
122.29
133.83
144.46
151.35
152.44
147.63
141.54
141.42
154.98
187.09
239.26
309.94
396.21
494.40
585.78
648.77
663.63
622.13
532.04
413.91
291.39
183.31
99.18
38.93
-2.57
-32.63
-52.56
-65.89
-73.56
-75.08
-70.65
-63.42
-58.72
-61.02
-72.75
-93.15
-119.45
-147.44
-174.23
-195.40
-207.61
-208.14
-194.59
-165.53
-121.43
-66.29
-7.41
47.13
89.70
107.86
93.69
47.39
-21.97
-100.35
-172.23
-233.34
-282.58
-319.25
-342.68
-348.67
-333.26
-293.97
-230.77
-145.72
-47.48
52.09
140.95
210.40
257.87
285.44
297.39
297.96
290.11
275.23
255.21
232.54
209.82
189.51
172.62
158.81
146.87
135.68
124.26
112.23
98.34
80.00
54.67
21.73
-15.75
-51.22
-77.53
-89.88
-87.98
-76.08
-60.38
-46.11
-35.85
-30.23
-27.84
-28.60
-31.82
-35.30
-35.66
-29.86
-17.45
-1.67
11.13
14.59
5.66
-13.18
-36.07
-54.10
-62.07
-60.34
-53.65
-47.49
-45.40
-47.63
-52.03
-56.55
-60.61
-65.40
-72.57
-82.54
-93.65
-103.58
-110.40
-113.38
-113.02
-110.71
-108.12
-104.72
-98.71
-87.51
-69.29
-43.99
-13.58
18.18
46.97
69.13
82.70
87.39
84.20
74.42
59.00
38.49
13.58
-14.29
-42.36
-66.80
-83.69
-89.60
-82.42
-61.62
-28.33
13.77
57.68
94.68
116.48
118.03
100.43
70.91
40.06
17.87
9.43
13.05
21.62
27.20
23.91
11.37
-5.49
-19.86
-26.93
-26.33
-21.91
-19.18
-22.34
-32.73
-49.13
-70.15
-95.58
-125.44
-157.44
-184.11
-194.03
-177.57
-132.44
-66.13
6.43
69.24
111.80
132.21
135.51
129.49
120.01
109.57
98.51
86.92
75.83
66.84
61.57
59.89
60.21
60.14
57.52
51.78
43.91
36.03
30.22
28.05
29.58
33.63
38.21
41.54
42.82
42.24
41.83
41.62
41.76
41.79
40.51
36.66
29.37
18.88
6.25
-6.97
-19.38
-29.79
-37.73
-43.42
-47.42
-50.33
-52.05
-52.54
-51.72
-49.77
-46.86
-43.41
-39.99
-37.08
-34.99
-32.97
-30.51
-27.26
-23.23
-18.68
-14.13
-10.23
-7.17
-4.83
-1.68
3.82
12.75
25.29
40.55
56.51
70.66
81.18
81.00
70.15
51.89
30.17
7.73
-14.60
-37.85
-63.89
-93.29
-125.55
-157.73
-186.06
-206.14
-214.54
-209.71
-191.98
-163.33
-126.31
-85.21
-44.58
-7.06
26.99
60.04
96.63
142.43
196.71
258.02
321.45
368.64
384.32
362.83
311.21
244.07
175.27
113.08
60.75
17.74
-17.25
-43.28
-59.03
-64.37
-61.40
-53.82
-45.75
-39.75
-37.06
-37.59
-39.00
-38.87
-35.78
-29.86
-22.35
-14.71
-7.83
-2.14
2.08
5.50
8.89
12.71
16.98
21.40
25.63
29.49
33.33
37.81
43.66
50.21
54.50
51.38
35.28
3.03
-44.03
-99.47
-154.10
-198.77
-227.61
-239.38
-236.60
-223.36
-201.14
-173.21
-141.42
-107.56
-74.16
-44.29
-20.39
-3.29
7.91
15.20
20.44
25.02
29.30
32.76
34.55
34.21
32.03
28.97
26.29
24.68
24.47
25.33
26.45
26.95
26.32
24.60
22.33
20.16
18.54
17.71
17.56
17.70
17.68
17.25
16.42
15.45
14.60
14.00
13.71
13.67
13.78
13.96
14.19
14.68
15.76
17.75
20.85
25.09
30.28
36.04
41.65
46.14
48.62
48.26
44.36
36.70
25.58
11.86
-3.05
-17.41
-29.45
-37.33
-39.66
-35.87
-26.01
-11.04
7.36
27.06
45.68
60.74
70.48
73.46
68.87
56.80
37.97
13.59
-14.45
-43.95
-72.76
-98.11
-117.72
-129.61
-132.28
-125.07
-108.37
-83.22
-50.18
-13.70
21.73
53.73
80.05
98.73
108.32
107.94
97.73
78.11
50.21
16.27
-21.39
-59.45
-94.35
-122.73
-142.06
-150.59
-148.04
-135.11
-108.81
-73.81
-34.75
4.32
40.15
69.01
89.88
101.34
102.66
94.66
78.74
58.48
38.09
21.50
11.33
8.65
12.69
21.67
33.47
45.36
55.74
63.14
66.01
61.86
48.11
23.37
-10.95
-50.76
-92.07
-131.52
-166.23
-192.43
-205.24
-199.82
-173.98
-130.47
-77.13
-24.88
16.78
43.01
54.58
56.12
53.14
49.42
46.02
42.24
37.26
31.48
26.50
23.96
24.28
26.55
28.94
29.53
27.36
22.66
16.73
11.45
8.35
7.89
9.45
11.61
12.71
11.61
8.00
2.52
-3.52
-8.72
-12.37
-14.64
-16.56
-19.49
-24.44
-31.41
-39.49
-46.85
-50.62
-48.32
-38.35
-20.44
4.16
32.44
59.75
81.01
92.20
92.23
83.37
70.31
58.11
50.06
46.82
46.52
46.16
42.75
34.31
20.03
0.46
-22.28
-44.55
-61.27
-68.17
-63.09
-47.07
-23.72
1.97
25.67
44.31
55.61
57.96
50.58
34.32
11.25
-15.80
-43.85
-69.96
-90.91
-104.05
-107.16
-100.20
-84.77
-64.09
-41.51
-18.94
3.40
25.96
47.16
62.66
65.29
49.88
16.77
-26.38
-66.47
-90.05
-88.55
-62.22
-18.84
28.87
70.30
100.06
118.73
131.05
140.50
150.67
160.60
173.91
186.55
193.59
189.83
171.27
136.81
88.65
32.11
-26.78
-82.53
-132.44
-174.53
-207.56
-230.43
-242.43
-243.78
-235.47
-219.45
-197.50
-171.26
-140.46
-103.75
-59.81
-9.26
43.74
91.24
122.59
128.41
104.37
55.52
-4.28
-56.57
-85.18
-81.95
-48.62
5.60
69.24
132.31
188.63
233.97
263.96
273.98
261.77
230.95
191.42
156.47
136.03
132.62
139.91
145.92
138.76
112.38
68.54
14.55
-41.05
-93.37
-140.82
-183.84
-223.05
-258.09
-287.53
-309.93
-325.56
-336.86
-348.53
-363.12
-378.75
-389.38
-387.23
-366.52
-326.47
-272.66
-209.59
-149.90
-107.27
-88.70
-91.57
-107.16
-126.78
-145.70
-162.44
-176.52
-186.98
-191.06
-184.68
-164.44
-129.24
-81.05
-23.87
37.12
96.55
148.88
190.47
220.03
237.77
244.58
241.28
229.47
210.98
187.88
162.33
137.44
117.51
106.67
107.62
120.34
143.14
171.56
199.57
221.38
233.77
237.29
235.31
232.30
232.00
238.73
254.74
280.06
312.45
347.12
377.22
395.42
397.03
382.99
362.94
348.42
346.39
355.11
364.20
360.39
334.60
286.64
209.90
111.33
5.31
-93.23
-175.22
-239.77
-289.30
-324.91
-345.81
-351.54
-341.59
-319.53
-292.38
-267.09
-248.99
-239.39
-235.99
-234.59
-230.65
-217.85
-191.47
-149.86
-93.99
-29.83
34.26
90.22
132.18
157.75
169.18
170.26
158.75
138.36
111.22
78.50
42.76
8.00
-21.68
-43.08
-55.40
-60.36
-60.24
-59.37
-62.68
-74.40
-96.72
-129.30
-168.29
-206.89
-237.19
-252.02
-245.79
-221.56
-185.99
-146.21
-107.42
-72.09
-40.90
-14.21
7.49
22.80
30.43
31.39
28.39
24.64
22.81
23.95
27.46
31.97
35.65
36.79
35.44
32.75
30.18
28.95
29.49
31.44
34.12
36.77
38.82
40.63
43.11
47.09
53.02
60.79
69.70
78.91
87.49
94.03
97.28
96.24
90.08
77.88
59.46
35.20
6.70
-23.57
-53.00
-79.38
-101.80
-119.13
-131.23
-137.94
-139.20
-134.42
-123.22
-106.13
-84.62
-61.16
-38.72
-20.21
-7.71
-2.52
-4.91
-14.53
-29.17
-45.51
-58.53
-62.85
-55.26
-36.22
-10.27
15.76
35.74
46.41
48.25
44.03
37.15
29.81
22.89
16.39
10.19
4.61
-0.22
-4.83
-10.32
-17.92
-27.92
-39.62
-50.48
-57.25
-56.77
-46.68
-26.42
1.96
33.53
61.25
77.94
79.71
67.70
47.66
27.50
13.74
8.98
11.51
17.08
21.87
24.28
24.95
25.45
26.75
28.55
29.67
29.34
27.72
26.15
26.21
28.94
34.16
40.62
46.55
50.39
51.44
49.71
45.97
40.73
34.37
26.80
17.78
7.38
-3.87
-14.92
-24.64
-32.05
-36.89
-39.29
-39.81
-39.37
-39.54
-42.16
-48.77
-59.19
-70.78
-78.75
-77.87
-65.43
-43.11
-16.65
6.82
22.13
27.87
25.96
19.09
8.53
-6.09
-25.16
-46.83
-65.82
-76.13
-73.47
-57.57
-32.29
-3.55
23.21
44.77
60.50
70.61
75.63
75.24
69.23
57.51
40.50
18.32
-8.50
-38.91
-71.86
-106.26
-140.96
-174.52
-204.59
-227.57
-239.28
-235.98
-216.58
-184.28
-146.28
-111.47
-87.22
-76.69
-78.20
-87.08
-97.97
-107.58
-115.56
-123.43
-132.99
-145.39
-160.65
-178.32
-198.37
-220.50
-244.39
-269.31
-293.18
-312.83
-324.93
-326.39
-314.67
-291.65
-259.92
-223.19
-185.30
-149.08
-116.03
-86.43
-59.60
-34.41
-9.90
15.16
41.53
69.59
99.39
130.47
161.80
191.77
218.31
238.88
251.59
254.97
248.42
232.28
207.70
176.34
140.11
101.01
60.83
21.48
-15.35
-48.15
-75.70
-97.10
-111.86
-120.01
-122.09
-119.05
-112.07
-102.48
-91.58
-80.55
-70.33
-61.48
-54.23
-48.35
-43.32
-38.24
-32.03
-23.68
-12.45
1.89
18.87
37.18
54.87
69.42
78.41
79.87
72.72
57.05
34.16
6.38
-23.42
-52.29
-77.68
-97.63
-110.88
-116.75
-115.04
-105.89
-89.72
-67.35
-39.99
-9.32
22.67
53.94
82.63
107.27
126.99
141.43
150.66
155.13
155.60
153.09
148.93
144.58
141.43
140.55
142.28
146.27
151.57
157.01
161.65
165.15
167.86
170.69
174.61
180.27
187.71
196.51
206.02
215.73
225.59
235.92
247.32
260.47
276.17
295.21
318.06
344.08
371.14
395.38
412.18
417.69
410.40
391.62
364.55
332.62
298.01
261.46
223.11
183.89
146.14
113.12
87.79
71.62
64.31
64.19
68.99
76.24
83.50
88.35
88.83
83.86
73.52
58.98
41.90
23.96
6.65
-8.79
-21.36
-30.80
-37.71
-43.58
-50.10
-58.17
-67.33
-75.89
-81.80
-83.78
-81.75
-76.60
-69.60
-62.01
-55.09
-50.27
-49.06
-52.39
-59.95
-69.85
-79.20
-85.27
-86.57
-83.24
-76.56
-68.18
-59.26
-50.49
-42.31
-35.27
-30.07
-27.29
-26.94
-28.31
-30.30
-31.91
-32.79
-33.23
-33.87
-35.22
-37.18
-39.06
-39.76
-38.46
-34.74
-29.00
-22.11
-15.03
-8.37
-2.29
3.22
8.02
11.61
13.37
12.83
10.18
6.37
2.66
0.32
0.03
1.84
5.25
9.59
14.11
18.15
21.10
22.35
21.46
18.31
13.19
6.75
-0.08
-6.28
-10.89
-13.11
-12.76
-10.15
-6.23
-2.31
0.41
1.27
0.41
-1.40
-3.23
-4.52
-5.26
-5.95
-7.17
-9.12
-11.47
-13.47
-14.40
-14.01
-12.69
-11.25
-10.50
-10.86
-12.19
-13.92
-15.41
-16.21
-16.20
-15.65
-15.22
-15.71
-17.96
-22.54
-29.52
-38.23
-47.17
-54.27
-57.47
-55.44
-48.09
-36.64
-23.42
-11.06
-1.81
3.13
3.71
0.68
-4.93
-12.15
-20.20
-28.44
-36.08
-42.24
-45.96
-46.46
-43.40
-37.00
-28.18
-18.46
-9.62
-3.24
-0.34
-1.04
-4.59
-9.61
-14.50
-17.92
-19.16
-18.23
-15.62
-12.22
-9.00
-6.62
-5.41
-5.19
-5.50
-5.79
-5.78
-5.38
-4.66
-3.64
-2.20
-0.31
1.87
3.77
4.59
3.68
0.97
-2.89
-6.66
-9.12
-9.62
-8.36
-6.22
-4.33
-3.50
-3.94
-5.29
-6.90
-8.11
-8.60
-8.39
-7.92
-7.82
-8.68
-10.74
-13.71
-16.73
-18.65
-18.59
-16.30
-12.34
-7.81
-3.85
-1.26
-0.23
-0.56
-1.88
-3.88
-6.37
-9.16
-11.82
-13.70
-14.08
-12.46
-8.89
-3.92
1.53
6.53
10.37
12.59
13.00
11.46
8.00
2.90
-3.08
-8.76
-12.82
-14.42
-13.53
-11.04
-8.30
-6.56
-6.46
-7.90
-10.27
-12.82
-14.91
-16.15
-16.28
-15.17
-12.80
-9.40
-5.40
-1.45
1.71
3.41
3.11
0.66
-3.58
-8.67
-13.15
-15.57
-15.01
-11.62
-6.58
-1.72
1.34
1.92
0.49
-1.53
-2.68
-2.17
-0.32
1.68
2.33
0.51
-4.06
-10.81
-18.53
-25.76
-31.09
-33.50
-32.41
-27.80
-20.26
-10.84
-0.95
8.01
14.80
18.62
19.14
16.60
11.75
5.78
0.04
-4.27
-6.40
-6.30
-4.56
-2.21
-0.42
-0.17
-2.00
-5.82
-10.86
-15.67
-18.57
-18.22
-14.26
-7.64
-0.45
5.00
7.09
5.62
1.77
-2.48
-5.50
-6.48
-5.80
-4.46
-3.46
-3.32
-3.95
-5.00
-6.05
-6.92
-7.60
-8.24
-9.05
-10.33
-12.26
-14.69
-16.99
-18.03
-16.60
-12.00
-4.61
3.93
11.34
15.62
16.02
13.46
10.02
7.58
6.86
6.93
5.73
1.50
-6.24
-16.11
-25.48
-31.64
-32.90
-28.92
-20.59
-9.50
2.69
14.26
23.53
28.95
29.37
24.61
15.71
4.84
-5.46
-13.01
-16.77
-16.85
-14.05
-9.41
-3.75
2.34
8.16
12.85
15.51
15.51
12.86
8.31
2.99
-1.84
-5.45
-7.67
-8.73
-9.08
-9.13
-9.15
-9.21
-9.10
-8.24
-6.00
-2.14
2.91
8.01
11.78
13.13
11.88
8.74
5.23
2.64
1.48
1.44
1.75
1.84
1.67
1.54
2.03
4.13
8.30
14.32
21.46
28.78
35.36
40.32
42.93
42.88
41.68
41.05
42.33
46.00
51.93
59.52
67.70
75.32
81.17
86.29
91.63
97.53
103.80
110.27
116.90
123.24
128.09
129.79
129.47
128.44
127.63
127.03
126.20
124.60
121.78
117.92
99.27
61.86
11.73
-38.81
-79.91
-108.62
-126.97
-138.51
-145.99
-150.98
-152.10
-148.56
-141.07
-131.34
-120.92
-110.03
-98.10
-84.36
-69.30
-53.95
-42.19
-39.52
-50.23
-74.16
-105.74
-136.67
-159.53
-170.03
-167.22
-154.07
-135.37
-115.42
-96.49
-77.98
-60.61
-45.32
-33.36
-25.19
-20.41
-17.71
-15.50
-12.18
-7.00
-0.49
6.20
11.83
15.72
17.96
19.31
20.66
22.88
26.23
30.10
33.50
35.49
35.44
33.40
29.99
25.97
22.00
18.84
16.63
15.07
13.73
12.18
10.12
7.38
3.68
-0.97
-6.51
-12.91
-20.23
-28.32
-36.91
-45.55
-52.22
-57.33
-60.97
-63.18
-63.93
-63.42
-61.84
-59.38
-56.18
-52.45
-48.67
-44.98
-42.71
-41.25
-40.41
-40.11
-40.27
-40.70
-41.11
-41.28
-40.66
-38.68
-34.78
-28.59
-19.91
-8.78
4.40
19.01
34.24
49.44
64.68
78.61
90.18
98.84
104.34
106.64
105.77
102.04
96.05
88.50
79.87
70.83
62.09
54.26
47.70
42.39
38.51
36.40
36.28
38.18
42.07
47.79
55.16
63.34
71.20
78.36
84.95
91.08
96.57
101.06
104.12
105.41
103.48
97.04
86.36
72.87
57.92
42.12
25.10
5.58
-18.75
-47.23
-80.15
-116.15
-152.42
-186.47
-216.85
-243.26
-265.94
-285.15
-303.62
-322.83
-341.13
-354.51
-359.46
-354.13
-338.63
-314.46
-264.80
-185.38
-85.37
17.82
109.20
181.11
232.74
266.34
284.66
290.23
282.62
262.67
233.73
201.22
169.25
140.00
113.33
87.39
59.38
23.71
-24.44
-88.05
-160.16
-233.68
-300.18
-351.18
-380.16
-384.76
-369.15
-341.04
-308.55
-277.37
-250.83
-229.33
-211.79
-197.14
-185.14
-176.72
-172.19
-170.43
-169.00
-166.15
-160.92
-153.48
-144.75
-135.81
-127.47
-119.70
-111.80
-102.51
-91.48
-78.91
-65.55
-52.12
-39.01
-26.15
-13.26
-0.22
13.10
26.34
39.23
51.74
64.32
77.77
92.84
109.99
129.33
151.31
175.83
201.75
226.48
246.52
258.59
261.17
255.33
244.36
233.76
227.57
226.41
227.78
228.55
227.39
225.77
226.78
232.98
247.35
268.95
292.42
310.21
316.69
310.93
296.60
279.18
262.70
252.55
250.23
252.71
255.18
255.07
254.18
257.09
268.08
289.33
326.95
384.51
459.80
544.21
625.74
693.00
738.13
758.25
715.12
593.97
410.47
203.89
13.09
-141.53
-257.97
-343.47
-407.14
-454.28
-487.41
-506.61
-514.26
-516.33
-519.58
-528.55
-544.97
-569.91
-600.45
-629.66
-651.74
-665.01
-671.25
-671.31
-662.01
-637.24
-591.94
-525.53
-438.42
-334.20
-219.80
-103.94
6.87
110.14
206.47
297.32
369.33
409.60
413.21
387.61
346.43
301.91
260.50
223.70
190.15
158.00
128.46
104.42
88.27
79.17
74.84
72.25
68.62
61.84
50.68
36.39
21.62
11.41
4.18
-1.97
-9.00
-18.44
-31.05
-46.91
-64.40
-82.81
-98.56
-110.45
-118.17
-122.21
-123.36
-122.11
-118.80
-112.68
-102.82
-88.67
-71.26
-51.56
-30.78
-10.23
9.40
27.66
41.15
50.67
57.50
62.02
64.78
65.97
65.42
63.46
60.40
56.58
52.80
49.41
46.19
43.09
41.38
39.26
36.08
31.91
27.24
23.24
20.66
19.64
20.19
21.43
22.01
21.34
19.35
16.57
14.14
12.89
10.87
8.74
6.35
3.00
-1.21
-5.65
-9.19
-10.66
-9.86
-7.37
-3.63
0.90
6.20
12.35
17.89
19.52
13.06
-4.76
-33.83
-69.93
-107.02
-139.69
-164.81
-181.54
-189.51
-187.11
-171.88
-142.36
-100.66
-53.48
-10.23
21.32
38.39
44.11
45.88
50.45
62.04
80.73
102.62
121.47
130.84
126.19
105.50
72.73
34.96
-0.01
-26.63
-43.37
-52.28
-57.35
-61.06
-64.20
-66.91
-69.90
-74.00
-79.02
-82.69
-80.55
-67.85
-42.32
-5.74
36.56
77.91
113.30
140.13
157.18
163.18
156.20
133.41
97.94
56.60
18.33
-9.06
-22.21
-23.35
-18.12
-12.30
-9.14
-8.14
-7.22
-4.53
0.28
5.99
10.76
13.53
14.26
13.83
13.76
14.71
16.50
18.26
18.79
16.78
12.14
5.30
-2.81
-10.97
-18.55
-25.37
-31.57
-36.62
-41.17
-45.20
-48.55
-51.03
-52.44
-53.02
-53.10
-52.93
-52.60
-52.24
-51.69
-51.01
-50.52
-50.49
-51.33
-53.06
-55.18
-56.80
-57.10
-55.46
-52.01
-48.12
-44.30
-41.44
-39.86
-39.25
-38.85
-38.28
-37.52
-37.33
-38.78
-42.78
-49.88
-60.13
-73.27
-88.54
-104.19
-116.82
-121.67
-113.72
-90.16
-52.30
-5.55
42.05
82.75
111.77
128.39
135.04
135.63
133.17
129.08
123.90
117.84
111.37
105.06
99.36
94.36
90.43
87.82
86.85
88.30
93.05
101.82
114.96
131.61
146.70
156.28
155.37
140.15
110.65
71.21
29.19
-7.86
-35.16
-51.99
-60.62
-65.10
-69.17
-74.00
-79.88
-87.10
-96.43
-109.28
-126.93
-149.10
-171.97
-191.45
-201.42
-196.72
-175.71
-141.54
-101.64
-65.03
-38.49
-24.40
-20.66
-22.04
-23.94
-24.35
-23.53
-22.71
-22.42
-21.54
-17.92
-10.11
2.22
17.45
32.88
46.32
56.82
64.85
71.71
78.65
84.60
89.69
94.36
96.61
95.78
92.59
88.70
85.92
85.39
86.95
89.70
92.16
93.22
93.13
93.06
94.44
98.19
104.45
112.82
122.99
134.50
146.30
156.55
162.44
161.30
152.05
136.12
116.95
98.45
83.32
72.27
64.88
60.37
58.00
56.88
56.18
54.48
50.12
41.89
30.00
16.74
6.05
2.42
9.36
27.89
55.39
85.65
110.48
122.60
118.86
101.85
78.78
57.96
44.57
38.15
33.54
24.44
7.41
-16.37
-42.58
-66.52
-86.03
-102.29
-119.55
-142.33
-173.24
-211.99
-255.83
-300.83
-341.93
-372.81
-386.04
-375.60
-339.23
-280.62
-209.13
-136.67
-73.67
-23.89
16.32
55.16
97.79
143.52
186.65
221.21
245.04
258.84
266.51
271.65
276.48
276.29
264.87
239.34
203.46
165.24
127.83
92.11
57.70
28.86
4.66
-16.11
-34.44
-49.40
-60.67
-77.33
-107.65
-154.62
-208.49
-266.07
-325.78
-386.49
-442.57
-486.17
-519.83
-547.04
-569.58
-578.65
-578.12
-574.87
-575.09
-577.79
-519.51
-368.88
-143.30
46.94
177.99
251.39
293.23
313.07
318.63
317.24
306.95
288.39
267.22
260.38
269.18
286.27
297.83
295.99
280.21
248.59
203.37
150.84
106.32
74.63
55.66
41.65
27.74
12.88
-5.72
-29.07
-55.53
-76.39
-88.08
-89.73
-90.63
-98.35
-114.97
-139.03
-166.56
-193.07
-212.42
-222.87
-226.10
-236.39
-266.02
-319.14
-391.86
-477.14
-568.84
-661.00
-748.33
-765.76
-675.41
-488.32
-258.14
-41.82
124.39
226.14
266.54
262.35
238.78
211.52
190.92
182.80
189.00
206.02
227.55
248.76
268.52
288.96
304.30
308.55
299.55
280.86
258.50
239.12
228.75
231.13
247.49
270.39
291.58
306.62
315.67
320.01
320.03
314.28
295.88
265.24
223.95
176.46
129.06
87.67
54.16
27.44
5.66
-13.15
-29.87
-46.78
-66.11
-89.18
-111.21
-130.67
-145.76
-154.91
-157.80
-154.87
-148.62
-142.49
-139.75
-142.02
-148.78
-155.69
-156.18
-144.25
-116.96
-76.95
-31.38
10.77
42.50
60.84
67.98
68.88
68.43
69.86
73.84
79.13
83.36
83.65
76.85
61.44
38.34
10.54
-16.89
-39.26
-53.96
-61.29
-63.43
-61.74
-54.79
-39.43
-13.86
19.46
53.16
77.81
86.55
77.93
57.26
33.68
15.63
6.77
5.33
6.35
5.40
1.09
-5.85
-12.89
-17.91
-20.27
-21.53
-24.47
-32.11
-45.85
-64.22
-85.80
-108.23
-129.39
-148.02
-163.93
-177.52
-189.52
-200.64
-202.53
-193.15
-174.69
-152.11
-130.01
-110.24
-91.79
-72.83
-53.31
-31.11
-6.26
22.14
56.16
98.30
150.43
214.02
286.45
359.30
424.27
471.53
493.24
485.03
446.84
383.65
304.98
222.77
148.76
91.88
54.34
33.86
25.95
25.60
28.58
31.45
30.95
24.70
12.26
-5.46
-26.47
-47.51
-66.57
-83.46
-99.89
-118.72
-142.42
-168.93
-197.57
-225.82
-247.85
-256.28
-244.31
-209.36
-156.04
-95.95
-44.07
-12.97
-7.67
-21.31
-41.90
-57.06
-58.73
-45.42
-20.81
9.34
41.64
72.39
100.41
124.64
143.25
153.86
154.57
145.56
129.11
107.88
84.43
60.53
35.85
9.05
-20.89
-53.95
-85.85
-114.07
-136.63
-152.66
-162.35
-167.70
-171.76
-177.62
-187.42
-200.66
-213.96
-221.17
-215.94
-194.79
-159.72
-117.92
-78.71
-50.08
-35.04
-31.17
-32.29
-31.97
-26.46
-15.62
-2.07
13.00
29.38
48.34
71.31
98.76
129.67
162.09
193.98
222.39
246.49
264.36
272.84
268.12
247.94
213.60
170.30
125.53
86.12
55.94
34.34
17.94
3.19
-12.43
-29.17
-46.15
-62.50
-77.95
-92.29
-105.12
-115.01
-119.86
-117.90
-108.18
-91.39
-69.62
-45.68
-21.76
-0.29
17.87
33.02
45.98
57.53
68.03
77.26
84.70
89.93
92.89
94.28
94.99
95.84
97.16
98.85
100.18
100.06
97.52
91.87
83.19
71.99
58.54
43.18
26.57
9.18
-8.58
-26.32
-43.47
-59.05
-72.37
-82.94
-90.89
-96.40
-100.14
-103.10
-106.25
-110.33
-115.24
-120.97
-124.98
-127.87
-129.48
-129.62
-128.33
-126.02
-125.26
-125.41
-126.37
-127.37
-127.21
-123.66
-114.62
-98.89
-76.79
-50.04
-20.97
7.42
32.81
53.44
68.99
80.04
87.73
93.27
97.71
101.85
105.63
108.79
110.40
109.69
105.94
98.58
87.06
71.14
51.25
27.50
1.88
-23.60
-47.29
-68.12
-85.47
-99.34
-109.83
-117.03
-121.07
-121.91
-119.87
-115.45
-110.30
-104.53
-98.54
-92.82
-87.80
-83.93
-81.44
-80.69
-81.94
-85.43
-91.19
-99.44
-110.16
-123.24
-138.43
-155.32
-173.50
-192.50
-211.74
-230.42
-248.57
-265.66
-281.08
-294.15
-304.23
-310.86
-313.75
-312.85
-308.23
-300.31
-289.57
-276.60
-261.98
-246.24
-229.75
-212.72
-195.17
-176.95
-157.91
-137.84
-116.64
-94.31
-70.92
-46.54
-20.93
6.15
34.80
64.91
96.20
128.31
160.70
193.14
225.55
258.14
291.09
324.30
357.34
389.27
418.72
443.65
461.94
471.29
470.23
457.66
433.14
396.99
350.44
295.72
235.21
172.17
109.59
51.91
2.45
-37.03
-66.50
-87.24
-100.82
-109.71
-114.06
-113.57
-103.84
-81.47
-45.26
3.26
60.20
121.45
180.85
236.94
289.11
343.16
403.23
470.23
541.37
610.83
673.52
722.11
757.70
783.50
811.52
851.60
909.08
983.85
1070.59
1163.76
1253.92
1342.11
1373.96
1311.06
1137.20
868.26
543.46
202.88
-87.31
-329.28
-531.09
-696.16
-815.37
-880.87
-897.21
-872.75
-827.98
-782.35
-757.01
-757.20
-778.83
-806.80
-827.00
-831.10
-816.67
-789.77
-755.89
-723.11
-691.37
-659.30
-622.66
-579.36
-531.11
-481.41
-435.49
-396.03
-366.58
-345.02
-328.13
-311.40
-291.80
-268.05
-240.00
-208.85
-173.80
-135.02
-90.52
-39.20
18.92
81.64
145.11
205.28
258.64
306.01
349.03
389.58
427.04
457.47
475.10
475.43
458.23
427.80
394.75
369.95
361.16
371.09
398.05
438.46
489.25
548.34
594.42
607.78
572.10
481.87
346.45
186.61
26.62
-113.64
-223.34
-302.34
-355.48
-390.37
-412.32
-422.00
-416.16
-390.92
-345.70
-285.81
-222.01
-164.71
-121.43
-94.19
-79.47
-71.21
-64.17
-55.96
-46.90
-38.48
-30.51
-22.63
-15.18
-10.83
-13.88
-27.95
-53.30
-86.32
-120.31
-147.57
-162.54
-163.27
-151.59
-132.06
-110.32
-91.29
-77.42
-67.90
-58.88
-45.41
-24.14
4.65
36.91
67.33
91.08
106.34
114.46
118.17
119.42
118.08
112.35
100.53
82.48
59.87
36.09
14.44
-3.17
-16.64
-26.95
-35.56
-42.88
-48.17
-50.09
-47.60
-40.83
-31.20
-20.78
-11.32
-3.89
1.87
7.15
13.29
21.17
30.68
41.02
51.24
60.77
69.11
76.57
83.77
91.01
98.10
104.34
108.89
111.36
112.11
111.50
110.43
109.57
108.86
107.41
103.40
94.91
80.09
62.96
45.64
29.71
15.90
3.95
-7.16
-18.79
-31.96
-47.12
-64.27
-84.13
-106.46
-129.24
-148.46
-159.20
-158.36
-146.11
-126.52
-106.07
-92.54
-90.97
-102.32
-124.26
-153.23
-187.34
-224.35
-260.05
-286.97
-298.39
-289.11
-257.61
-206.80
-143.33
-77.99
-19.31
28.66
67.01
94.68
110.50
114.04
106.77
91.32
66.04
30.63
-12.73
-57.57
-102.65
-147.59
-192.00
-234.92
-276.52
-323.80
-380.40
-442.76
-497.42
-535.61
-551.50
-543.66
-514.82
-437.03
-310.63
-162.21
-50.02
24.50
71.89
107.15
135.34
158.72
178.86
192.91
202.74
215.50
242.57
283.61
330.14
368.86
387.84
380.18
342.40
280.99
210.34
149.34
107.07
85.02
79.59
86.61
103.03
124.54
148.77
174.66
202.59
228.65
248.78
261.10
267.21
270.38
271.69
270.58
265.93
258.96
252.01
249.47
255.60
271.75
294.45
316.31
330.96
337.00
339.21
344.41
357.22
376.73
396.79
409.21
408.12
392.49
365.51
331.87
295.16
256.55
215.38
170.88
123.58
75.56
29.95
-10.25
-43.25
-68.67
-87.08
-99.45
-106.26
-107.12
-101.00
-87.02
-65.29
-37.22
-5.55
26.26
54.83
77.80
94.13
104.13
109.18
111.00
111.25
111.32
112.15
114.31
118.11
123.54
130.16
137.18
143.37
147.15
146.95
141.54
130.20
113.00
90.61
64.24
35.50
5.98
-22.86
-49.98
-74.80
-97.09
-116.99
-134.93
-151.40
-166.77
-181.30
-194.93
-207.29
-217.74
-225.47
-229.51
-229.03
-223.42
-212.38
-196.16
-175.49
-151.62
-126.21
-101.21
-78.53
-59.91
-46.72
-39.71
-39.03
-44.13
-53.86
-66.71
-80.93
-94.81
-106.92
-116.16
-122.00
-124.34
-123.38
-119.51
-113.17
-104.84
-94.86
-83.59
-71.43
-58.77
-46.12
-34.11
-23.42
-14.73
-8.55
-5.11
-4.33
-5.81
-8.79
-12.25
-15.10
-16.42
-15.55
-12.27
-6.83
0.12
7.65
14.70
20.21
23.22
22.97
18.90
10.72
-1.65
-17.97
-37.58
-59.42
-82.00
-103.56
-122.29
-136.58
-145.25
-147.75
-144.18
-135.13
-121.76
-105.43
-87.64
-69.95
-53.86
-40.76
-31.77
-27.54
-28.11
-32.92
-40.98
-51.15
-62.62
-75.16
-89.23
-105.69
-125.41
-148.79
-175.54
-204.58
-234.42
-263.52
-290.63
-315.08
-336.66
-355.63
-372.72
-388.92
-405.08
-421.25
-436.13
-447.00
-450.61
-444.42
-427.80
-402.53
-372.01
-339.88
-308.71
-279.37
-251.42
-224.14
-197.30
-171.27
-146.55
-123.12
-100.17
-76.54
-51.32
-24.39
3.36
30.52
55.92
78.95
99.79
119.18
137.80
155.94
173.24
188.80
201.21
208.62
208.76
199.42
179.13
147.95
107.95
62.19
14.58
-31.11
-72.18
-107.26
-136.74
-161.33
-181.16
-195.81
-205.47
-210.67
-212.10
-210.46
-206.21
-200.29
-193.57
-186.66
-179.86
-174.99
-173.00
-173.31
-174.03
-172.38
-167.83
-160.77
-151.85
-142.00
-136.83
-140.25
-152.31
-169.51
-185.70
-200.50
-215.37
-232.06
-252.58
-287.89
-344.00
-417.19
-494.72
-557.64
-599.59
-620.25
-622.68
-612.89
-612.43
-635.86
-682.92
-739.62
-782.49
-807.34
-817.07
-816.29
-810.46
-822.62
-865.79
-934.40
-1006.63
-1050.21
-1058.91
-1035.78
-985.72
-790.92
-405.00
123.09
669.77
1061.93
1304.57
1432.78
1481.13
1486.06
1470.24
1431.02
1365.89
1279.74
1189.76
1116.11
1053.71
995.95
941.77
892.60
834.27
756.52
660.73
560.58
479.08
420.97
384.39
364.24
353.59
339.13
313.06
276.66
239.61
217.07
212.09
223.11
245.64
276.49
301.76
312.39
306.03
286.62
262.26
235.97
216.00
199.80
186.06
171.58
154.32
133.55
110.34
87.51
66.84
50.43
33.46
18.13
6.77
1.01
0.92
5.75
14.77
27.34
42.95
60.42
82.26
109.00
139.00
168.54
193.39
210.50
218.06
215.97
190.49
137.97
64.22
-17.47
-93.97
-157.70
-206.32
-239.10
-259.18
-267.90
-262.35
-240.70
-203.27
-151.96
-91.05
-23.86
40.72
93.94
129.23
146.38
148.83
141.16
126.69
107.12
83.91
57.50
29.72
2.88
-20.13
-38.11
-51.86
-63.74
-76.59
-88.04
-101.20
-116.79
-134.02
-151.18
-167.19
-181.95
-196.18
-210.94
-226.10
-242.01
-257.52
-271.09
-281.12
-286.41
-286.07
-279.04
-269.04
-257.29
-245.03
-232.31
-218.90
-204.20
-187.84
-169.92
-150.91
-131.51
-111.73
-91.87
-71.89
-51.87
-31.74
-11.66
7.89
26.14
42.31
56.15
67.46
76.27
82.67
87.72
92.39
97.27
102.55
108.26
114.48
121.50
129.31
137.54
147.99
161.80
178.80
197.64
216.76
234.55
251.00
265.94
278.90
294.11
314.59
340.37
369.00
397.73
423.52
446.82
467.88
486.06
507.85
537.35
573.64
611.92
647.64
677.37
705.16
735.38
769.60
814.86
870.73
927.13
969.27
986.24
973.34
939.73
897.28
796.24
617.99
381.15
131.58
-86.95
-233.53
-325.72
-381.18
-413.28
-432.32
-437.61
-427.29
-407.60
-388.43
-377.66
-380.69
-393.45
-411.88
-434.02
-451.93
-460.63
-465.76
-475.77
-496.01
-528.00
-565.26
-602.06
-635.52
-660.23
-673.37
-682.84
-697.71
-722.95
-758.80
-799.65
-841.12
-881.57
-918.98
-909.46
-829.91
-685.57
-507.59
-332.38
-181.91
-63.00
26.66
93.91
146.02
182.06
201.12
205.16
199.50
190.56
182.48
176.71
173.38
172.59
169.65
161.23
147.22
130.48
114.41
100.95
90.21
81.19
72.56
60.14
42.07
20.77
2.83
-4.10
4.63
28.34
61.16
94.52
119.10
129.74
126.94
115.50
101.12
87.49
75.51
64.40
53.47
42.47
32.17
23.51
16.84
11.50
6.25
-0.13
-7.91
-16.24
-23.55
-28.20
-29.26
-26.78
-21.72
-15.65
-9.55
-3.94
1.33
6.75
12.83
19.67
26.84
33.54
38.85
42.19
43.37
42.73
40.86
38.41
35.81
33.21
30.55
27.62
24.31
20.61
16.69
12.75
8.96
5.37
2.00
-1.27
-4.59
-8.07
-11.78
-15.73
-19.91
-24.30
-28.96
-33.78
-38.75
-43.87
-49.14
-54.53
-59.99
-65.44
-70.88
-76.38
-81.81
-87.21
-92.62
-98.08
-103.54
-108.84
-113.78
-118.24
-122.24
-125.65
-128.48
-130.81
-132.52
-133.17
-131.95
-127.81
-119.49
-108.40
-95.32
-81.10
-66.56
-52.19
-38.05
-23.69
-8.48
8.08
26.01
45.15
64.85
84.32
103.03
120.92
138.39
156.18
175.20
196.41
220.72
248.17
277.33
305.06
327.00
338.79
337.60
323.28
298.50
267.89
236.24
206.99
181.63
160.05
141.41
124.97
110.38
97.46
85.88
74.95
63.82
51.91
39.23
26.46
14.69
4.92
-2.39
-7.42
-11.00
-14.13
-17.71
-22.12
-27.15
-32.16
-36.37
-39.22
-40.66
-41.10
-41.22
-41.58
-42.36
-43.30
-43.93
-43.86
-42.99
-41.50
-39.66
-37.61
-35.31
-32.69
-29.79
-26.92
-24.47
-22.73
-21.68
-21.03
-20.41
-19.67
-19.02
-18.86
-19.50
-20.89
-22.52
-23.64
-23.62
-22.27
-19.95
-17.45
-15.68
-15.37
-16.81
-19.70
-23.22
-26.24
-27.65
-26.81
-23.88
-19.82
-16.07
-14.02
-14.43
-17.14
-21.12
-24.93
-27.24
-27.36
-25.44
-22.38
-19.42
-17.71
-17.78
-19.41
-21.72
-23.60
-24.19
-23.22
-21.01
-18.25
-15.68
-13.93
-13.60
-15.10
-18.40
-22.37
-24.58
-21.72
-10.90
8.66
34.60
61.74
83.72
95.38
94.66
82.99
64.34
43.45
24.19
8.87
-1.64
-7.44
-9.19
-8.06
-5.71
-4.02
-4.58
-8.01
-13.58
-19.43
-23.34
-23.80
-20.82
-16.08
-12.31
-12.02
-16.17
-23.26
-29.46
-29.64
-19.18
4.06
38.51
78.98
118.09
148.81
166.92
172.24
168.27
160.13
151.96
144.94
137.03
124.15
102.07
68.40
23.97
-26.85
-76.77
-117.26
-140.73
-142.67
-123.01
-86.29
-40.23
6.22
45.03
70.55
80.17
74.25
55.58
28.57
-1.78
-30.84
-55.18
-72.89
-83.51
-87.58
-86.19
-81.05
-74.35
-68.38
-64.67
-63.42
-63.12
-61.38
-56.41
-48.41
-40.30
-37.41
-45.90
-70.43
-111.84
-165.60
-222.15
-269.30
-295.92
-295.47
-267.79
-218.37
-155.86
-89.10
-25.14
31.16
76.51
108.43
125.31
127.20
116.55
98.05
77.49
59.97
48.44
43.25
42.73
44.11
44.77
43.02
38.40
31.34
22.67
13.24
3.95
-3.67
-7.30
-3.97
9.13
33.38
67.64
107.93
148.20
182.11
204.98
214.78
212.24
199.96
181.23
158.98
135.32
111.81
89.91
71.12
56.28
44.79
34.30
21.29
2.38
-24.06
-57.13
-93.73
-128.14
-154.21
-167.74
-168.21
-158.47
-142.78
-124.82
-106.66
-89.04
-72.10
-56.27
-42.36
-31.24
-23.27
-18.08
-14.62
-11.71
-8.32
-3.96
1.12
6.27
10.74
14.10
16.44
18.25
20.15
22.72
26.11
29.97
33.91
37.53
40.65
43.27
45.57
47.62
49.50
50.76
50.56
48.23
43.26
35.33
24.47
10.98
-4.68
-21.65
-38.52
-54.93
-70.29
-83.98
-95.43
-104.13
-109.64
-113.25
-113.97
-111.45
-105.97
-97.63
-86.74
-73.62
-58.68
-42.37
-25.21
-7.45
11.35
29.67
46.51
61.02
72.75
81.42
86.79
88.50
86.67
81.00
71.15
57.41
39.98
19.80
-1.80
-23.39
-43.62
-61.13
-75.27
-85.94
-93.00
-97.04
-98.04
-95.75
-89.89
-80.34
-67.07
-50.76
-32.59
-11.76
8.80
26.81
40.89
50.60
55.75
57.16
55.02
48.98
38.84
24.12
6.08
-13.02
-30.43
-43.43
-50.24
-50.97
-47.45
-39.35
-29.37
-19.91
-12.41
-7.27
-3.34
0.09
3.34
5.12
3.16
-5.74
-23.82
-52.23
-90.46
-134.88
-177.85
-210.62
-225.54
-218.25
-189.54
-144.41
-90.41
-34.88
18.98
70.81
121.31
170.02
214.75
252.11
279.36
295.31
290.37
260.37
208.37
144.03
77.92
16.70
-37.01
-82.74
-120.38
-149.54
-168.29
-175.41
-171.73
-159.20
-140.56
-118.15
-93.22
-65.92
-35.73
-0.90
35.70
70.89
101.26
123.94
137.55
142.24
139.33
130.83
119.26
106.88
95.44
85.46
76.48
67.95
59.51
50.97
42.40
33.93
25.89
18.77
12.63
7.03
1.60
-3.95
-9.90
-14.31
-18.50
-23.20
-28.40
-34.21
-40.97
-48.71
-57.28
-66.58
-75.82
-84.68
-92.99
-100.38
-106.82
-112.81
-117.92
-121.59
-123.63
-122.85
-118.76
-112.05
-103.67
-94.97
-87.95
-82.13
-76.31
-69.35
-57.95
-38.78
-15.72
8.22
30.51
48.02
61.72
73.79
85.98
102.05
124.84
153.97
187.63
223.85
259.16
294.83
333.28
356.28
351.69
319.05
268.26
211.80
173.71
148.38
129.62
115.97
111.00
115.14
133.90
168.74
214.74
262.03
294.81
302.37
280.01
229.91
162.52
91.64
27.55
-30.20
-76.93
-110.09
-127.59
-130.82
-122.83
-105.30
-79.40
-48.42
-16.76
12.81
35.80
52.87
65.45
74.54
81.67
88.12
93.35
95.69
94.07
86.27
70.86
50.08
25.76
0.99
-20.75
-37.74
-50.33
-59.60
-67.81
-76.57
-90.44
-111.76
-138.66
-166.74
-192.56
-215.42
-236.27
-257.30
-280.42
-312.26
-355.18
-404.34
-450.49
-485.64
-506.39
-513.06
-508.99
-499.02
-496.36
-510.12
-540.47
-579.99
-618.75
-647.96
-659.82
-649.39
-568.92
-408.03
-199.59
2.30
160.36
267.14
333.39
375.68
406.39
435.02
456.90
467.29
466.37
457.87
444.90
421.69
386.86
346.05
309.57
279.93
256.69
238.68
225.04
213.90
203.54
192.89
180.96
166.93
145.69
113.98
71.57
19.52
-31.53
-73.36
-101.19
-115.64
-121.30
-124.68
-127.54
-125.08
-109.45
-74.39
-22.12
36.26
84.68
108.98
102.91
71.54
28.56
-11.33
-40.03
-55.20
-60.07
-59.88
-59.17
-60.10
-63.14
-63.88
-63.98
-64.80
-67.24
-71.12
-75.18
-78.47
-80.29
-80.85
-81.05
-83.13
-88.16
-95.31
-103.80
-106.68
-96.55
-68.12
-21.08
38.27
97.85
145.32
173.06
181.31
177.04
169.16
163.53
160.36
155.41
143.46
123.07
97.83
74.54
58.72
53.40
57.35
65.77
74.02
79.94
84.23
88.14
92.53
95.41
93.40
83.29
63.54
34.79
-1.36
-43.83
-93.29
-143.79
-190.51
-230.23
-262.47
-287.81
-305.27
-310.85
-299.11
-266.50
-214.24
-150.49
-87.22
-35.92
-2.92
12.05
14.37
10.71
5.95
2.13
-1.79
-7.22
-14.68
-22.84
-29.88
-34.39
-36.49
-37.31
-38.05
-39.51
-41.33
-42.98
-42.17
-37.18
-27.03
-12.25
5.71
25.30
45.32
65.15
84.35
103.35
120.26
134.79
146.40
154.29
157.70
156.37
153.00
146.76
137.53
125.49
111.33
95.53
78.56
60.86
43.37
27.01
12.28
0.12
-8.77
-13.79
-14.89
-12.51
-7.35
0.25
9.71
20.33
31.91
44.41
58.17
73.93
93.20
115.32
141.54
173.04
209.28
247.10
280.42
301.65
304.44
286.26
249.78
202.32
152.40
106.38
66.80
32.48
0.13
-33.62
-71.49
-114.99
-163.59
-214.68
-262.96
-300.34
-317.46
-306.86
-266.57
-202.38
-126.79
-54.65
1.16
33.97
44.15
40.13
33.99
37.38
55.63
85.78
120.68
153.69
180.30
199.91
211.97
214.72
206.11
184.55
149.71
105.16
55.89
6.92
-40.32
-86.43
-132.56
-179.13
-225.60
-270.47
-311.14
-344.72
-369.21
-386.80
-401.08
-414.82
-428.97
-442.92
-455.05
-463.01
-464.19
-437.70
-373.17
-273.92
-155.90
-39.13
61.24
138.45
192.75
228.30
248.48
255.70
250.38
232.98
205.08
168.41
123.66
69.83
10.44
-50.04
-107.13
-154.15
-182.78
-186.05
-162.74
-119.03
-66.60
-17.75
18.59
38.56
44.52
42.31
40.25
44.72
59.09
83.55
115.81
150.00
176.82
186.52
172.99
136.49
83.68
26.17
-23.03
-53.01
-57.55
-38.32
-3.50
36.45
72.27
97.74
110.43
107.10
88.14
56.96
18.50
-21.99
-59.03
-86.80
-104.55
-114.07
-117.41
-115.74
-109.70
-100.48
-88.54
-73.14
-53.84
-31.77
-10.22
7.62
19.47
24.21
21.23
5.71
-23.53
-64.07
-103.78
-137.55
-163.42
-183.10
-196.95
-205.30
-207.99
-204.11
-193.30
-176.47
-156.66
-136.52
-118.15
-102.75
-91.30
-83.26
-76.87
-70.54
-63.47
-56.56
-50.31
-44.64
-38.86
-32.33
-22.34
-6.12
17.78
48.75
83.75
119.40
152.92
182.59
207.46
230.74
255.95
285.31
318.59
352.97
385.00
412.06
433.07
448.38
464.01
486.38
520.25
566.97
624.45
688.87
756.60
825.20
864.21
851.38
776.37
647.07
486.05
319.09
165.04
32.78
-76.58
-165.94
-234.58
-281.57
-306.90
-313.14
-305.75
-291.64
-277.15
-266.73
-262.61
-261.37
-258.35
-249.74
-234.24
-213.22
-189.31
-165.09
-143.00
-126.04
-115.93
-114.72
-123.62
-141.72
-165.35
-188.66
-205.80
-213.34
-211.64
-202.96
-190.45
-176.32
-161.36
-145.59
-129.30
-113.61
-100.20
-90.41
-84.05
-79.62
-75.07
-68.68
-59.92
-49.56
-39.14
-30.27
-23.91
-20.06
-17.87
-16.00
-13.27
-9.17
-3.95
1.63
6.74
10.84
13.93
16.50
19.26
22.68
26.75
30.91
34.21
35.70
34.68
30.89
24.42
15.72
5.37
-6.06
-18.07
-30.12
-41.55
-51.56
-59.21
-63.63
-64.05
-60.07
-51.71
-39.56
-24.62
-8.13
8.62
24.46
38.34
49.46
57.16
60.94
60.40
55.36
46.05
33.20
18.75
4.21
-8.91
-19.56
-27.47
-33.09
-37.39
-41.24
-45.03
-48.35
-50.46
-50.77
-49.25
-46.80
-44.66
-43.95
-45.11
-47.50
-49.91
-51.73
-53.58
-56.53
-60.60
-63.86
-62.98
-55.07
-39.99
-22.05
-6.55
0.87
-2.37
-14.23
-29.66
-43.62
-53.62
-60.17
-64.98
-68.49
-68.20
-61.50
-46.61
-25.05
-1.57
18.27
31.17
37.93
43.45
52.90
68.37
86.74
100.21
99.90
80.80
45.44
3.80
-30.30
-45.53
-37.95
-12.50
19.31
45.68
59.44
60.57
54.57
48.24
45.89
47.90
52.21
56.55
60.23
63.45
65.82
65.28
58.63
43.51
20.28
-7.81
-36.35
-61.71
-82.65
-99.75
-113.35
-122.13
-123.39
-115.24
-97.73
-76.24
-58.18
-49.28
-51.05
-60.19
-71.10
-78.50
-80.80
-79.34
-76.52
-73.80
-70.80
-66.15
-58.50
-47.95
-36.08
-25.73
-19.72
-18.85
-22.11
-27.36
-33.25
-38.69
-43.80
-49.25
-56.34
-66.12
-77.20
-87.12
-92.97
-93.68
-86.85
-72.79
-51.15
-23.66
5.90
34.69
60.04
81.28
97.63
112.93
131.95
158.31
190.83
224.68
256.59
284.15
307.43
324.54
337.32
347.64
356.96
364.06
351.34
310.03
240.92
174.18
121.25
86.96
65.50
55.00
54.21
63.03
84.57
119.36
164.67
200.37
208.52
178.57
113.52
26.38
-66.04
-143.25
-200.83
-238.73
-260.99
-268.73
-263.23
-246.98
-227.39
-215.38
-220.11
-246.72
-291.78
-346.85
-397.98
-431.82
-440.04
-422.39
-385.19
-337.42
-288.23
-243.27
-206.11
-176.98
-154.76
-137.72
-124.45
-112.88
-99.82
-82.18
-57.24
-24.61
14.53
58.27
104.92
153.12
201.38
247.27
287.19
317.82
337.10
344.91
342.52
331.27
311.67
284.41
251.97
219.62
194.57
182.29
182.43
187.15
183.90
161.52
116.80
57.41
-1.05
-41.57
-53.01
-33.96
8.12
61.09
113.06
155.67
185.58
203.78
214.41
223.00
233.93
248.64
264.93
277.73
281.10
271.68
249.37
217.69
181.57
144.31
107.08
70.04
33.98
0.70
-26.31
-45.59
-57.67
-65.26
-73.19
-85.68
-103.92
-125.66
-147.42
-164.14
-174.26
-178.52
-179.16
-180.39
-186.16
-197.94
-214.70
-235.65
-258.57
-284.89
-317.97
-348.75
-368.81
-372.49
-357.14
-320.58
-276.73
-222.29
-155.59
-81.64
-11.86
44.26
75.60
78.21
58.12
25.63
-6.04
-29.21
-34.60
-18.66
14.92
57.48
93.45
121.42
142.64
158.50
169.24
172.28
165.33
147.80
121.21
89.46
57.82
28.36
1.69
-23.94
-51.21
-82.70
-120.09
-163.94
-212.37
-260.11
-300.64
-325.62
-327.60
-302.63
-252.14
-183.17
-107.23
-37.62
13.78
37.74
30.10
-7.22
-66.58
-134.90
-195.74
-233.08
-235.72
-200.27
-132.41
-45.20
44.04
116.85
158.85
163.98
136.02
87.16
34.14
-7.36
-27.43
-21.36
4.91
36.38
57.42
60.85
49.04
28.79
5.51
-18.71
-44.05
-71.30
-99.09
-123.76
-141.42
-150.81
-152.93
-150.74
-147.53
-145.44
-145.24
-145.46
-143.60
-137.55
-127.05
-113.68
-99.97
-87.71
-76.61
-68.59
-62.61
-56.46
-48.20
-37.27
-24.69
-12.41
-2.24
4.94
9.15
11.79
14.27
17.41
20.96
24.03
25.73
26.08
26.35
28.55
35.14
47.45
65.14
86.20
107.90
127.90
145.21
160.45
175.20
191.35
210.19
232.24
257.47
285.29
314.13
340.97
361.49
371.20
367.49
351.23
327.68
304.75
290.12
287.66
295.84
308.21
316.44
314.10
299.00
273.09
240.17
203.34
164.02
123.38
84.33
52.37
33.90
32.26
44.25
59.64
64.83
48.91
8.93
-48.48
-109.72
-159.71
-187.39
-188.87
-167.59
-131.87
-91.68
-55.83
-29.65
-14.44
-8.00
-6.68
-7.26
-8.50
-10.99
-15.90
-23.36
-31.62
-37.68
-39.10
-35.79
-30.29
-26.60
-27.84
-34.30
-42.94
-48.95
-48.35
-40.32
-27.86
-16.38
-11.18
-14.95
-26.78
-43.00
-59.21
-72.24
-81.24
-87.25
-92.03
-96.81
-101.66
-105.78
-108.07
-107.84
-105.12
-100.50
-94.64
-87.71
-79.22
-68.03
-53.01
-33.57
-10.07
16.20
43.52
70.23
95.19
117.71
137.20
152.77
163.29
167.83
166.28
159.66
149.77
138.45
126.83
115.18
103.33
91.39
80.04
70.07
61.75
53.91
44.02
28.88
5.76
-26.90
-69.38
-120.79
-178.90
-239.44
-295.57
-338.35
-358.75
-350.83
-314.38
-255.80
-186.17
-117.59
-59.40
-15.99
13.08
31.24
42.67
50.82
57.88
65.06
73.02
81.97
91.55
100.84
108.33
111.78
108.53
95.98
72.39
37.99
-4.35
-49.26
-90.16
-121.23
-139.14
-143.68
-137.30
-123.60
-106.05
-87.16
-68.70
-52.13
-38.98
-30.63
-27.79
-29.98
-35.46
-41.69
-46.10
-46.71
-42.69
-34.45
-23.43
-11.56
-0.74
7.70
13.20
15.95
16.69
16.39
16.01
16.23
17.35
19.19
21.17
22.51
22.48
20.65
17.01
11.98
6.24
0.65
-3.93
-6.77
-7.45
-6.01
-2.92
1.11
5.36
9.33
12.84
15.86
18.34
19.91
19.67
16.34
8.71
-3.62
-19.64
-36.68
-51.00
-59.06
-58.81
-50.72
-37.63
-23.63
-12.44
-6.08
-4.37
-5.51
-7.16
-7.42
-5.20
-0.34
6.61
14.42
20.97
23.50
19.35
7.34
-10.81
-30.21
-44.37
-48.16
-40.79
-26.81
-14.20
-10.58
-19.33
-38.08
-60.19
-78.28
-87.84
-88.72
-84.09
-77.75
-72.99
-72.38
-78.18
-92.08
-113.78
-139.67
-162.82
-174.70
-167.73
-139.26
-93.19
-38.33
15.72
62.66
101.51
135.97
172.09
216.70
273.24
339.49
407.37
465.47
502.70
511.47
489.94
443.13
383.79
327.92
289.46
275.62
285.10
309.42
336.26
354.04
345.27
303.47
236.78
164.61
105.77
68.95
52.56
50.77
58.46
72.68
93.04
118.17
144.20
165.56
177.15
176.96
165.75
145.52
119.96
92.68
65.29
36.87
5.05
-31.49
-71.01
-108.90
-139.96
-161.38
-173.83
-181.74
-191.22
-206.89
-229.37
-254.87
-277.28
-291.09
-293.52
-284.50
-265.71
-239.37
-207.71
-173.23
-139.28
-110.20
-90.58
-83.97
-91.85
-112.68
-142.85
-177.81
-213.70
-248.41
-281.81
-315.39
-351.60
-393.06
-441.61
-497.26
-557.14
-615.17
-662.97
-692.10
-696.96
-676.93
-636.62
-584.00
-527.45
-473.01
-423.16
-377.47
-334.21
-292.08
-250.72
-210.34
-170.97
-132.02
-92.54
-51.91
-10.34
31.03
70.35
106.04
137.55
165.65
192.27
219.84
250.28
284.18
320.41
356.12
387.70
412.00
427.43
434.47
435.13
431.62
424.95
414.34
397.63
372.65
338.68
297.11
251.10
204.56
160.79
121.70
87.54
57.49
30.22
4.42
-20.83
-45.80
-69.88
-91.18
-106.35
-111.16
-102.10
-78.31
-43.29
-5.06
25.97
40.26
32.22
1.47
-47.89
-109.04
-173.96
-234.03
-280.44
-304.91
-301.83
-270.50
-216.29
-149.45
-81.64
-21.90
26.03
63.90
96.97
131.20
171.13
218.72
272.94
329.81
382.75
423.72
445.25
443.04
417.29
373.02
318.21
260.86
206.08
154.73
104.10
50.66
-6.62
-64.79
-116.92
-154.66
-171.52
-165.39
-139.26
-100.06
-56.49
-16.66
13.70
32.10
39.70
41.12
43.51
54.24
78.06
114.60
157.95
198.53
226.73
236.34
225.99
198.76
160.01
115.26
68.74
23.25
-19.83
-60.41
-99.80
-140.37
-183.62
-228.65
-270.98
-303.37
-318.45
-311.90
-283.97
-238.68
-181.87
-119.10
-54.91
6.54
60.89
104.13
133.85
150.57
157.73
159.31
157.54
151.92
140.87
124.43
106.12
92.24
88.70
97.82
116.00
135.14
146.27
143.43
124.80
91.50
45.64
-10.59
-73.40
-136.25
-188.77
-218.42
-214.54
-174.14
-104.90
-23.75
48.80
96.74
112.04
95.89
56.55
6.34
-42.20
-78.19
-93.16
-81.93
-42.56
20.31
95.08
166.00
218.76
243.80
239.21
210.59
160.50
99.52
41.96
-0.50
-24.00
-30.52
-25.90
-15.69
-3.80
5.80
10.62
7.92
-4.81
-28.83
-61.94
-102.32
-147.33
-195.28
-242.51
-284.71
-319.63
-347.15
-378.76
-413.05
-443.19
-462.05
-457.49
-427.79
-378.69
-321.02
-265.93
-220.73
-184.97
-154.75
-124.93
-91.59
-54.26
-13.91
27.58
67.92
104.27
134.43
154.92
162.79
157.49
141.05
118.90
97.82
83.49
78.71
83.69
95.44
109.87
123.46
133.64
139.48
141.05
138.76
133.06
124.63
113.89
101.37
88.19
75.64
65.22
57.71
52.56
47.81
41.12
31.23
19.26
9.05
5.49
11.99
28.22
49.68
69.59
81.97
84.48
78.95
69.85
61.64
56.57
54.27
53.04
51.68
50.42
50.73
53.99
60.23
67.73
73.45
74.38
68.88
57.65
43.75
31.70
25.74
28.00
37.27
48.95
56.42
53.28
35.44
2.46
-42.36
-92.75
-140.84
-178.64
-199.60
-200.21
-181.12
-147.25
-106.43
-66.87
-34.53
-11.63
3.01
12.12
17.95
20.92
19.88
13.43
1.42
-14.24
-30.04
-42.23
-48.31
