1541510588.00
64.000000
-0.00
-0.00
-0.00
-0.00
-0.00
-0.00
-0.00
-0.00
-0.00
-0.00
0.00
0.01
0.01
-0.00
-0.03
-0.05
-0.05
0.00
0.13
0.36
0.66
1.01
1.37
1.72
2.06
2.40
2.79
3.24
3.80
4.42
5.07
5.69
6.25
6.77
7.31
7.95
8.74
9.78
10.99
12.25
13.46
14.56
15.60
16.76
18.24
20.19
22.81
25.88
29.10
32.18
34.96
37.54
40.29
43.67
48.02
53.70
60.33
67.38
74.23
80.58
86.53
92.65
99.70
108.22
118.72
130.63
143.10
155.21
166.43
176.93
187.49
199.55
211.84
226.52
244.00
264.20
285.81
306.02
320.73
325.62
317.56
295.67
262.11
220.34
174.28
126.95
80.03
34.20
-10.16
-52.38
-91.71
-127.22
-158.95
-187.31
-213.07
-236.51
-257.29
-274.55
-287.42
-295.77
-300.13
-302.13
-303.89
-307.62
-315.05
-326.84
-342.05
-357.69
-369.66
-373.68
-366.97
-349.09
-322.12
-289.81
-256.06
-223.73
-194.00
-166.92
-142.02
-119.16
-98.65
-80.89
-65.91
-53.13
-41.57
-30.29
-18.90
-7.58
3.00
12.10
19.27
24.55
28.42
31.57
34.62
37.85
41.13
44.11
46.35
47.58
47.81
47.31
46.49
45.69
45.11
44.73
44.38
43.84
42.96
41.71
40.21
38.62
37.09
35.71
34.42
33.15
31.76
30.23
28.61
27.01
25.56
24.32
23.28
22.31
21.27
20.07
18.74
17.40
16.19
15.22
14.49
13.94
13.45
12.95
12.35
11.62
10.79
9.93
9.22
8.85
8.96
9.56
10.49
11.46
12.19
12.49
12.34
11.79
10.97
9.95
8.83
7.70
6.71
6.01
5.69
5.73
5.95
6.06
5.77
4.90
3.47
1.70
-0.10
-1.58
-2.60
-3.17
-3.48
-3.77
-4.20
-4.84
-5.65
-6.55
-7.45
-8.31
-9.09
-9.80
-10.43
-11.00
-11.56
-12.14
-12.78
-13.52
-14.35
-15.27
-16.21
-17.06
-17.69
-18.01
-18.00
-17.72
-17.29
-16.81
-16.29
-15.66
-14.84
-13.78
-12.56
-11.34
-10.29
-9.57
-9.16
-8.97
-8.82
-8.55
-8.09
-7.44
-6.68
-5.89
-5.15
-4.51
-3.95
-3.42
-2.85
-2.20
-1.45
-0.65
0.13
0.81
1.39
1.90
2.43
3.04
3.75
4.55
5.39
6.25
7.10
7.93
8.70
9.38
9.93
10.35
10.67
10.97
11.35
11.92
12.69
13.59
14.48
15.18
15.61
15.79
15.89
16.10
16.56
17.26
18.08
18.82
19.31
19.51
19.43
19.13
18.64
17.97
17.13
16.21
15.35
14.71
14.38
14.33
14.41
14.45
14.29
13.86
13.20
12.38
11.51
10.65
9.82
9.04
8.28
7.54
6.83
6.16
5.51
4.90
4.31
3.77
3.31
2.97
2.74
2.63
2.60
2.60
2.61
2.61
2.56
2.44
2.24
1.99
1.74
1.55
1.44
1.38
1.29
1.10
0.81
0.50
0.27
0.19
0.30
0.55
0.90
1.26
1.57
1.77
1.79
1.64
1.37
1.09
0.90
0.87
0.99
1.19
1.33
1.35
1.21
1.01
0.86
0.85
1.01
1.25
1.47
1.54
1.43
1.20
0.96
0.80
0.74
0.72
0.65
0.54
0.42
0.41
0.56
0.84
1.12
1.25
1.17
0.90
0.58
0.33
0.25
0.34
0.55
0.84
1.17
1.53
1.89
2.20
2.34
2.24
1.84
1.24
0.59
0.09
-0.07
0.16
0.68
1.26
1.67
1.75
1.50
1.04
0.53
0.09
-0.24
-0.50
-0.73
-0.93
-1.04
-1.01
-0.83
-0.55
-0.28
-0.11
-0.04
0.02
0.14
0.38
0.71
1.01
1.16
1.12
0.91
0.70
0.60
0.69
0.93
1.17
1.29
1.24
1.09
0.94
0.87
0.86
0.83
0.70
0.50
0.32
0.31
0.52
0.88
1.23
1.42
1.36
1.14
0.85
0.59
0.39
0.20
0.01
-0.12
-0.09
0.16
0.57
0.97
1.19
1.08
0.67
0.11
-0.37
-0.58
-0.46
-0.07
0.42
0.90
1.28
1.54
1.72
1.83
1.85
1.74
1.46
1.06
0.64
0.36
0.33
0.56
0.95
1.33
1.56
1.57
1.41
1.18
0.98
0.84
0.75
0.64
0.51
0.39
0.32
0.33
0.39
0.45
0.48
0.45
0.40
0.37
0.41
0.51
0.64
0.75
0.76
0.67
0.46
0.18
-0.13
-0.46
-0.83
-1.28
-1.85
-2.50
-3.12
-3.60
-3.84
-3.82
-3.64
-3.47
-3.43
-3.60
-3.91
-4.21
-4.37
-4.29
-3.97
-3.49
-2.97
-2.54
-2.28
-2.20
-2.23
-2.25
-2.15
-1.84
-1.35
-0.73
-0.12
0.39
0.73
0.91
0.98
1.01
1.05
1.11
1.16
1.14
1.03
0.89
0.81
0.90
1.19
1.59
1.92
2.05
1.95
1.72
1.53
1.52
1.68
1.91
2.02
1.91
1.61
1.26
1.02
0.96
1.02
1.08
1.03
0.80
0.46
0.12
-0.10
-0.13
0.01
0.20
0.29
0.18
-0.14
-0.54
-0.83
-0.87
-0.60
-0.10
0.47
0.97
1.36
1.65
1.88
2.05
2.14
2.09
1.91
1.65
1.39
1.21
1.13
1.15
1.23
1.38
1.59
1.86
2.13
2.34
2.42
2.31
2.02
1.65
1.29
1.03
0.90
0.87
0.84
0.72
0.47
0.13
-0.25
-0.59
-0.84
-1.02
-1.16
-1.26
-1.32
-1.31
-1.22
-1.05
-0.82
-0.60
-0.46
-0.42
-0.49
-0.60
-0.69
-0.69
-0.57
-0.36
-0.11
0.13
0.28
0.33
0.26
0.11
-0.07
-0.20
-0.26
-0.25
-0.24
-0.29
-0.47
-0.72
-0.98
-1.13
-1.13
-1.00
-0.81
-0.63
-0.51
-0.43
-0.36
-0.29
-0.25
-0.30
-0.43
-0.60
-0.72
-0.69
-0.49
-0.17
0.19
0.47
0.64
0.67
0.58
0.39
0.13
-0.19
-0.52
-0.79
-0.96
-1.01
-0.94
-0.78
-0.55
-0.26
0.07
0.38
0.58
0.58
0.37
0.06
-0.22
-0.32
-0.21
0.06
0.37
0.59
0.67
0.63
0.52
0.37
0.23
0.11
0.06
0.11
0.27
0.52
0.79
0.98
1.03
0.90
0.68
0.47
0.36
0.40
0.54
0.67
0.68
0.56
0.35
0.16
0.09
0.13
0.19
0.16
-0.04
-0.39
-0.75
-0.92
-0.79
-0.37
0.21
0.76
1.13
1.28
1.27
1.22
1.22
1.30
1.42
1.53
1.60
1.62
1.64
1.66
1.70
1.72
1.69
1.61
1.49
1.34
1.17
0.98
0.76
0.54
0.33
0.18
0.08
0.02
-0.07
-0.22
-0.45
-0.68
-0.82
-0.77
-0.51
-0.18
0.02
-0.16
-0.87
-2.08
-3.56
-4.97
-5.98
-6.34
-5.98
-5.05
-3.81
-2.58
-1.60
-1.00
-0.73
-0.70
-0.75
-0.82
-0.87
-0.90
-0.85
-0.63
-0.20
0.42
1.07
1.57
1.73
1.49
0.93
0.26
-0.29
-0.56
-0.54
-0.36
-0.23
-0.40
-0.95
-1.81
-2.67
-3.21
-3.21
-2.75
-2.21
-2.19
-3.19
-5.29
-8.07
-10.63
-12.06
-11.85
-10.22
-8.14
-6.99
-7.87
-11.03
-15.54
-19.70
-21.76
-20.85
-17.60
-13.92
-12.13
-13.86
-19.15
-26.47
-33.47
-38.28
-40.41
-40.83
-41.29
-43.43
-48.48
-57.17
-70.00
-86.80
-105.96
-123.47
-133.11
-128.30
-105.62
-68.00
-25.31
9.18
25.11
20.23
1.42
-19.55
-32.53
-33.83
-26.63
-17.04
-9.31
-3.24
4.45
16.62
32.65
48.75
60.91
68.19
74.10
84.81
105.75
139.01
182.51
231.33
279.72
322.82
357.30
381.66
395.77
400.39
396.63
386.21
370.20
349.14
323.48
293.92
261.66
228.29
195.46
164.61
136.65
111.72
89.38
68.86
49.31
30.07
11.22
-6.92
-23.86
-39.16
-52.80
-65.15
-76.91
-88.90
-101.73
-115.54
-130.03
-144.57
-158.47
-171.34
-183.23
-194.64
-206.36
-219.37
-234.76
-253.40
-275.39
-299.40
-322.46
-340.33
-348.78
-345.13
-329.35
-304.13
-273.75
-242.49
-213.21
-187.01
-163.67
-142.62
-123.59
-106.70
-92.03
-79.31
-67.76
-56.49
-44.97
-33.28
-22.04
-12.08
-3.97
2.17
6.76
10.52
14.11
17.94
21.99
25.87
29.12
31.37
32.57
32.96
33.01
33.14
33.61
34.39
35.21
35.73
35.67
34.97
33.79
32.47
31.32
30.55
30.15
29.94
29.63
29.03
28.07
26.90
25.72
24.67
23.81
23.07
22.34
21.58
20.79
20.04
19.35
18.72
18.12
17.53
16.95
16.42
15.98
15.60
15.28
14.97
14.69
14.43
14.19
13.90
13.52
13.03
12.49
11.97
11.54
11.22
10.95
10.67
10.35
9.98
9.62
9.29
8.98
8.65
8.23
7.72
7.17
6.66
6.31
6.17
6.25
6.52
6.89
7.27
7.55
7.66
7.60
7.42
7.19
7.02
6.97
7.05
7.18
7.28
7.26
7.08
6.74
6.26
5.67
5.03
4.41
3.90
3.59
3.48
3.50
3.50
3.37
3.01
2.48
1.91
1.48
1.30
1.42
1.76
2.18
2.54
2.71
2.69
2.52
2.35
2.28
2.37
2.59
2.84
3.00
3.03
2.94
2.80
2.67
2.59
2.51
2.35
2.08
1.70
1.30
0.98
0.81
0.83
1.00
1.26
1.52
1.70
1.78
1.76
1.67
1.55
1.40
1.23
1.00
0.73
0.48
0.31
0.29
0.41
0.60
0.75
0.79
0.71
0.56
0.45
0.45
0.62
0.96
1.45
2.07
2.80
3.57
4.28
4.83
5.15
5.27
5.26
5.26
5.31
5.40
5.44
5.35
5.13
4.85
4.63
4.58
4.64
4.67
4.49
3.98
3.21
2.36
1.67
1.26
1.12
1.11
1.05
0.85
0.52
0.17
-0.10
-0.26
-0.32
-0.36
-0.39
-0.42
-0.41
-0.30
-0.06
0.27
0.67
1.03
1.27
1.31
1.18
0.95
0.78
0.77
0.94
1.26
1.62
1.91
2.06
2.05
1.91
1.68
1.43
1.25
1.18
1.21
1.29
1.32
1.26
1.11
0.93
0.77
0.62
0.42
0.13
-0.19
-0.41
-0.39
-0.11
0.31
0.66
0.76
0.55
0.13
-0.35
-0.75
-1.02
-1.20
-1.31
-1.33
-1.20
-0.90
-0.49
-0.13
0.02
-0.12
-0.49
-0.90
-1.18
-1.23
-1.08
-0.88
-0.78
-0.87
-1.12
-1.47
-1.83
-2.14
-2.37
-2.49
-2.46
-2.25
-1.88
-1.41
-0.96
-0.59
-0.36
-0.23
-0.14
-0.06
-0.00
0.03
0.02
0.01
0.06
0.22
0.47
0.75
0.94
0.98
0.89
0.72
0.61
0.65
0.86
1.19
1.54
1.78
1.86
1.76
1.55
1.36
1.26
1.31
1.44
1.54
1.48
1.18
0.69
0.16
-0.24
-0.38
-0.23
0.09
0.42
0.63
0.68
0.59
0.46
0.35
0.28
0.22
0.12
-0.01
-0.11
-0.14
-0.06
0.07
0.18
0.20
0.13
0.02
-0.01
0.11
0.42
0.86
1.32
1.67
1.83
1.78
1.54
1.19
0.78
0.39
0.07
-0.11
-0.16
-0.08
0.06
0.23
0.35
0.43
0.46
0.45
0.44
0.41
0.38
0.35
0.35
0.38
0.45
0.54
0.61
0.66
0.69
0.71
0.72
0.68
0.56
0.33
0.00
-0.38
-0.70
-0.88
-0.86
-0.67
-0.40
-0.16
-0.01
0.06
0.10
0.19
0.33
0.48
0.58
0.57
0.45
0.30
0.21
0.25
0.40
0.60
0.75
0.81
0.76
0.62
0.47
0.33
0.25
0.23
0.27
0.37
0.48
0.58
0.67
0.75
0.85
0.98
1.12
1.19
1.07
0.69
0.10
-0.56
-1.02
-1.12
-0.82
-0.26
0.31
0.61
0.52
0.08
-0.57
-1.23
-1.76
-2.11
-2.32
-2.42
-2.38
-2.20
-1.86
-1.44
-1.06
-0.84
-0.84
-1.00
-1.16
-1.13
-0.80
-0.22
0.43
0.93
1.11
0.95
0.59
0.21
-0.03
-0.12
-0.17
-0.34
-0.69
-1.22
-1.79
-2.21
-2.38
-2.27
-1.99
-1.65
-1.34
-1.07
-0.84
-0.61
-0.37
-0.17
-0.04
0.02
0.03
0.11
0.38
0.95
1.83
2.92
3.98
4.79
5.22
5.31
5.29
5.42
5.88
6.67
7.62
8.50
9.15
9.54
9.75
9.90
10.00
9.97
9.67
8.97
7.85
6.41
4.79
3.16
1.59
0.05
-1.52
-3.21
-5.01
-6.84
-8.58
-10.08
-11.24
-12.03
-12.45
-12.57
-12.45
-12.15
-11.68
-11.06
-10.27
-9.31
-8.22
-7.07
-5.90
-4.78
-3.73
-2.75
-1.86
-1.06
-0.37
0.19
0.61
0.92
1.19
1.47
1.83
2.25
2.71
3.14
3.50
3.74
3.88
3.91
3.87
3.77
3.64
3.48
3.28
3.08
2.90
2.76
2.65
2.52
2.29
1.91
1.38
0.80
0.31
0.01
-0.10
-0.10
-0.18
-0.45
-0.93
-1.48
-1.94
-2.17
-2.14
-1.96
-1.75
-1.59
-1.50
-1.42
-1.29
-1.10
-0.91
-0.76
-0.71
-0.71
-0.70
-0.61
-0.46
-0.29
-0.18
-0.19
-0.30
-0.41
-0.42
-0.30
-0.04
0.28
0.58
0.82
0.97
1.06
1.08
1.04
0.98
0.93
0.97
1.17
1.50
1.86
2.13
2.20
2.09
1.92
1.82
1.88
2.08
2.26
2.31
2.18
1.93
1.68
1.55
1.53
1.54
1.48
1.30
0.99
0.64
0.31
0.05
-0.17
-0.38
-0.60
-0.81
-0.95
-0.98
-0.88
-0.69
-0.52
-0.48
-0.64
-0.96
-1.28
-1.42
-1.23
-0.73
-0.08
0.46
0.68
0.53
0.12
-0.32
-0.57
-0.56
-0.35
-0.09
0.09
0.17
0.16
0.15
0.12
0.01
-0.26
-0.69
-1.20
-1.59
-1.69
-1.43
-0.88
-0.23
0.29
0.53
0.49
0.27
0.01
-0.17
-0.24
-0.26
-0.28
-0.35
-0.44
-0.52
-0.56
-0.57
-0.54
-0.53
-0.52
-0.52
-0.50
-0.47
-0.47
-0.50
-0.57
-0.66
-0.72
-0.76
-0.80
-0.83
-0.80
-0.65
-0.32
0.15
0.62
0.87
0.82
0.51
0.14
-0.07
-0.02
0.25
0.53
0.63
0.48
0.20
-0.03
-0.07
0.12
0.42
0.67
0.77
0.72
0.63
0.62
0.74
0.96
1.14
1.18
0.99
0.59
0.09
-0.36
-0.64
-0.71
-0.61
-0.47
-0.41
-0.51
-0.73
-0.95
-1.04
-0.88
-0.48
0.05
0.52
0.78
0.73
0.42
-0.03
-0.46
-0.74
-0.85
-0.83
-0.77
-0.76
-0.80
-0.85
-0.80
-0.61
-0.28
0.07
0.31
0.33
0.19
0.05
0.11
0.49
1.13
1.79
2.19
2.17
1.76
1.20
0.80
0.75
1.07
1.57
2.00
2.17
2.07
1.79
1.49
1.23
0.99
0.70
0.30
-0.16
-0.55
-0.73
-0.66
-0.42
-0.17
-0.10
-0.26
-0.60
-0.94
-1.11
-1.02
-0.72
-0.37
-0.13
-0.10
-0.26
-0.50
-0.71
-0.79
-0.75
-0.64
-0.58
-0.64
-0.82
-1.07
-1.35
-1.63
-1.91
-2.18
-2.41
-2.50
-2.34
-1.90
-1.21
-0.43
0.24
0.64
0.69
0.48
0.17
-0.03
0.03
0.38
0.95
1.60
2.17
2.53
2.58
2.33
1.88
1.35
0.91
0.67
0.65
0.77
0.88
0.82
0.54
0.05
-0.54
-1.12
-1.60
-1.97
-2.30
-2.61
-2.93
-3.24
-3.48
-3.59
-3.53
-3.28
-2.86
-2.37
-1.86
-1.35
-0.82
-0.16
0.65
1.60
2.56
3.32
3.76
3.88
3.82
3.78
3.89
4.18
4.53
4.81
4.89
4.78
4.54
4.26
3.99
3.74
3.47
3.15
2.74
2.31
1.89
1.50
1.15
0.80
0.45
0.11
-0.19
-0.41
-0.53
-0.56
-0.52
-0.41
-0.24
-0.03
0.18
0.27
0.17
-0.17
-0.67
-1.21
-1.62
-1.84
-1.88
-1.87
-1.95
-2.21
-2.68
-3.29
-3.91
-4.42
-4.76
-4.86
-4.74
-4.42
-3.93
-3.35
-2.75
-2.19
-1.70
-1.27
-0.84
-0.34
0.24
0.86
1.38
1.66
1.60
1.24
0.68
0.13
-0.25
-0.43
-0.47
-0.54
-0.76
-1.19
-1.77
-2.36
-2.78
-2.96
-2.88
-2.65
-2.39
-2.18
-2.03
-1.91
-1.77
-1.62
-1.51
-1.47
-1.48
-1.47
-1.32
-0.98
-0.47
0.08
0.49
0.65
0.58
0.36
0.15
0.06
0.14
0.39
0.75
1.15
1.55
1.93
2.31
2.74
3.23
3.78
4.31
4.74
5.00
5.05
4.94
4.70
4.39
4.03
3.61
3.16
2.74
2.40
2.19
2.10
2.09
2.08
2.02
1.85
1.61
1.33
1.06
0.85
0.71
0.59
0.47
0.29
0.10
-0.09
-0.18
-0.17
-0.09
-0.00
0.03
-0.01
-0.10
-0.20
-0.30
-0.39
-0.49
-0.60
-0.68
-0.70
-0.63
-0.49
-0.33
-0.21
-0.20
-0.30
-0.51
-0.76
-0.94
-1.00
-0.94
-0.77
-0.58
-0.44
-0.36
-0.32
-0.26
-0.15
-0.01
0.07
0.02
-0.18
-0.49
-0.79
-1.00
-1.03
-0.90
-0.64
-0.32
-0.00
0.27
0.50
0.63
0.66
0.56
0.31
-0.06
-0.55
-1.14
-1.84
-2.61
-3.39
-4.09
-4.58
-4.81
-4.78
-4.62
-4.42
-4.23
-4.03
-3.69
-3.14
-2.36
-1.48
-0.68
-0.12
0.13
0.13
-0.01
-0.15
-0.20
-0.17
-0.11
-0.05
0.02
0.16
0.41
0.76
1.11
1.32
1.29
1.02
0.63
0.29
0.15
0.28
0.63
1.11
1.58
1.96
2.17
2.19
2.05
1.80
1.52
1.28
1.11
1.03
1.00
0.99
0.98
0.92
0.79
0.57
0.27
-0.06
-0.36
-0.52
-0.48
-0.25
0.12
0.55
0.96
1.28
1.52
1.70
1.84
1.96
2.07
2.12
2.08
1.89
1.57
1.21
0.92
0.78
0.79
0.83
0.73
0.37
-0.21
-0.81
-1.18
-1.15
-0.76
-0.18
0.32
0.55
0.51
0.31
0.14
0.13
0.31
0.61
0.95
1.24
1.45
1.58
1.64
1.63
1.55
1.44
1.35
1.34
1.44
1.61
1.73
1.69
1.47
1.11
0.77
0.54
0.44
0.36
0.18
-0.19
-0.76
-1.47
-2.27
-3.10
-3.93
-4.65
-5.16
-5.33
-5.14
-4.72
-4.28
-4.06
-4.12
-4.39
-4.66
-4.76
-4.63
-4.34
-4.03
-3.77
-3.55
-3.29
-2.95
-2.50
-2.01
-1.53
-1.07
-0.60
-0.07
0.53
1.16
1.76
2.31
2.82
3.33
3.87
4.44
5.03
5.60
6.14
6.60
6.91
7.01
6.86
6.51
6.05
5.60
5.18
4.74
4.19
3.43
2.49
1.49
0.61
-0.04
-0.48
-0.84
-1.28
-1.90
-2.64
-3.32
-3.76
-3.85
-3.67
-3.40
-3.26
-3.38
-3.72
-4.11
-4.37
-4.35
-4.05
-3.54
-2.97
-2.46
-2.09
-1.84
-1.69
-1.56
-1.36
-1.06
-0.59
0.02
0.74
1.48
2.17
2.75
3.20
3.56
3.88
4.21
4.58
4.98
5.35
5.61
5.65
5.39
4.80
3.92
2.86
1.74
0.70
-0.19
-0.91
-1.51
-2.03
-2.55
-3.07
-3.59
-4.04
-4.36
-4.49
-4.43
-4.20
-3.88
-3.53
-3.17
-2.78
-2.34
-1.83
-1.31
-0.84
-0.46
-0.18
0.04
0.28
0.54
0.84
1.12
1.32
1.36
1.20
0.83
0.32
-0.24
-0.69
-0.93
-0.89
-0.61
-0.20
0.24
0.63
0.92
1.11
1.15
1.01
0.69
0.24
-0.18
-0.40
-0.33
0.02
0.48
0.87
1.05
0.97
0.73
0.45
0.26
0.21
0.31
0.48
0.68
0.85
0.94
0.97
0.95
0.93
0.91
0.90
0.86
0.76
0.59
0.36
0.12
-0.08
-0.21
-0.30
-0.38
-0.51
-0.70
-0.91
-1.10
-1.20
-1.19
-1.07
-0.88
-0.71
-0.58
-0.56
-0.63
-0.77
-0.92
-1.01
-0.99
-0.84
-0.59
-0.31
-0.03
0.22
0.48
0.79
1.19
1.63
2.05
2.33
2.39
2.23
1.87
1.40
0.91
0.46
0.08
-0.20
-0.39
-0.50
-0.55
-0.54
-0.48
-0.39
-0.31
-0.29
-0.37
-0.53
-0.75
-0.97
-1.16
-1.28
-1.32
-1.24
-1.06
-0.83
-0.63
-0.55
-0.62
-0.79
-0.95
-0.96
-0.75
-0.37
0.06
0.43
0.63
0.66
0.60
0.53
0.52
0.58
0.68
0.76
0.76
0.67
0.52
0.40
0.37
0.47
0.65
0.82
0.87
0.78
0.58
0.35
0.18
0.12
0.15
0.24
0.35
0.45
0.54
0.63
0.70
0.70
0.55
0.22
-0.23
-0.69
-0.98
-1.01
-0.74
-0.25
0.31
0.81
1.15
1.30
1.26
1.10
0.84
0.54
0.21
-0.10
-0.35
-0.52
-0.55
-0.45
-0.23
0.03
0.27
0.39
0.39
0.25
0.06
-0.12
-0.25
-0.32
-0.39
-0.52
-0.74
-1.05
-1.35
-1.51
-1.43
-1.11
-0.63
-0.16
0.14
0.24
0.17
0.08
0.04
0.09
0.19
0.24
0.23
0.16
0.10
0.13
0.24
0.39
0.52
0.55
0.49
0.37
0.25
0.19
0.16
0.12
0.02
-0.17
-0.42
-0.65
-0.77
-0.70
-0.43
-0.02
0.44
0.86
1.18
1.34
1.34
1.19
0.90
0.52
0.12
-0.22
-0.44
-0.52
-0.49
-0.42
-0.42
-0.58
-0.93
-1.44
-2.02
-2.56
-2.99
-3.27
-3.39
-3.32
-3.09
-2.70
-2.26
-1.85
-1.56
-1.40
-1.33
-1.26
-1.10
-0.81
-0.39
0.14
0.74
1.37
2.02
2.65
3.21
3.66
3.97
4.12
4.13
4.07
4.00
4.03
4.19
4.42
4.59
4.56
4.23
3.63
2.88
2.11
1.42
0.83
0.31
-0.15
-0.52
-0.75
-0.81
-0.74
-0.62
-0.57
-0.66
-0.95
-1.39
-1.90
-2.34
-2.63
-2.72
-2.62
-2.44
-2.23
-2.09
-2.04
-2.07
-2.13
-2.15
-2.08
-1.84
-1.43
-0.89
-0.38
-0.03
0.03
-0.18
-0.52
-0.82
-0.91
-0.76
-0.45
-0.11
0.19
0.42
0.61
0.80
0.96
1.00
0.83
0.42
-0.13
-0.66
-0.97
-0.96
-0.67
-0.22
0.16
0.34
0.26
0.01
-0.30
-0.53
-0.58
-0.42
-0.06
0.42
0.89
1.20
1.29
1.18
1.00
0.86
0.88
1.03
1.22
1.33
1.29
1.11
0.86
0.58
0.31
0.03
-0.24
-0.45
-0.51
-0.40
-0.14
0.16
0.38
0.42
0.30
0.06
-0.18
-0.33
-0.35
-0.24
-0.01
0.32
0.71
1.09
1.38
1.52
1.53
1.41
1.21
0.91
0.48
-0.06
-0.65
-1.17
-1.53
-1.75
-1.94
-2.23
-2.66
-3.09
-3.31
-3.17
-2.70
-2.08
-1.55
-1.25
-1.11
-0.99
-0.76
-0.41
-0.05
0.20
0.31
0.38
0.56
0.93
1.44
1.91
2.18
2.14
1.87
1.51
1.23
1.14
1.24
1.48
1.77
2.07
2.31
2.47
2.48
2.27
1.84
1.25
0.64
0.17
-0.08
-0.14
-0.12
-0.16
-0.30
-0.54
-0.83
-1.13
-1.41
-1.67
-1.87
-1.98
-1.96
-1.84
-1.70
-1.61
-1.57
-1.52
-1.35
-1.02
-0.59
-0.24
-0.13
-0.32
-0.68
-0.96
-0.96
-0.60
0.01
0.66
1.10
1.25
1.14
0.92
0.73
0.66
0.71
0.83
0.97
1.07
1.10
1.04
0.90
0.67
0.41
0.13
-0.13
-0.35
-0.52
-0.62
-0.59
-0.42
-0.12
0.21
0.42
0.39
0.08
-0.42
-0.93
-1.29
-1.45
-1.43
-1.30
-1.09
-0.79
-0.32
0.32
1.04
1.65
1.95
1.87
1.46
0.89
0.35
-0.01
-0.15
-0.10
0.08
0.37
0.74
1.16
1.55
1.78
1.74
1.41
0.88
0.34
-0.00
-0.09
-0.00
0.08
-0.00
-0.26
-0.58
-0.78
-0.79
-0.67
-0.62
-0.77
-1.13
-1.55
-1.82
-1.83
-1.65
-1.42
-1.32
-1.35
-1.43
-1.40
-1.19
-0.83
-0.43
-0.10
0.13
0.32
0.51
0.71
0.89
0.96
0.93
0.81
0.70
0.63
0.63
0.64
0.65
0.68
0.77
0.96
1.23
1.52
1.75
1.86
1.85
1.79
1.75
1.73
1.69
1.54
1.24
0.83
0.44
0.18
0.15
0.27
0.43
0.48
0.37
0.15
-0.09
-0.28
-0.41
-0.55
-0.77
-1.07
-1.41
-1.74
-1.99
-2.15
-2.22
-2.20
-2.08
-1.89
-1.65
-1.40
-1.22
-1.12
-1.08
-1.09
-1.09
-1.10
-1.16
-1.26
-1.37
-1.44
-1.37
-1.14
-0.76
-0.29
0.17
0.58
0.93
1.22
1.47
1.68
1.80
1.77
1.58
1.25
0.83
0.43
0.10
-0.12
-0.23
-0.26
-0.24
-0.16
-0.05
0.10
0.24
0.35
0.42
0.51
0.65
0.85
1.04
1.09
0.92
0.58
0.20
-0.01
0.04
0.31
0.60
0.76
0.70
0.49
0.28
0.17
0.19
0.27
0.33
0.31
0.23
0.16
0.16
0.23
0.34
0.45
0.47
0.39
0.22
0.01
-0.20
-0.33
-0.37
-0.33
-0.27
-0.20
-0.15
-0.10
-0.06
-0.06
-0.13
-0.28
-0.47
-0.61
-0.64
-0.57
-0.47
-0.45
-0.58
-0.84
-1.09
-1.21
-1.10
-0.80
-0.37
0.05
0.40
0.64
0.78
0.79
0.65
0.34
-0.09
-0.54
-0.87
-0.98
-0.87
-0.63
-0.35
-0.14
0.01
0.11
0.21
0.35
0.48
0.58
0.63
0.62
0.59
0.54
0.44
0.27
0.02
-0.23
-0.37
-0.30
-0.01
0.38
0.68
0.70
0.36
-0.23
-0.86
-1.34
-1.55
-1.49
-1.26
-0.96
-0.62
-0.27
0.09
0.40
0.58
0.62
0.54
0.46
0.47
0.60
0.79
0.95
1.03
1.06
1.09
1.17
1.31
1.46
1.58
1.66
1.72
1.72
1.61
1.27
0.68
-0.11
-0.93
-1.58
-1.95
-2.06
-2.03
-1.98
-1.94
-1.85
-1.60
-1.11
-0.47
0.18
0.63
0.78
0.65
0.33
-0.03
-0.30
-0.45
-0.48
-0.43
-0.33
-0.21
-0.09
0.00
0.05
0.04
-0.02
-0.14
-0.28
-0.45
-0.63
-0.81
-0.97
-1.09
-1.11
-1.03
-0.85
-0.64
-0.48
-0.40
-0.43
-0.51
-0.59
-0.63
-0.64
-0.60
-0.55
-0.49
-0.42
-0.33
-0.23
-0.11
0.05
0.27
0.56
0.91
1.27
1.58
1.80
1.89
1.85
1.74
1.62
1.54
1.52
1.53
1.53
1.48
1.39
1.29
1.24
1.28
1.42
1.60
1.76
1.82
1.78
1.64
1.47
1.33
1.26
1.26
1.31
1.35
1.34
1.25
1.06
0.76
0.37
-0.09
-0.57
-1.05
-1.49
-1.85
-2.06
-2.11
-1.98
-1.76
-1.58
-1.60
-1.89
-2.43
-3.03
-3.45
-3.51
-3.23
-2.73
-2.24
-1.86
-1.59
-1.29
-0.87
-0.37
0.05
0.20
0.02
-0.36
-0.68
-0.71
-0.37
0.23
0.85
1.29
1.50
1.56
1.62
1.76
1.93
2.01
1.90
1.58
1.18
0.87
0.83
1.10
1.58
2.11
2.49
2.60
2.40
1.99
1.50
1.08
0.80
0.68
0.64
0.62
0.57
0.48
0.38
0.35
0.43
0.61
0.82
0.93
0.84
0.50
-0.05
-0.67
-1.20
-1.50
-1.54
-1.40
-1.19
-1.03
-0.95
-0.94
-0.95
-0.96
-1.00
-1.07
-1.19
-1.31
-1.38
-1.34
-1.22
-1.06
-0.92
-0.84
-0.84
-0.86
-0.84
-0.73
-0.52
-0.25
-0.01
0.12
0.17
0.18
0.30
0.61
1.10
1.63
2.00
2.05
1.76
1.27
0.84
0.67
0.86
1.26
1.65
1.80
1.61
1.17
0.67
0.27
0.08
0.06
0.08
0.08
0.03
0.00
0.03
0.12
0.19
0.14
-0.08
-0.50
-1.03
-1.58
-2.04
-2.34
-2.46
-2.41
-2.26
-2.08
-1.99
-2.05
-2.24
-2.47
-2.62
-2.56
-2.28
-1.87
-1.49
-1.30
-1.34
-1.53
-1.70
-1.68
-1.43
-1.00
-0.56
-0.22
-0.02
0.10
0.19
0.31
0.42
0.45
0.37
0.20
0.05
0.02
0.14
0.38
0.61
0.74
0.74
0.66
0.62
0.75
1.14
1.76
2.51
3.19
3.61
3.65
3.31
2.73
2.10
1.61
1.33
1.19
1.09
0.93
0.67
0.38
0.16
0.07
0.11
0.23
0.33
0.33
0.21
0.03
-0.12
-0.20
-0.18
-0.11
-0.08
-0.16
-0.33
-0.50
-0.55
-0.42
-0.15
0.11
0.18
-0.05
-0.56
-1.19
-1.76
-2.09
-2.13
-1.93
-1.59
-1.24
-0.98
-0.81
-0.71
-0.62
-0.51
-0.40
-0.31
-0.31
-0.41
-0.55
-0.65
-0.62
-0.45
-0.21
-0.04
-0.04
-0.19
-0.37
-0.41
-0.16
0.34
0.92
1.32
1.37
1.05
0.53
0.07
-0.11
0.04
0.42
0.83
1.08
1.10
0.95
0.78
0.72
0.84
1.08
1.34
1.46
1.37
1.06
0.64
0.27
0.06
0.05
0.14
0.20
0.12
-0.04
-0.15
-0.04
0.35
0.92
1.41
1.61
1.39
0.82
0.12
-0.48
-0.85
-1.03
-1.16
-1.39
-1.77
-2.22
-2.57
-2.66
-2.41
-1.92
-1.34
-0.87
-0.61
-0.54
-0.55
-0.52
-0.34
-0.01
0.42
0.86
1.21
1.41
1.47
1.42
1.30
1.12
0.91
0.68
0.47
0.34
0.33
0.46
0.63
0.76
0.73
0.48
0.03
-0.53
-1.08
-1.51
-1.77
-1.85
-1.76
-1.59
-1.41
-1.27
-1.19
-1.11
-0.97
-0.70
-0.33
0.05
0.30
0.33
0.16
-0.05
-0.12
0.06
0.43
0.83
1.06
1.06
0.91
0.78
0.80
0.98
1.23
1.40
1.45
1.40
1.38
1.47
1.63
1.77
1.78
1.61
1.31
0.93
0.56
0.21
-0.13
-0.46
-0.76
-0.96
-1.02
-0.91
-0.69
-0.45
-0.28
-0.23
-0.33
-0.50
-0.70
-0.82
-0.79
-0.59
-0.24
0.21
0.63
0.94
1.08
1.00
0.77
0.43
0.08
-0.22
-0.41
-0.45
-0.36
-0.15
0.07
0.22
0.21
0.05
-0.19
-0.42
-0.57
-0.61
-0.55
-0.41
-0.20
0.07
0.37
0.63
0.78
0.74
0.54
0.28
0.07
-0.01
0.04
0.13
0.16
0.08
-0.10
-0.33
-0.55
-0.74
-0.91
-1.03
-1.08
-0.99
-0.74
-0.30
0.24
0.78
1.23
1.50
1.59
1.56
1.48
1.46
1.55
1.76
2.04
2.28
2.38
2.29
2.04
1.71
1.42
1.26
1.24
1.31
1.35
1.27
1.01
0.56
-0.00
-0.62
-1.24
-1.84
-2.42
-2.97
-3.45
-3.83
-4.07
-4.17
-4.17
-4.11
-4.00
-3.84
-3.57
-3.18
-2.67
-2.11
-1.58
-1.17
-0.93
-0.89
-1.02
-1.23
-1.45
-1.60
-1.63
-1.56
-1.42
-1.26
-1.09
-0.90
-0.66
-0.38
-0.11
0.06
0.07
-0.03
-0.16
-0.19
-0.03
0.29
0.66
1.00
1.26
1.49
1.76
2.10
2.43
2.66
2.71
2.61
2.46
2.42
2.57
2.92
3.33
3.63
3.69
3.49
3.10
2.65
2.22
1.81
1.36
0.81
0.20
-0.35
-0.64
-0.58
-0.21
0.25
0.55
0.52
0.17
-0.34
-0.77
-0.99
-0.95
-0.75
-0.48
-0.25
-0.09
-0.05
-0.17
-0.44
-0.79
-1.09
-1.17
-0.95
-0.50
0.03
0.43
0.55
0.36
-0.04
-0.52
-0.97
-1.33
-1.58
-1.68
-1.61
-1.32
-0.83
-0.25
0.27
0.58
0.57
0.27
-0.15
-0.51
-0.63
-0.42
0.04
0.61
1.07
1.29
1.19
0.87
0.44
0.10
-0.05
0.01
0.16
0.27
0.21
-0.01
-0.34
-0.67
-0.88
-0.91
-0.75
-0.43
-0.01
0.41
0.73
0.88
0.85
0.66
0.42
0.23
0.16
0.19
0.25
0.23
0.09
-0.17
-0.49
-0.76
-0.93
-0.96
-0.84
-0.61
-0.34
-0.06
0.19
0.39
0.49
0.47
0.32
0.03
-0.31
-0.59
-0.68
-0.54
-0.22
0.12
0.31
0.22
-0.12
-0.57
-0.96
-1.17
-1.18
-1.06
-0.86
-0.62
-0.31
0.07
0.52
0.99
1.39
1.65
1.76
1.71
1.56
1.36
1.20
1.15
1.22
1.37
1.46
1.33
0.87
0.13
-0.72
-1.44
-1.82
-1.80
-1.48
-1.06
-0.74
-0.64
-0.76
-0.98
-1.17
-1.24
-1.15
-0.91
-0.58
-0.21
0.15
0.44
0.63
0.67
0.56
0.32
0.00
-0.31
-0.55
-0.61
-0.45
-0.07
0.45
0.97
1.31
1.37
1.15
0.77
0.41
0.25
0.34
0.61
0.91
1.05
0.96
0.69
0.37
0.17
0.19
0.40
0.67
0.83
0.75
0.40
-0.09
-0.56
-0.87
-0.98
-0.98
-0.97
-1.04
-1.12
-1.12
-0.95
-0.60
-0.17
0.15
0.23
0.02
-0.39
-0.86
-1.27
-1.56
-1.74
-1.83
-1.89
-1.92
-1.90
-1.82
-1.66
-1.44
-1.20
-1.04
-1.01
-1.14
-1.40
-1.71
-1.96
-2.09
-2.10
-2.06
-2.06
-2.14
-2.29
-2.45
-2.57
-2.60
-2.58
-2.58
-2.65
-2.80
-2.99
-3.12
-3.06
-2.74
-2.08
-1.06
0.30
1.93
3.74
5.60
7.37
8.93
10.16
11.00
11.40
11.39
11.04
10.51
9.95
9.47
9.09
8.67
8.02
6.96
5.45
3.61
1.67
-0.13
-1.62
-2.74
-3.50
-3.94
-4.13
-4.12
-3.98
-3.81
-3.69
-3.62
-3.60
-3.56
-3.43
-3.20
-2.85
-2.41
-1.91
-1.40
-0.93
-0.57
-0.36
-0.33
-0.46
-0.70
-0.97
-1.22
-1.41
-1.55
-1.65
-1.72
-1.75
-1.70
-1.57
-1.39
-1.21
-1.12
-1.13
-1.22
-1.33
-1.36
-1.23
-0.96
-0.59
-0.21
0.10
0.27
0.31
0.25
0.21
0.29
0.52
0.81
1.04
1.05
0.80
0.41
0.11
0.08
0.31
0.62
0.78
0.61
0.17
-0.33
-0.64
-0.64
-0.42
-0.20
-0.17
-0.37
-0.68
-0.90
-0.88
-0.63
-0.27
0.05
0.26
0.37
0.45
0.57
0.72
0.83
0.84
0.72
0.50
0.26
0.07
-0.03
-0.03
0.07
0.21
0.30
0.28
0.13
-0.11
-0.35
-0.48
-0.49
-0.42
-0.39
-0.52
-0.80
-1.12
-1.35
-1.39
-1.28
-1.08
-0.90
-0.76
-0.64
-0.47
-0.26
-0.04
0.15
0.34
0.55
0.80
1.05
1.22
1.23
1.08
0.86
0.68
0.60
0.59
0.56
0.41
0.13
-0.17
-0.39
-0.43
-0.33
-0.19
-0.17
-0.31
-0.60
-0.93
-1.16
-1.18
-0.97
-0.59
-0.14
0.27
0.58
0.77
0.83
0.78
0.63
0.43
0.26
0.19
0.29
0.56
0.93
1.30
1.56
1.68
1.67
1.60
1.57
1.58
1.62
1.60
1.48
1.21
0.81
0.35
-0.10
-0.51
-0.87
-1.16
-1.36
-1.46
-1.41
-1.17
-0.76
-0.25
0.25
0.62
0.74
0.57
0.19
-0.21
-0.41
-0.23
0.33
1.13
1.94
2.52
2.76
2.68
2.38
1.98
1.59
1.27
1.03
0.85
0.70
0.49
0.18
-0.28
-0.88
-1.54
-2.19
-2.78
-3.32
-3.82
-4.29
-4.68
-4.96
-5.10
-5.11
-5.09
-5.15
-5.40
-5.92
-6.67
-7.56
-8.39
-9.00
-9.27
-9.15
-8.78
-8.37
-8.26
-8.74
-9.91
-11.66
-13.64
-15.45
-16.77
-17.63
-18.45
-19.86
-22.43
-26.32
-31.15
-36.07
-40.16
-42.83
-44.26
-45.43
-47.80
-52.58
-60.08
-69.47
-79.02
-86.86
-91.78
-93.93
-94.85
-96.87
-101.85
-110.10
-119.93
-128.03
-130.67
-124.95
-110.18
-88.34
-64.01
-42.71
-29.70
-28.94
-41.98
-66.78
-96.63
-120.63
-126.26
-104.14
-51.76
24.46
111.14
193.29
259.60
306.76
339.19
365.01
389.88
414.39
433.79
441.07
431.16
403.05
359.18
302.82
238.76
167.75
90.00
7.98
-72.59
-143.92
-198.91
-233.76
-249.35
-250.24
-242.76
-230.94
-215.04
-193.24
-164.92
-133.64
-106.63
-91.50
-91.28
-101.78
-112.09
-109.25
-85.14
-40.88
13.34
63.75
99.82
118.69
123.66
122.02
119.98
119.25
117.44
111.04
98.89
83.33
69.01
59.79
56.95
58.65
60.99
60.31
54.86
45.67
35.54
27.53
23.31
22.71
23.88
24.20
21.62
15.60
7.27
-1.23
-7.81
-11.30
-11.77
-10.30
-8.42
-7.32
-7.41
-8.24
-8.95
-8.81
-7.51
-5.34
-3.00
-1.27
-0.64
-1.20
-2.64
-4.42
-6.00
-6.93
-6.93
-5.86
-3.63
-0.18
4.51
10.39
17.24
24.61
31.92
38.53
43.83
47.39
48.96
48.48
46.03
41.93
36.29
29.23
20.90
11.48
1.23
-9.48
-20.19
-30.35
-39.53
-47.55
-54.48
-60.50
-65.76
-70.20
-73.57
-75.34
-75.00
-72.24
-67.25
-60.95
-54.38
-48.44
-43.46
-39.06
-34.23
-27.79
-18.92
-7.73
4.32
15.48
24.09
29.24
31.13
30.91
29.92
29.17
28.67
26.95
22.39
13.53
-0.74
-21.07
-47.46
-78.57
-111.04
-135.98
-146.82
-139.30
-113.66
-75.31
-33.19
3.63
29.34
43.02
47.77
47.58
45.76
43.55
40.68
36.83
32.60
29.50
29.00
31.50
35.68
39.65
41.61
40.73
37.57
33.57
30.49
29.55
30.96
33.69
36.33
37.63
37.03
34.85
32.03
29.62
28.37
28.40
29.13
29.76
29.54
28.11
25.64
22.55
19.34
16.32
13.54
10.72
7.49
3.46
-2.03
-8.89
-16.91
-25.86
-35.65
-46.28
-57.81
-70.39
-84.20
-99.35
-115.83
-133.60
-152.56
-172.46
-192.90
-213.28
-232.91
-251.03
-266.87
-279.59
-288.45
-292.84
-292.32
-287.18
-277.55
-263.82
-246.71
-227.11
-205.94
-184.05
-162.03
-140.14
-118.32
-96.27
-73.73
-50.64
-27.19
-3.86
18.72
39.94
59.23
76.24
90.77
102.57
111.21
116.15
116.82
112.97
104.90
93.49
80.11
66.20
52.78
40.02
27.31
13.58
-1.95
-19.26
-37.31
-54.11
-67.37
-75.23
-76.83
-72.35
-62.49
-47.63
-27.32
-0.21
35.64
82.10
140.57
211.66
294.75
385.84
478.27
562.43
627.25
663.19
665.48
636.05
582.88
516.96
448.29
383.24
323.83
269.32
218.53
171.37
128.73
91.43
59.14
30.33
3.21
-23.28
-48.84
-72.08
-91.13
-104.86
-113.38
-118.00
-120.75
-123.37
-126.79
-130.83
-134.45
-136.42
-135.91
-132.91
-128.17
-122.86
-118.03
-114.20
-111.27
-108.65
-105.61
-101.70
-96.83
-91.32
-85.74
-80.56
-76.03
-72.12
-68.56
-64.81
-60.76
-56.43
-51.96
-47.58
-43.46
-39.71
-36.35
-33.33
-30.58
-28.09
-25.80
-23.70
-21.77
-20.02
-18.42
-16.96
-15.63
-14.40
-13.31
-12.33
-11.44
-10.61
-9.86
-9.16
-8.51
-7.90
-7.32
-6.79
-6.29
-5.82
-5.38
-4.94
-4.50
-4.07
-3.65
-3.23
-2.82
-2.41
-2.02
-1.62
-1.23
-0.83
-0.45
-0.12
0.13
0.24
0.19
-0.10
-0.69
-1.61
-2.85
-4.31
-5.84
-7.22
-8.24
-8.75
-8.63
-7.88
-6.58
-4.82
-2.75
-0.46
1.96
4.45
6.95
9.39
11.68
13.70
15.39
16.76
17.92
19.08
20.47
22.24
24.34
26.64
28.81
30.59
31.90
32.95
34.15
35.99
38.78
42.36
46.27
49.76
52.07
52.82
52.05
50.23
47.92
45.44
42.38
37.80
30.46
19.40
4.39
-13.71
-33.09
-51.73
-67.26
-78.95
-86.96
-92.30
-96.48
-101.26
-108.15
-117.56
-128.00
-136.13
-136.60
-124.89
-99.71
-64.40
-26.19
6.60
28.04
36.86
36.25
31.60
27.58
26.40
27.84
30.38
32.11
31.20
25.30
11.83
-10.83
-41.77
-76.90
-110.08
-135.15
-148.91
-150.66
-142.55
-127.76
-108.88
-87.43
-64.43
-41.17
-18.90
0.28
15.92
28.98
41.27
54.07
67.34
79.17
86.76
87.26
79.05
62.82
41.51
20.18
4.40
-1.29
4.55
19.30
37.11
51.19
57.09
54.28
46.09
37.37
31.79
29.83
29.09
26.55
20.84
13.65
8.79
9.86
18.56
34.10
54.04
75.27
94.72
109.17
115.09
109.44
91.63
65.26
37.75
17.43
9.20
11.85
18.64
21.34
14.86
-0.03
-17.69
-31.37
-37.24
-36.03
-31.59
-28.10
-26.86
-26.00
-22.59
-15.15
-4.91
4.82
10.67
11.01
6.34
-1.02
-8.30
-13.82
-17.43
-20.15
-23.36
-28.18
-35.09
-44.05
-54.39
-64.60
-72.16
-73.80
-66.59
-49.29
-23.76
5.48
32.78
53.57
66.30
72.06
72.77
68.87
59.27
42.61
20.09
-4.12
-24.40
-36.78
-41.39
-42.41
-45.70
-53.09
-63.67
-73.33
-77.09
-71.71
-57.11
-36.14
-13.05
7.91
24.50
36.59
45.74
54.13
63.49
74.10
83.58
87.08
78.81
56.32
22.75
-13.63
-42.65
-56.13
-50.94
-30.17
1.51
33.17
53.07
56.10
46.30
31.58
17.88
6.86
-2.96
-13.35
-24.77
-35.04
-40.69
-39.58
-32.49
-22.58
-13.80
-8.99
-8.97
-12.79
-17.81
-20.94
-20.30
-16.15
-10.38
-5.31
-2.61
-2.71
-5.10
-8.32
-10.57
-10.79
-9.09
-6.50
-4.26
-3.19
-3.53
-5.07
-7.10
-8.82
-9.75
-9.95
-9.86
-9.98
-10.65
-11.96
-13.84
-16.04
-18.30
-20.46
-22.51
-24.58
-26.79
-29.19
-31.82
-34.67
-37.71
-40.96
-44.40
-48.04
-51.86
-55.78
-59.68
-63.25
-66.44
-68.74
-69.76
-69.12
-66.53
-61.86
-55.33
-47.00
-37.18
-26.31
-14.83
-3.30
7.86
18.28
27.69
35.94
42.92
48.46
52.39
54.63
55.11
53.86
50.99
46.75
41.47
35.62
29.68
24.13
19.36
15.57
12.62
10.22
7.86
5.01
1.17
-3.96
-10.42
-18.08
-26.62
-35.54
-44.34
-52.55
-59.78
-65.79
-70.35
-73.40
-75.07
-75.61
-75.22
-74.11
-72.57
-70.93
-69.79
-69.54
-70.65
-73.55
-78.49
-85.44
-94.21
-104.48
-115.87
-128.02
-140.23
-151.70
-161.47
-168.46
-171.53
-169.63
-162.02
-148.36
-130.96
-111.85
-93.24
-77.08
-64.69
-56.71
-53.05
-53.20
-56.63
-63.12
-72.32
-83.96
-97.36
-111.13
-123.22
-131.54
-134.54
-131.96
-125.03
-115.66
-105.71
-95.90
-85.19
-71.02
-50.45
-21.66
14.84
56.02
97.56
135.42
167.70
195.40
221.75
250.73
285.42
326.91
374.20
424.44
472.91
513.15
537.56
538.98
513.56
463.55
398.22
331.28
275.92
239.08
218.98
207.07
193.59
173.34
148.35
125.86
113.03
111.98
118.13
122.73
117.65
99.45
70.55
37.06
5.15
-22.02
-44.72
-65.27
-85.41
-104.46
-118.94
-123.99
-115.89
-94.63
-65.11
-36.02
-16.83
-13.80
-27.03
-50.22
-73.43
-87.74
-89.18
-80.01
-66.78
-56.22
-51.65
-51.86
-52.97
-51.24
-45.26
-35.91
-24.42
-10.41
8.57
35.63
71.97
114.87
158.13
194.13
216.52
222.08
211.07
186.26
151.64
111.47
69.71
29.81
-5.49
-34.59
-56.99
-73.14
-83.96
-90.57
-93.96
-95.01
-94.48
-92.43
-88.41
-81.63
-71.71
-59.61
-47.49
-37.84
-32.14
-29.89
-28.88
-26.62
-21.57
-13.86
-4.83
4.26
12.95
21.45
29.73
36.60
39.70
36.74
26.88
11.48
-6.27
-22.77
-35.44
-43.42
-47.47
-49.23
-50.03
-50.26
-49.70
-47.63
-43.67
-38.25
-32.26
-26.90
-23.24
-21.67
-21.93
-23.20
-24.20
-23.62
-20.50
-14.79
-7.68
-1.49
1.14
-1.74
-10.45
-23.36
-37.55
-50.07
-59.01
-64.02
-65.95
-66.01
-64.89
-62.47
-58.23
-52.01
-44.65
-38.07
-34.47
-35.33
-40.57
-48.40
-55.97
-60.60
-60.97
-57.29
-50.83
-43.04
-34.68
-25.71
-15.56
-3.73
9.77
24.27
38.50
50.87
59.70
63.78
62.86
58.11
51.90
47.24
46.53
50.61
58.41
67.32
74.08
75.89
71.16
59.77
42.96
22.97
2.61
-15.18
-27.83
-33.73
-32.75
-26.14
-16.03
-4.77
5.88
14.82
21.44
25.33
26.04
23.21
16.98
8.39
-0.46
-6.86
-8.31
-3.47
7.08
21.10
35.20
45.96
51.07
49.93
43.71
34.87
26.35
20.67
19.33
22.40
28.50
35.33
40.51
42.60
41.64
38.92
36.19
34.46
33.36
31.27
26.25
17.23
4.85
-8.59
-20.03
-26.85
-28.00
-24.28
-17.84
-11.00
-5.14
-0.07
5.51
12.88
22.14
31.78
39.46
43.33
43.26
40.83
38.24
36.88
36.45
35.44
32.63
28.61
26.20
29.14
39.92
57.94
79.30
98.33
110.10
112.21
105.37
92.50
77.26
63.02
52.42
47.58
49.80
58.77
71.69
83.28
87.14
78.10
54.18
17.01
-28.88
-77.69
-123.94
-163.53
-194.15
-215.42
-228.69
-235.91
-239.41
-240.84
-240.33
-236.29
-226.49
-209.63
-186.40
-159.16
-130.74
-103.45
-78.52
-56.45
-37.58
-22.43
-11.39
-4.43
-0.91
0.49
1.15
2.23
4.25
7.00
9.76
11.72
12.35
11.67
10.24
8.82
8.08
8.29
9.24
10.37
11.02
10.74
9.49
7.70
5.97
4.88
4.65
5.10
5.72
5.91
5.21
3.58
1.47
-0.43
-1.41
-1.18
0.04
1.51
2.28
1.60
-0.63
-3.74
-6.54
-7.77
-6.76
-3.79
-0.18
2.34
2.33
-0.59
-5.36
-10.00
-12.16
-10.20
-3.90
5.32
14.78
21.20
21.80
15.89
5.47
-4.80
-9.22
-3.38
13.51
38.07
63.71
83.17
90.62
82.76
59.21
22.91
-19.66
-59.23
-86.40
-95.27
-86.44
-67.30
-48.85
-40.14
-43.70
-54.98
-65.29
-67.83
-61.29
-49.67
-38.67
-31.96
-29.38
-28.23
-26.07
-22.28
-18.36
-16.56
-18.19
-22.95
-29.24
-34.74
-37.84
-38.67
-39.06
-41.46
-46.95
-53.82
-57.52
-52.62
-35.68
-7.64
26.00
57.39
79.62
89.67
88.94
81.82
72.98
65.31
59.39
54.44
49.74
45.31
41.84
39.85
39.14
38.78
37.73
35.09
30.91
25.98
21.47
18.38
17.08
17.18
17.71
17.68
16.39
13.87
10.76
7.95
6.18
5.69
6.15
6.85
7.11
6.51
5.17
3.54
2.23
1.60
1.72
2.26
2.74
2.77
2.22
1.37
0.65
0.51
1.08
2.21
3.43
4.22
4.29
3.70
2.95
2.70
3.49
5.42
8.10
10.76
12.56
13.08
12.48
11.35
10.66
11.19
13.31
17.04
22.07
27.81
33.10
36.41
36.60
33.87
30.05
28.14
30.37
37.22
46.87
56.11
61.99
63.28
60.98
57.13
52.97
49.58
46.71
43.53
38.86
31.11
18.29
-1.73
-29.36
-62.16
-94.81
-121.15
-136.37
-139.08
-130.74
-116.19
-99.63
-83.37
-67.94
-53.25
-39.68
-28.31
-20.37
-16.27
-15.35
-15.90
-15.95
-14.19
-10.56
-5.98
-1.78
1.00
1.97
1.46
0.52
0.29
1.46
4.08
7.67
11.61
15.45
19.03
22.65
26.84
32.00
38.12
44.60
50.54
54.89
56.75
55.63
51.44
44.59
35.75
25.81
15.47
5.40
-3.84
-11.82
-18.23
-22.93
-25.91
-27.55
-27.94
-27.49
-26.56
-25.43
-24.25
-23.08
-21.91
-20.73
-19.58
-18.42
-17.32
-16.33
-15.48
-14.69
-13.92
-13.11
-12.23
-11.31
-10.43
-9.71
-9.24
-9.00
-8.88
-8.74
-8.42
-7.85
-7.15
-6.53
-6.31
-6.65
-7.55
-8.73
-9.79
-10.34
-10.25
-9.75
-9.35
-9.64
-10.99
-13.35
-16.19
-18.74
-20.31
-20.64
-20.16
-19.74
-20.40
-22.79
-26.81
-31.62
-35.98
-39.00
-40.22
-40.11
-39.62
-39.73
-41.19
-44.52
-50.06
-57.72
-66.34
-73.16
-74.27
-65.93
-46.66
-18.52
13.04
41.23
60.60
69.18
68.73
63.17
56.46
50.86
46.72
43.34
40.06
36.93
34.32
32.50
31.19
29.85
28.06
25.57
22.55
19.24
15.79
12.06
7.84
3.02
-2.07
-6.70
-9.76
-9.82
-5.35
4.80
20.55
39.71
57.94
69.63
70.54
59.78
40.58
19.14
1.83
-7.44
-8.54
-4.41
1.20
5.80
8.88
11.36
14.24
17.62
20.62
22.21
22.08
20.81
19.77
20.30
23.11
27.97
33.94
39.87
44.92
48.94
52.27
55.48
58.90
62.21
64.49
64.56
61.33
54.27
43.56
30.02
14.90
-0.24
-14.31
-26.55
-36.55
-44.17
-49.46
-52.64
-54.06
-54.16
-53.66
-52.71
-51.46
-49.89
-47.92
-45.50
-42.84
-40.42
-38.72
-38.13
-38.65
-39.87
-41.00
-41.27
-40.30
-38.36
-36.31
-35.21
-35.91
-38.46
-42.19
-45.81
-48.25
-48.87
-47.94
-46.41
-45.39
-45.85
-48.43
-53.53
-61.04
-69.76
-77.01
-78.86
-71.49
-53.03
-25.17
7.04
36.82
58.51
69.66
71.56
67.90
62.45
57.41
53.01
48.52
43.48
38.42
34.49
32.63
32.77
33.85
34.41
33.22
30.01
25.50
20.96
17.58
16.00
15.97
16.64
16.92
16.01
13.76
10.64
7.46
4.98
3.61
3.19
3.19
2.99
2.16
0.60
-1.43
-3.45
-5.09
-6.19
-6.88
-7.48
-8.30
-9.54
-11.20
-13.15
-15.16
-17.04
-18.74
-20.43
-22.29
-24.48
-27.08
-30.08
-33.40
-36.92
-40.37
-43.52
-46.30
-48.51
-49.77
-49.56
-47.40
-42.93
-36.39
-28.22
-19.46
-11.48
-6.15
-4.84
-8.15
-15.77
-26.62
-39.35
-52.55
-64.98
-75.79
-84.43
-89.98
-91.09
-86.27
-74.49
-55.64
-30.88
-2.47
26.42
52.94
75.11
92.49
106.02
117.28
127.99
138.59
150.53
164.37
179.10
191.50
196.44
188.55
164.90
127.07
81.44
37.13
2.07
-19.82
-29.56
-31.55
-30.66
-29.94
-29.87
-29.49
-27.86
-25.31
-23.16
-22.87
-25.03
-29.04
-33.61
-37.14
-38.67
-38.01
-35.89
-33.50
-32.08
-32.48
-34.86
-38.72
-43.05
-46.70
-48.73
-49.00
-47.87
-46.31
-45.32
-45.54
-47.16
-50.26
-55.03
-61.55
-68.96
-74.74
-74.90
-65.34
-44.17
-13.29
21.68
53.39
75.80
86.61
87.56
82.81
76.44
70.64
65.49
60.17
54.27
48.41
43.93
41.74
41.62
42.31
42.26
40.23
36.16
31.02
26.25
23.29
22.79
24.44
27.18
29.76
31.18
31.09
30.13
28.54
26.82
25.06
22.94
19.84
15.21
8.79
0.85
-7.96
-16.90
-25.13
-32.17
-37.86
-42.34
-45.85
-48.61
-50.65
-51.96
-52.51
-52.16
-50.88
-48.77
-45.97
-42.71
-39.20
-35.62
-32.19
-29.20
-26.76
-25.02
-24.21
-24.53
-26.19
-29.32
-33.97
-40.20
-47.99
-56.81
-66.19
-75.72
-85.02
-93.83
-101.99
-109.53
-116.63
-123.66
-130.31
-136.48
-142.18
-147.40
-152.19
-156.59
-160.66
-164.56
-168.57
-171.97
-174.29
-175.11
-174.04
-170.60
-164.11
-153.44
-136.61
-117.95
-98.92
-80.58
-63.71
-48.89
-36.56
-26.95
-20.13
-16.03
-14.46
-14.09
-13.81
-12.71
-10.23
-6.23
-0.92
5.18
11.43
17.26
23.10
29.36
36.53
44.89
54.44
64.85
75.60
86.20
96.36
106.60
117.52
129.64
143.07
157.32
171.50
184.59
195.86
205.22
213.54
222.30
233.42
248.90
270.29
297.95
330.24
363.30
391.71
410.03
414.37
403.58
379.20
344.65
303.99
261.19
219.80
183.08
153.72
133.47
122.44
119.03
120.46
123.74
126.31
126.01
120.49
107.10
83.76
50.54
10.71
-29.59
-63.46
-85.91
-95.93
-96.45
-92.51
-88.60
-86.93
-87.16
-87.74
-87.52
-86.57
-85.87
-86.14
-86.90
-86.69
-83.96
-78.24
-70.76
-64.01
-60.36
-60.61
-63.24
-64.98
-62.50
-54.23
-41.42
-27.69
-17.26
-12.83
-14.40
-19.33
-23.98
-25.61
-23.55
-19.08
-14.37
-11.15
-10.02
-10.68
-12.61
-15.75
-20.61
-27.86
-37.73
-49.58
-61.93
-72.93
-80.92
-84.86
-84.53
-80.41
-73.45
-64.82
-55.59
-46.64
-38.60
-31.83
-26.53
-22.76
-20.44
-19.38
-19.43
-20.37
-21.92
-23.68
-25.21
-26.25
-26.88
-27.49
-28.52
-30.08
-31.74
-32.84
-32.96
-32.47
-32.59
-34.83
-40.23
-48.63
-58.72
-68.45
-75.93
-80.18
-81.14
-79.36
-75.43
-69.82
-62.96
-55.60
-48.94
-44.23
-42.39
-43.44
-46.29
-49.00
-49.51
-46.21
-38.40
-26.24
-10.44
7.83
27.06
45.51
61.48
73.71
81.71
85.81
86.87
85.98
83.92
81.02
77.24
72.50
66.89
60.65
54.12
47.55
41.70
37.23
34.47
33.27
33.06
33.23
33.25
32.87
32.21
32.71
35.65
41.45
49.44
58.27
66.64
73.55
78.47
81.39
84.36
89.35
97.28
107.54
118.50
128.27
135.18
137.98
136.17
132.27
129.10
128.43
130.34
133.89
138.06
142.10
145.16
133.18
97.97
40.43
-28.95
-97.01
-154.38
-196.90
-224.26
-238.74
-243.95
-241.50
-232.60
-218.62
-201.65
-184.17
-168.52
-156.31
-148.55
-145.41
-144.66
-143.74
-140.45
-133.17
-120.63
-102.07
-77.74
-49.94
-22.55
1.12
18.84
30.11
35.94
38.87
39.99
39.82
38.01
34.01
28.26
21.95
16.45
12.56
10.23
8.54
6.50
3.31
-1.15
-6.11
-10.49
-13.44
-14.90
-15.50
-16.26
-17.85
-20.44
-23.69
-26.93
-29.59
-31.29
-32.13
-32.41
-32.50
-32.45
-32.05
-31.01
-28.63
-24.60
-18.89
-11.71
-3.44
5.50
14.88
24.40
33.50
41.37
46.99
49.56
48.68
44.44
37.42
28.81
19.68
10.52
1.30
-8.12
-17.49
-26.12
-32.99
-37.14
-37.14
-32.49
-24.12
-14.11
-4.71
2.54
7.07
9.08
9.31
10.04
12.98
18.34
24.94
31.46
37.31
42.81
48.63
55.83
67.25
84.84
108.30
135.01
161.56
184.98
203.74
217.24
217.00
200.52
173.63
146.51
125.59
110.91
99.04
86.54
71.94
53.84
34.10
14.23
-6.34
-29.90
-59.14
-96.76
-140.24
-187.91
-238.25
-287.08
-328.99
-358.47
-371.15
-365.48
-344.68
-316.06
-289.76
-273.73
-268.75
-269.52
-267.83
-256.23
-230.74
-192.25
-144.23
-91.34
-36.15
22.24
84.66
148.61
207.83
254.51
282.35
291.30
286.98
271.10
248.79
226.67
208.53
193.43
182.26
169.53
152.88
127.66
95.14
59.15
24.37
-5.34
-27.05
-39.54
-44.27
-43.20
-38.91
-32.86
-26.90
-19.84
-12.13
-5.56
-2.59
-5.71
-15.92
-33.93
-56.96
-81.91
-103.66
-115.97
-113.10
-92.87
-58.14
-15.54
26.28
60.47
83.53
95.33
96.43
86.74
66.19
34.49
-5.04
-46.21
-82.04
-108.24
-124.44
-133.44
-134.76
-129.78
-116.71
-92.67
-57.79
-17.02
21.40
50.22
68.29
78.22
83.64
87.67
90.58
89.81
82.35
67.65
47.86
26.98
8.74
-5.16
-14.30
-18.64
-18.43
-14.57
-8.32
-1.80
3.11
4.95
2.92
-2.66
-11.11
-21.90
-34.40
-46.82
-57.57
-65.55
-70.61
-72.82
-71.36
-64.18
-48.59
-23.46
9.98
46.66
80.41
106.23
122.47
131.32
136.46
141.55
142.87
138.26
122.25
92.97
53.60
11.69
-24.76
-51.12
-68.07
-80.67
-94.15
-110.62
-126.38
-133.93
-125.81
-99.62
-59.33
-13.78
26.85
55.28
68.11
66.12
50.77
27.93
3.65
-16.81
-29.57
-32.74
-26.65
-14.29
-0.19
10.93
16.13
14.38
7.80
0.95
-0.55
7.86
27.34
54.63
83.02
105.13
114.94
110.45
93.86
70.05
44.13
19.79
-1.24
-18.58
-31.86
-41.22
-46.51
-48.20
-47.33
-44.84
-40.97
-35.54
-28.67
-21.80
-18.30
-21.60
-32.85
-49.32
-64.70
-71.56
-65.09
-45.96
-20.40
1.91
13.69
13.81
7.68
3.82
9.36
26.50
51.95
79.18
99.97
109.83
109.58
103.53
96.26
90.73
87.69
86.44
85.55
80.94
69.81
52.06
29.65
4.33
-22.24
-48.51
-73.22
-95.65
-118.67
-143.94
-170.09
-194.20
-214.87
-232.80
-249.30
-264.20
-255.41
-211.54
-140.48
-61.93
7.89
61.02
96.10
116.55
128.22
136.66
141.05
138.11
125.28
102.76
73.78
44.43
21.92
11.36
13.06
19.73
22.27
15.34
-0.76
-21.61
-41.37
-55.20
-60.73
-57.77
-48.95
-36.54
-21.46
-4.27
13.49
29.46
41.44
47.89
48.29
42.17
30.50
16.39
4.56
-0.10
5.37
21.08
43.65
67.27
85.31
92.96
89.10
76.39
60.57
48.25
44.47
50.62
63.88
78.73
89.50
92.82
88.28
78.78
68.86
62.77
62.91
69.53
81.33
96.28
112.17
125.60
133.37
133.18
124.66
109.62
91.51
74.41
61.52
54.54
51.52
48.65
42.00
28.95
9.17
-14.99
-39.05
-58.04
-58.66
-34.84
10.28
66.34
119.55
157.63
174.17
170.55
154.48
135.84
120.65
106.63
89.21
65.88
37.81
7.95
-21.45
-50.13
-79.57
-112.84
-157.65
-216.68
-285.03
-352.21
-408.13
-446.96
-467.68
-472.80
-467.41
-464.30
-471.94
-490.74
-514.89
-538.31
-558.31
-575.46
-592.06
-562.44
-468.14
-325.98
-174.85
-45.19
53.06
123.41
173.60
210.52
239.03
254.49
254.23
241.37
223.44
207.25
196.17
190.87
190.30
193.14
192.32
183.28
166.68
147.22
129.29
115.17
105.63
100.07
97.57
93.47
84.41
70.23
53.70
37.56
22.22
10.36
3.36
1.74
3.43
6.19
8.68
10.91
12.53
13.47
14.16
14.27
13.16
8.97
-0.18
-15.45
-34.84
-58.51
-86.15
-116.21
-146.51
-172.98
-190.09
-192.32
-179.29
-150.61
-111.04
-67.97
-28.00
4.54
29.24
48.61
65.88
83.00
100.33
116.54
127.91
134.57
137.93
139.65
140.60
140.53
138.44
133.65
125.97
116.21
106.24
97.52
90.71
85.56
80.86
77.13
72.27
65.00
55.20
43.84
31.97
20.22
9.10
-1.31
-11.11
-19.92
-27.31
-32.65
-35.09
-34.08
-29.78
-22.41
-12.53
-4.58
1.03
4.45
6.10
6.38
5.60
3.63
0.79
-2.69
-6.64
-10.66
-14.75
-18.73
-22.72
-24.79
-26.89
-30.21
-35.63
-43.89
-55.25
-70.07
-87.92
-108.22
-130.07
-152.77
-175.01
-195.55
-213.42
-227.79
-238.56
-245.39
-248.51
-248.47
-246.23
-242.31
-236.87
-229.51
-218.68
-207.39
-196.33
-185.79
-175.72
-166.14
-156.77
-147.25
-137.22
-126.18
-113.65
-98.37
-79.48
-56.49
-29.47
1.12
34.47
69.39
104.52
138.28
169.58
197.15
219.84
236.71
247.47
252.48
252.89
250.35
246.64
243.59
242.26
242.88
244.93
247.47
249.64
251.00
251.74
252.92
256.46
264.68
279.75
302.60
331.98
363.90
392.18
410.27
413.76
402.13
378.92
350.32
322.71
300.57
285.60
277.09
273.21
272.35
273.06
273.72
272.30
266.78
255.94
239.80
219.34
195.58
169.46
140.28
105.71
63.17
12.16
-44.30
-100.20
-149.21
-187.58
-214.30
-232.51
-248.29
-268.23
-296.82
-335.32
-382.51
-435.73
-491.08
-539.90
-571.60
-576.86
-551.32
-497.21
-422.34
-337.84
-254.48
-179.73
-112.55
-47.87
18.88
88.78
160.14
231.18
301.35
371.04
417.40
421.15
376.53
296.01
199.64
103.83
18.66
-50.32
-101.11
-134.95
-152.18
-154.41
-145.13
-129.67
-113.32
-99.58
-90.11
-85.37
-84.92
-85.58
-83.97
-78.47
-70.13
-61.51
-54.79
-51.12
-50.71
-53.19
-56.19
-57.23
-54.97
-49.91
-43.71
-38.08
-34.40
-33.64
-35.87
-39.61
-42.52
-42.36
-38.01
-29.80
-19.38
-9.17
-1.56
2.00
1.88
-0.05
-1.34
0.01
4.90
13.03
23.22
33.93
43.79
51.90
57.96
62.13
64.88
66.85
68.87
71.74
76.06
81.84
88.02
92.51
92.72
86.52
73.10
53.43
29.94
5.82
-15.80
-32.66
-43.63
-48.66
-48.65
-45.08
-39.72
-34.35
-30.02
-26.85
-24.22
-21.35
-17.76
-13.53
-9.19
-5.32
-2.80
-1.69
-1.42
-1.52
-2.17
-4.07
-7.96
-14.04
-21.69
-30.74
-40.07
-48.05
-53.91
-58.30
-62.94
-69.48
-78.66
-89.86
-103.10
-116.67
-127.89
-135.10
-138.77
-141.00
-144.21
-149.70
-157.12
-166.94
-177.37
-184.72
-185.54
-177.93
-162.25
-141.16
-119.80
-90.88
-60.22
-39.91
-35.45
-39.00
-35.76
-15.59
21.08
64.81
103.60
127.82
137.35
139.83
143.93
153.22
165.27
175.18
179.52
178.25
172.07
163.22
153.44
139.09
119.07
94.93
70.21
48.55
31.74
18.48
7.37
-1.73
-7.95
-10.19
-8.92
-6.13
-4.13
-4.25
-6.70
-9.97
-11.96
-11.47
-8.42
-4.18
-0.47
1.49
1.62
0.47
-0.79
-1.07
0.03
2.48
5.60
8.51
10.64
11.98
12.88
14.04
16.12
19.20
23.20
27.60
31.72
34.68
36.21
35.92
33.75
29.84
23.99
16.26
6.85
-3.90
-15.43
-26.11
-35.60
-44.05
-50.46
-55.00
-57.82
-59.26
-59.61
-59.06
-57.47
-55.11
-51.99
-48.33
-45.38
-43.90
-44.46
-47.19
-51.65
-56.82
-62.07
-66.68
-70.34
-74.34
-79.56
-86.70
-95.89
-106.47
-116.82
-125.93
-132.75
-132.54
-127.53
-120.63
-114.58
-111.71
-115.44
-125.40
-141.03
-159.78
-177.11
-188.52
-189.84
-179.66
-159.84
-134.28
-106.26
-80.50
-60.63
-47.77
-41.57
-40.10
-41.23
-42.92
-42.94
-38.87
-29.30
-13.83
6.34
28.48
50.23
70.81
91.44
115.14
145.17
182.81
227.22
275.50
323.68
368.14
406.25
436.42
458.50
474.07
485.91
497.21
509.46
520.46
524.04
512.62
480.61
428.53
363.78
297.36
239.03
193.02
156.86
123.07
83.99
34.82
-23.73
-85.45
-140.93
-180.01
-194.76
-182.35
-147.51
-101.74
-61.11
-39.55
-43.29
-68.45
-103.04
-132.21
-144.56
-141.05
-125.22
-106.46
-92.59
-84.05
-76.51
-67.69
-61.07
-63.79
-80.80
-109.45
-140.61
-162.39
-167.18
-156.27
-138.64
-125.65
-125.10
-137.64
-157.71
-178.42
-194.50
-203.98
-206.77
-202.32
-188.73
-164.24
-130.17
-92.24
-60.95
-43.99
-45.41
-62.48
-86.34
-105.20
-109.27
-94.77
-64.75
-26.91
10.54
41.72
64.79
80.96
93.16
104.20
115.54
127.65
140.63
153.37
162.51
163.24
150.73
123.44
84.34
40.14
-0.83
-31.12
-46.82
-47.48
-35.37
-16.47
2.87
18.64
28.97
33.31
32.38
27.44
20.20
12.35
5.07
-0.97
-4.74
-7.01
-8.01
-6.48
-0.94
10.12
27.50
51.08
79.53
109.64
136.16
146.32
132.95
96.97
47.39
-3.11
-43.65
-68.83
-79.40
-80.21
-76.70
-71.30
-64.32
-55.33
-44.79
-34.38
-26.14
-21.41
-20.10
-20.81
-20.75
-17.82
-11.53
-2.99
5.91
13.36
18.37
21.24
23.09
25.71
30.14
36.26
42.69
47.79
49.90
47.94
42.06
33.16
22.72
12.11
2.13
-6.97
-15.29
-21.75
-27.07
-31.49
-34.98
-37.42
-38.76
-39.15
-38.88
-38.24
-37.49
-36.96
-36.58
-36.26
-35.87
-35.25
-34.43
-33.48
-32.49
-31.57
-30.99
-30.76
-30.88
-31.28
-31.77
-32.28
-32.77
-33.22
-33.63
-34.25
-35.23
-36.70
-38.76
-41.22
-44.00
-46.99
-50.16
-53.48
-57.14
-61.14
-65.25
-69.73
-72.98
-73.92
-71.68
-65.91
-56.79
-45.06
-31.74
-17.14
-2.59
11.52
24.80
36.88
46.96
54.36
58.60
59.85
59.04
57.27
55.26
52.10
46.05
35.32
20.32
4.19
-8.05
-11.81
-5.73
8.13
24.90
40.03
50.96
57.52
60.03
57.36
47.06
27.78
2.55
-20.69
-31.56
-22.98
4.77
43.32
79.73
102.73
107.27
95.86
74.62
52.14
32.94
17.27
3.12
-11.46
-26.72
-41.14
-52.41
-58.96
-60.23
-57.24
-51.90
-45.65
-39.42
-33.07
-25.62
-15.61
-1.95
15.63
36.16
57.63
78.93
98.92
116.00
127.66
130.68
122.27
101.92
72.30
39.25
9.68
-11.54
-23.24
-28.28
-31.41
-37.32
-48.51
-64.36
-81.21
-93.69
-96.71
-88.40
-70.45
-47.61
-25.98
-10.59
-3.40
-3.16
-6.52
-10.24
-12.60
-13.46
-13.23
-12.08
-9.58
-5.00
1.98
10.95
20.82
30.37
38.76
46.39
54.65
64.98
77.35
89.41
96.80
94.76
80.72
56.05
26.31
-1.06
-19.16
-25.53
-22.16
-13.58
-4.41
3.18
8.59
11.87
12.59
9.38
0.53
-14.47
-34.17
-55.57
-74.79
-89.72
-100.04
-106.96
-112.57
-118.97
-127.51
-138.47
-151.16
-163.43
-172.17
-173.42
-163.84
-142.59
-112.46
-79.26
-49.40
-27.74
-14.50
-7.11
-1.32
6.48
17.66
31.34
45.59
59.23
71.62
83.63
95.55
106.77
115.76
120.86
121.75
117.76
109.87
99.83
89.45
79.69
70.68
61.89
52.64
42.50
31.53
20.43
10.18
1.75
-4.36
-8.05
-9.59
-9.44
-7.96
-5.58
-2.66
0.48
3.82
7.38
11.22
15.49
20.17
25.38
30.74
35.56
39.10
41.24
42.32
43.18
44.91
48.35
54.20
62.00
70.38
77.97
84.30
89.63
94.66
100.32
107.40
117.24
130.80
147.95
167.69
188.56
206.89
217.35
215.59
194.91
155.22
101.00
37.90
-28.71
-92.96
-151.99
-204.29
-245.93
-270.43
-270.47
-242.39
-190.59
-124.88
-53.71
13.33
68.03
106.69
128.83
135.26
126.44
100.49
57.57
5.69
-48.27
-99.90
-145.22
-181.65
-208.41
-211.13
-182.43
-149.24
-123.81
-102.98
-87.73
-78.54
-75.22
-77.42
-85.25
-101.60
-128.58
-148.28
-149.60
-132.39
-103.24
-70.21
-38.58
-10.42
12.32
29.07
44.00
58.14
70.07
79.58
87.44
94.58
101.55
107.52
112.20
115.33
119.07
123.92
130.35
138.58
148.01
157.22
164.22
168.18
171.09
174.41
178.80
184.46
190.36
193.84
191.13
178.57
153.96
123.30
91.49
62.28
37.49
16.02
-5.74
-32.82
-69.83
-119.45
-181.55
-253.50
-329.08
-398.55
-450.42
-474.88
-468.30
-436.18
-392.89
-356.87
-343.85
-359.69
-397.99
-443.53
-479.49
-494.85
-487.87
-464.85
-435.13
-406.36
-381.30
-358.87
-337.02
-315.28
-295.36
-279.45
-268.15
-259.26
-248.47
-231.07
-204.62
-170.18
-131.98
-95.67
-65.82
-44.24
-29.71
-18.95
-7.77
6.63
24.57
44.05
61.92
75.58
84.03
88.10
89.75
92.83
100.14
112.33
127.78
143.52
156.97
166.76
172.99
176.56
182.22
193.76
212.57
236.85
262.87
287.16
307.71
324.13
337.03
353.09
378.00
413.99
458.65
506.52
552.18
592.15
625.15
651.27
678.87
715.30
763.94
822.62
885.56
947.24
1004.69
1057.62
1060.33
983.48
821.80
600.41
360.66
138.15
-48.39
-195.21
-306.90
-391.27
-448.48
-478.70
-484.72
-473.35
-453.73
-433.74
-417.96
-407.73
-402.82
-396.49
-383.07
-360.52
-331.08
-299.52
-270.20
-245.49
-223.58
-205.12
-186.97
-166.97
-145.16
-123.72
-105.38
-91.62
-82.16
-75.25
-69.27
-61.76
-51.98
-40.98
-30.75
-22.93
-18.08
-15.54
-13.52
-9.96
-2.70
8.78
22.77
35.45
41.92
37.51
16.87
-22.61
-75.17
-128.19
-168.04
-186.97
-185.71
-170.89
-150.45
-129.96
-111.16
-93.40
-76.27
-60.82
-49.04
-42.33
-40.31
-41.08
-42.09
-40.98
-36.65
-29.84
-22.63
-17.35
-15.23
-15.91
-17.87
-19.37
-19.12
-16.83
-13.42
-10.46
-9.28
-10.24
-12.55
-14.74
-15.70
-15.07
-13.35
-11.64
-10.91
-11.35
-12.19
-12.00
-9.67
-4.89
1.47
7.93
12.96
15.59
15.50
12.52
6.75
-1.15
-9.40
-15.10
-14.95
-6.84
9.00
29.64
50.44
67.10
77.20
80.71
79.50
75.65
70.79
66.13
62.84
62.39
66.69
77.27
94.01
114.05
131.72
140.13
133.45
109.86
72.99
31.35
-4.64
-26.70
-31.82
-23.22
-8.23
5.12
11.51
10.21
5.08
2.91
10.47
31.51
65.34
107.57
152.17
193.85
230.02
257.90
274.67
277.73
264.65
234.12
187.55
129.93
68.92
12.24
-35.55
-74.27
-107.59
-140.87
-178.31
-220.84
-266.09
-309.85
-347.82
-377.51
-398.78
-413.54
-425.26
-438.06
-455.84
-481.46
-515.66
-556.06
-596.81
-629.42
-645.25
-638.57
-609.06
-561.88
-505.36
-447.22
-392.24
-341.63
-294.35
-249.41
-207.13
-169.27
-137.44
-111.71
-89.62
-67.29
-41.24
-9.70
27.16
68.31
111.91
155.62
196.37
231.33
257.78
274.09
280.71
280.57
279.56
281.99
289.12
298.93
310.04
322.01
336.08
354.43
378.85
411.82
450.79
488.70
516.70
532.26
537.03
535.17
530.64
525.40
523.14
522.33
517.43
501.64
476.90
448.38
421.22
397.78
377.41
362.98
351.77
335.84
304.10
255.35
192.98
122.89
51.63
-51.07
-183.14
-316.15
-403.67
-455.93
-487.96
-513.05
-534.81
-552.41
-562.28
-554.24
-524.24
-477.08
-425.35
-375.61
-331.65
-294.20
-261.73
-231.24
-195.53
-152.69
-107.06
-67.39
-36.03
-12.28
6.16
21.48
35.17
50.32
66.63
80.70
87.65
87.58
82.83
76.69
71.64
68.97
70.29
75.40
82.77
90.12
97.00
103.01
107.42
108.98
106.79
101.41
93.84
85.00
75.29
65.31
55.55
46.81
40.27
37.28
38.83
44.88
54.07
64.15
72.75
78.18
79.70
77.37
71.51
62.29
49.65
33.75
15.35
-4.26
-23.30
-40.18
-53.93
-64.39
-72.05
-77.74
-81.93
-84.60
-85.43
-83.90
-79.63
-72.52
-62.99
-52.02
-41.01
-31.32
-23.64
-17.79
-12.70
-6.93
0.84
11.10
22.94
34.55
44.07
50.54
54.13
56.09
58.00
61.38
67.02
73.93
80.15
84.06
85.35
84.82
84.15
85.08
89.18
97.28
107.72
117.55
124.58
128.60
130.79
132.57
135.11
138.91
143.69
146.32
143.37
133.53
118.40
100.21
79.81
56.64
30.15
0.74
-33.38
-74.32
-123.00
-178.48
-239.57
-305.37
-374.56
-444.19
-490.24
-490.24
-440.37
-360.12
-274.43
-198.33
-135.44
-83.38
-38.46
1.42
34.02
55.47
63.31
60.11
49.96
36.68
23.43
12.10
2.64
-7.42
-21.61
-42.85
-72.21
-110.11
-150.30
-184.85
-205.59
-206.69
-185.49
-143.36
-84.89
-16.03
57.16
130.13
202.03
272.14
326.45
349.42
337.24
299.77
248.85
197.19
138.59
69.39
-9.13
-93.03
-172.65
-236.02
-276.04
-282.19
-257.06
-215.57
-171.25
-128.12
-82.75
-29.96
27.59
86.09
137.50
173.60
191.46
196.30
196.82
193.24
186.94
177.74
165.11
147.65
123.64
93.30
60.29
28.84
0.83
-23.88
-47.90
-74.01
-99.33
-117.64
-123.49
-115.15
-94.62
-66.06
-34.13
-6.25
16.63
32.86
40.06
36.41
21.95
-1.43
-28.74
-53.34
-68.73
-69.91
-56.44
-32.61
-5.35
18.68
35.70
45.52
50.28
52.53
54.05
54.33
51.64
44.42
32.70
18.44
4.58
-6.52
-14.11
-19.20
-24.42
-32.59
-45.45
-62.71
-81.90
-99.01
-109.71
-110.11
-97.75
-72.79
-38.37
-0.40
33.69
57.03
65.37
58.23
38.94
13.14
-13.32
-35.99
-52.43
-61.95
-64.88
-62.07
-54.78
-44.75
-34.28
-25.73
-20.97
-20.60
-23.93
-29.27
-34.70
-38.93
-41.64
-43.44
-45.31
-47.89
-51.12
-54.09
-55.48
-53.89
-48.63
-39.66
-27.77
-14.19
-0.15
13.21
25.25
35.54
43.93
50.16
53.96
54.99
53.18
48.87
42.82
36.14
29.77
24.38
19.99
16.27
12.58
8.28
3.07
-3.08
-9.80
-16.52
-22.61
-27.55
-31.00
-32.84
-33.05
-31.45
-27.92
-22.13
-13.82
-2.95
10.34
25.47
41.51
57.09
70.74
80.84
86.29
86.75
82.71
75.29
65.70
54.79
42.92
30.34
17.35
4.75
-6.19
-14.32
-18.99
-20.37
-19.37
-17.14
-14.64
-12.43
-10.71
-9.44
-8.76
-8.79
-9.75
-11.67
-14.32
-17.34
-20.26
-22.76
-24.62
-25.96
-26.80
-27.15
-27.00
-26.25
-24.83
-22.79
-20.23
-17.37
-14.60
-12.17
-10.20
-8.90
-8.40
-8.88
-10.48
-13.15
-16.63
-20.54
-24.44
-27.96
-31.09
-33.93
-36.77
-39.85
-43.20
-46.67
-49.86
-52.19
-52.99
-51.64
-47.55
-40.53
-30.85
-19.13
-6.43
6.07
17.38
26.69
33.61
38.29
41.09
42.54
43.26
43.68
44.08
44.69
45.51
46.45
47.46
48.40
49.16
49.66
49.94
50.01
49.97
49.79
49.36
48.53
47.10
45.02
42.31
39.03
35.21
30.91
26.16
21.05
15.70
10.22
4.96
0.42
-3.03
-5.03
-5.29
-3.71
-0.31
4.68
10.70
17.31
23.98
30.05
35.10
39.13
42.56
45.98
49.93
54.66
60.43
66.93
73.02
77.29
78.93
78.05
75.46
72.05
68.70
66.78
66.79
67.61
67.21
64.19
58.24
50.05
40.34
29.81
20.15
12.05
4.12
-5.77
-18.28
-31.94
-43.99
-52.39
-55.67
-51.16
-37.38
-15.91
8.84
32.11
49.89
59.50
58.07
34.40
-9.72
-56.60
-86.58
-93.52
-82.75
-62.01
-33.63
-0.08
37.51
76.83
115.22
148.19
168.73
173.31
164.10
149.52
134.18
120.39
108.61
97.37
82.33
55.03
10.59
-48.87
-112.62
-173.95
-228.26
-273.33
-308.26
-312.42
-276.69
-212.09
-160.31
-124.62
-102.80
-85.60
-71.74
-61.22
-54.35
-54.52
-63.48
-79.62
-96.63
-114.45
-135.10
-161.45
-192.09
-220.81
-240.98
-245.83
-230.08
-190.05
-130.90
-61.59
6.25
64.78
111.94
148.36
176.83
201.61
229.09
262.75
303.50
345.04
378.37
395.07
388.37
354.46
294.00
213.60
123.15
34.04
-48.57
-122.40
-185.99
-238.98
-283.64
-324.41
-365.49
-409.28
-427.23
-399.98
-332.96
-251.34
-176.24
-114.88
-65.53
-24.46
11.43
43.36
66.13
74.99
69.86
56.32
42.21
34.90
39.51
58.57
90.88
127.06
155.10
165.70
155.75
127.78
88.42
45.92
8.77
-17.34
-33.08
-41.87
-46.11
-45.23
-37.05
-16.44
13.82
47.15
75.79
92.47
93.99
82.53
64.43
46.77
34.08
26.84
23.57
21.97
20.01
16.95
13.45
10.77
9.84
10.60
11.88
12.90
13.29
13.14
12.74
12.56
12.89
13.88
15.37
16.78
17.89
18.66
19.23
19.85
21.06
23.14
25.92
28.38
28.92
26.30
20.41
12.44
4.23
-2.61
-7.83
-12.45
-17.80
-24.52
-31.71
-37.48
-40.16
-39.81
-37.43
-35.01
-34.18
-35.45
-38.16
-41.21
-43.72
-44.77
-44.43
-42.44
-38.48
-32.36
-24.44
-15.65
-7.23
-0.26
4.65
7.46
8.65
8.75
8.26
7.55
6.94
6.64
6.71
7.10
7.50
7.81
7.86
7.69
7.47
7.33
7.35
7.47
7.54
7.37
6.99
6.59
6.45
6.82
7.73
8.81
9.62
9.73
8.93
7.59
6.45
6.45
8.35
12.38
18.01
24.31
30.21
34.87
37.99
39.72
40.25
39.53
37.06
31.93
23.15
10.26
-6.70
-27.02
-49.51
-72.28
-92.39
-105.92
-108.74
-98.45
-76.24
-47.50
-20.28
-2.39
2.11
-5.09
-17.47
-26.98
-27.96
-19.38
-4.54
11.23
23.75
30.76
31.88
27.46
17.96
4.36
-10.94
-24.07
-30.20
-26.45
-13.52
4.33
20.88
30.78
31.87
25.69
16.13
6.97
0.06
-5.19
-10.79
-18.46
-28.38
-38.80
-46.89
-49.67
-45.15
-32.94
-14.57
7.25
29.21
48.24
62.38
71.15
75.61
77.59
78.47
78.38
76.22
70.40
59.92
45.34
28.81
12.95
-0.44
-11.40
-21.42
-32.18
-44.34
-57.28
-68.69
-76.36
-78.34
-73.65
-62.59
-46.53
-28.08
-9.37
7.04
19.25
26.52
29.25
28.33
24.93
20.19
15.20
11.20
9.03
9.14
11.67
15.95
20.66
24.32
25.95
25.38
23.46
21.23
19.63
19.73
21.85
25.80
31.29
38.37
45.79
53.89
63.38
71.78
78.07
81.83
83.49
83.34
81.60
78.52
74.55
69.25
61.33
49.89
33.31
11.36
-15.03
-44.03
-73.23
-99.22
-119.16
-131.67
-136.62
-136.74
-134.75
-132.45
-129.59
-123.93
-112.42
-93.07
-66.25
-28.46
17.12
65.37
110.55
147.46
172.15
182.54
178.94
164.39
144.49
124.67
109.93
102.91
103.11
107.71
112.76
114.66
111.05
101.58
86.19
65.79
41.53
14.56
-13.92
-42.97
-71.92
-100.32
-127.40
-153.20
-178.19
-203.21
-228.93
-255.69
-283.45
-311.73
-339.37
-363.36
-380.04
-385.76
-377.81
-355.07
-318.80
-272.68
-221.79
-170.90
-122.12
-76.06
-32.85
7.49
45.34
81.60
117.30
152.20
178.69
189.65
183.94
165.07
137.83
106.99
76.79
50.14
28.64
11.44
-0.55
-6.07
-4.59
3.76
18.58
39.47
66.16
94.39
119.67
138.30
147.08
143.50
126.55
97.10
57.87
12.81
-33.37
-75.09
-106.27
-122.25
-121.19
-104.42
-75.88
-40.62
-3.33
32.68
66.06
96.67
124.35
148.18
166.92
179.65
186.28
187.38
183.41
174.62
160.90
142.34
119.90
95.98
73.95
56.99
46.71
42.30
40.96
38.92
32.96
21.26
3.85
-17.93
-42.03
-65.95
-87.11
-102.90
-111.19
-110.85
-102.29
-87.34
-68.83
-49.77
-32.64
-19.18
-10.37
-6.62
-7.66
-12.34
-18.53
-23.53
-24.87
-21.27
-13.38
-3.86
3.25
3.86
-4.76
-22.71
-47.01
-72.02
-90.90
-97.78
-89.47
-66.54
-32.81
6.16
45.14
80.66
111.40
137.38
158.74
175.06
185.48
189.42
187.44
181.19
172.88
164.05
154.78
143.70
128.80
108.54
82.74
52.64
20.45
-11.42
-41.02
-67.06
-88.96
-106.56
-120.05
-130.06
-138.02
-146.26
-157.58
-174.00
-195.39
-218.90
-239.33
-251.03
-250.09
-236.09
-212.29
-184.24
-157.39
-135.04
-117.84
-104.52
-93.36
-82.99
-72.77
-62.19
-50.34
-35.79
-16.88
6.82
33.83
61.22
85.81
105.32
119.05
127.74
133.03
137.36
142.20
147.66
153.07
157.91
162.18
166.33
170.79
175.69
181.75
188.44
193.88
195.87
193.20
185.69
173.96
158.69
140.58
121.94
104.27
87.85
72.28
57.37
42.94
28.87
14.82
-7.94
-39.43
-71.60
-95.40
-107.93
-111.68
-112.39
-113.53
-116.71
-121.96
-126.43
-128.04
-126.50
-122.89
-118.65
-115.20
-113.52
-114.35
-117.83
-122.23
-126.28
-129.74
-132.86
-135.61
-137.47
-137.54
-135.09
-129.73
-120.84
-109.00
-96.14
-84.71
-76.66
-72.61
-71.61
-71.52
-69.57
-62.68
-48.93
-28.07
-1.35
29.04
60.57
90.75
117.54
139.64
156.96
170.26
180.51
188.22
192.84
192.81
186.19
171.96
151.03
126.48
102.56
83.06
69.72
61.34
54.52
45.28
31.17
12.83
-6.04
-20.17
-25.00
-18.76
-3.26
17.17
37.55
54.08
64.90
69.85
69.69
65.63
59.22
52.48
47.67
46.63
49.78
55.77
61.98
65.49
64.19
57.22
44.79
27.70
7.11
-15.42
-37.88
-58.00
-73.93
-84.81
-91.06
-94.11
-95.66
-97.17
-99.40
-102.43
-105.91
-109.32
-112.17
-114.13
-114.97
-114.53
-112.83
-109.84
-105.61
-100.32
-94.26
-87.83
-81.39
-75.05
-68.50
-61.20
-52.52
-42.11
-30.12
-17.14
-3.95
8.73
20.38
30.77
39.83
47.53
53.82
58.67
62.09
64.21
65.19
65.08
63.86
61.42
57.68
52.56
46.14
38.67
30.60
22.51
14.98
8.51
3.38
-0.36
-2.93
-4.82
-6.45
-8.12
-9.87
-11.51
-12.77
-13.35
-12.95
-11.69
-10.26
-9.45
-9.94
-12.09
-15.82
-20.65
-25.85
-30.37
-33.77
-36.34
-38.59
-40.93
-43.73
-47.31
-51.80
-56.75
-60.16
-59.68
-53.20
-39.21
-17.63
9.54
38.77
66.45
90.26
110.34
127.03
139.47
145.70
143.52
131.50
110.48
84.15
53.10
24.69
7.60
4.83
12.71
25.70
39.33
51.15
59.80
64.51
63.50
55.86
41.91
24.19
6.84
-6.55
-14.54
-18.12
-19.53
-20.09
-20.05
-18.92
-15.70
-9.82
-2.19
4.84
8.58
7.24
1.03
-8.16
-17.91
-25.83
-30.33
-31.20
-29.48
-26.65
-23.79
-20.97
-17.67
-13.58
-9.08
-5.24
-3.70
-5.71
-11.51
-19.99
-29.00
-36.28
-40.45
-41.41
-40.07
-37.70
-35.05
-32.09
-28.17
-22.78
-16.04
-9.02
-3.28
-0.12
0.04
-2.13
-5.19
-7.72
-8.95
-9.05
-8.92
-9.65
-12.01
-16.13
-21.49
-27.13
-32.20
-36.26
-39.54
-42.61
-46.26
-51.22
-57.99
-66.57
-76.28
-86.05
-94.72
-101.19
-104.59
-104.55
-101.28
-95.52
-88.05
-79.28
-69.47
-59.16
-49.10
-40.08
-32.63
-26.72
-21.61
-15.70
-6.76
6.81
24.99
46.29
68.48
89.47
107.92
121.89
127.39
121.74
106.18
85.04
63.70
47.03
38.12
37.11
40.95
44.98
46.56
45.11
41.91
39.26
39.14
42.43
48.74
56.97
66.32
75.46
82.98
86.78
84.07
71.77
48.12
13.91
-27.48
-70.58
-109.03
-137.07
-151.00
-149.63
-134.35
-107.53
-71.53
-28.96
16.72
60.93
98.37
123.72
133.08
124.81
101.02
67.42
31.36
-0.56
-23.95
-36.75
-39.48
-31.25
-15.56
-0.19
8.25
8.59
3.99
-1.54
-5.58
-8.55
-12.66
-20.49
-32.30
-45.25
-55.12
-58.82
-57.46
-52.93
-48.44
-46.75
-49.19
-54.61
-60.03
-62.30
-60.06
-54.34
-47.60
-42.75
-41.74
-45.30
-52.78
-61.51
-68.74
-72.52
-72.11
-67.40
-58.61
-45.80
-29.25
-9.54
12.33
35.88
60.19
83.57
103.96
119.52
129.32
133.35
132.55
128.61
124.81
123.81
126.36
131.27
136.60
140.90
143.74
145.52
138.18
117.60
86.02
50.92
19.00
-7.00
-27.61
-44.52
-59.01
-71.11
-78.41
-78.68
-71.73
-60.06
-47.58
-38.15
-34.24
-36.63
-44.33
-53.78
-60.32
-59.46
-47.92
-24.84
6.56
38.47
60.28
62.78
43.24
6.75
-35.76
-72.22
-94.19
-99.62
-92.27
-78.57
-63.87
-50.22
-37.17
-23.88
-10.97
-1.00
3.41
1.08
-6.92
-17.50
-26.57
-30.94
-29.65
-24.25
-17.97
-14.12
-14.68
-19.58
-26.97
-34.27
-39.36
-41.43
-40.93
-38.89
-36.03
-32.30
-27.00
-19.35
-9.03
3.47
16.94
30.09
41.98
52.42
61.83
70.97
80.57
91.13
102.76
115.16
127.79
139.87
150.46
158.49
162.81
162.33
156.26
144.30
126.72
104.45
78.77
51.18
23.04
-4.50
-30.51
-54.25
-75.02
-92.35
-105.88
-115.55
-121.37
-123.39
-121.58
-115.96
-106.72
-94.39
-79.98
-64.70
-49.89
-36.54
-25.26
-16.20
-9.27
-4.28
-1.04
0.60
0.79
-0.18
-1.94
-4.06
-6.19
-8.13
-9.79
-11.22
-12.47
-13.44
-14.03
-14.12
-13.68
-12.77
-11.53
-10.10
-8.57
-7.01
-5.42
-3.83
-2.25
-0.64
1.08
2.97
4.99
6.92
8.43
9.22
9.09
8.09
6.40
4.31
2.04
-0.29
-2.56
-4.64
-6.32
-7.37
-7.57
-6.85
-5.34
-3.24
-0.84
1.62
3.93
5.98
7.63
8.79
9.40
9.43
9.00
8.28
7.49
6.83
6.43
6.30
6.36
6.48
6.53
6.44
6.15
5.71
5.15
4.51
3.81
3.06
2.22
1.28
0.26
-0.85
-2.01
-3.16
-4.26
-5.31
-6.37
-7.51
-8.75
-10.01
-11.09
-11.70
-11.57
-10.53
-8.54
-5.68
-2.28
1.27
4.51
7.00
8.54
9.07
8.78
7.96
6.94
5.91
4.99
4.24
3.72
3.54
3.76
4.36
5.14
5.90
6.40
6.60
6.58
6.52
6.56
6.66
6.60
6.10
4.93
3.06
0.73
-1.76
-4.08
-6.07
-7.73
-9.19
-10.58
-11.98
-13.35
-14.50
-15.23
-15.36
-14.72
-13.29
-11.05
-8.10
-4.64
-0.93
2.68
5.83
8.21
9.67
10.21
10.07
9.53
8.87
8.30
7.85
7.51
7.24
7.09
7.05
7.17
7.40
7.61
7.64
7.35
6.69
5.72
4.58
3.37
2.24
1.19
0.23
-0.70
-1.67
-2.70
-3.75
-4.74
-5.68
-6.57
-7.56
-8.78
-10.20
-11.71
-12.94
-13.56
-13.30
-12.10
-10.05
-7.34
-4.20
-0.84
2.45
5.34
7.55
8.86
9.30
9.08
8.56
8.06
7.82
7.84
8.02
8.23
8.38
8.45
8.45
8.39
8.24
7.97
7.44
6.66
5.68
4.58
3.54
2.63
1.88
1.31
0.86
0.43
-0.03
-0.54
-1.08
-1.61
-2.10
-2.54
-2.92
-3.28
-3.66
-4.08
-4.59
-5.28
-6.26
-7.53
-8.98
-10.29
-11.01
-10.74
-9.28
-6.68
-3.33
0.24
3.50
6.02
7.63
8.35
8.39
7.95
7.31
6.65
6.14
5.88
5.89
6.15
6.56
7.00
7.31
7.43
7.40
7.34
7.36
7.45
7.51
7.37
6.92
6.17
5.26
4.35
3.53
2.77
1.93
0.88
-0.39
-1.76
-3.09
-4.23
-5.14
-5.91
-6.59
-7.26
-7.92
-8.53
-9.04
-9.47
-9.86
-10.30
-10.87
-11.56
-12.23
-12.62
-12.44
-11.42
-9.52
-6.89
-3.95
-1.22
0.88
2.18
2.77
2.93
2.90
2.77
2.46
1.84
0.85
-0.38
-1.63
-2.70
-3.57
-4.38
-5.39
-6.74
-8.38
-10.08
-11.56
-12.62
-13.26
-13.69
-14.10
-14.61
-15.11
-15.24
-14.57
-12.76
-9.73
-5.65
-0.94
3.94
8.59
12.75
16.26
19.07
21.07
22.14
22.19
21.30
19.71
17.76
15.87
14.37
13.43
13.06
13.16
13.57
14.16
14.83
15.48
15.99
16.21
16.01
15.38
14.37
13.14
11.88
10.70
9.65
8.64
7.57
6.39
5.18
4.05
3.17
2.62
2.45
2.54
2.76
2.94
2.95
2.77
2.48
2.22
2.12
2.26
2.58
2.89
2.96
2.54
1.53
-0.05
-1.97
-3.91
-5.56
-6.72
-7.41
-7.80
-8.19
-8.80
-9.70
-10.78
-11.80
-12.51
-12.69
-12.26
-11.18
-9.52
-7.41
-5.09
-2.86
-0.97
0.39
1.22
1.62
1.77
1.84
1.90
1.93
1.89
1.78
1.66
1.64
1.80
2.15
2.60
2.93
2.95
2.53
1.69
0.62
-0.39
-1.11
-1.47
-1.60
-1.78
-2.24
-3.07
-4.14
-5.20
-5.95
-6.29
-6.29
-6.12
-5.98
-5.94
-5.98
-6.07
-6.22
-6.49
-6.93
-7.57
-8.26
-8.77
-8.82
-8.16
-6.75
-4.75
-2.45
-0.23
1.60
2.89
3.59
3.77
3.58
3.10
2.39
1.52
0.51
-0.50
-1.34
-1.81
-1.79
-1.29
-0.46
0.44
1.15
1.46
1.30
0.76
-0.00
-0.81
-1.53
-2.17
-2.76
-3.34
-3.96
-4.59
-5.17
-5.63
-5.93
-6.00
-5.84
-5.45
-4.91
-4.42
-4.14
-4.23
-4.70
-5.44
-6.21
-6.76
-6.82
-6.17
-4.73
-2.51
0.23
3.10
5.67
7.58
8.71
9.16
9.18
8.96
8.65
8.24
7.69
7.06
6.51
6.26
6.37
6.78
7.21
7.40
7.16
6.52
5.69
4.97
4.57
4.58
4.89
5.33
5.75
6.08
6.30
6.44
6.47
6.28
5.75
4.79
3.42
1.70
-0.27
-2.44
-4.79
-7.30
-9.92
-12.45
-14.67
-16.28
-16.99
-16.63
-15.14
-12.70
-9.64
-6.46
-3.62
-1.43
0.04
0.89
1.30
1.36
0.99
0.09
-1.49
-3.64
-6.11
-8.59
-10.77
-12.45
-13.52
-13.98
-13.80
-13.04
-11.78
-10.16
-8.35
-6.46
-4.55
-2.65
-0.87
0.63
1.64
2.05
1.90
1.35
0.61
-0.20
-1.08
-2.10
-3.27
-4.49
-5.42
-5.71
-5.10
-3.58
-1.37
1.15
3.65
5.94
7.91
9.59
10.95
11.89
12.31
12.13
11.39
10.23
8.86
7.40
5.94
4.49
3.04
1.60
0.14
-1.37
-2.93
-4.46
-5.82
-6.79
-7.22
-7.14
-6.67
-6.07
-5.57
-5.30
-5.29
-5.49
-5.85
-6.30
-6.90
-7.61
-8.54
-9.69
-11.06
-12.49
-13.77
-14.59
-14.68
-13.90
-12.30
-10.07
-7.45
-4.72
-2.04
0.47
2.76
4.71
6.23
7.19
7.52
7.29
6.66
5.92
5.33
5.05
5.10
5.34
5.60
5.74
5.77
5.77
5.79
5.83
5.78
5.47
4.79
3.74
2.45
1.05
-0.28
-1.50
-2.57
-3.53
-4.36
-5.15
-5.96
-6.84
-7.77
-8.56
-8.90
-8.47
-7.06
-4.69
-1.64
1.67
4.83
7.48
9.47
10.79
11.50
11.71
11.56
11.18
10.71
10.20
9.69
9.24
8.92
8.78
8.86
9.12
9.46
9.80
10.04
10.17
10.18
10.06
9.72
9.09
8.12
6.92
5.66
4.58
3.80
3.28
2.85
2.24
1.27
-0.08
-1.63
-3.10
-4.17
-4.65
-4.40
-3.41
-1.73
0.53
3.11
5.64
7.67
8.85
9.00
8.27
6.98
5.49
4.06
2.81
1.67
0.60
-0.40
-1.19
-1.54
-1.27
-0.38
0.96
2.46
3.78
4.73
5.26
5.48
5.54
5.52
5.33
4.87
3.98
2.72
1.30
0.04
-0.78
-1.07
-0.96
-0.75
-0.68
-0.85
-1.13
-1.21
-0.76
0.33
2.02
3.97
5.82
7.19
7.82
7.61
6.63
5.04
3.15
1.24
-0.46
-1.82
-2.82
-3.51
-3.95
-4.21
-4.30
-4.23
-4.02
-3.70
-3.31
-2.90
-2.50
-2.21
-2.13
-2.42
-3.16
-4.29
-5.65
-7.02
-8.15
-8.93
-9.40
-9.67
-9.88
-10.13
-10.45
-10.71
-10.75
-10.33
-9.28
-7.51
-5.03
-2.05
1.14
4.18
6.77
8.73
9.91
10.31
9.90
8.81
7.18
5.30
3.56
2.25
1.56
1.45
1.75
2.20
2.64
3.00
3.33
3.70
4.13
4.51
4.68
4.47
3.73
2.49
0.83
-1.09
-3.09
-5.05
-6.85
-8.43
-9.67
-10.51
-10.91
-10.91
-10.62
-10.18
-9.75
-9.35
-8.95
-8.45
-7.76
-6.78
-5.51
-3.95
-2.15
-0.20
1.77
3.57
5.02
5.93
6.23
5.94
5.21
4.30
3.47
2.95
2.85
3.17
3.73
4.33
4.73
4.87
4.76
4.54
4.29
4.06
3.79
3.39
2.82
2.11
1.36
0.67
0.06
-0.54
-1.22
-2.06
-3.04
-4.06
-5.01
-5.86
-6.69
-7.61
-8.68
-9.82
-10.83
-11.39
-11.21
-10.12
-8.11
-5.34
-2.14
1.10
3.97
6.16
7.51
8.05
7.88
7.17
6.10
4.83
3.56
2.42
1.55
1.04
0.86
1.02
1.47
2.10
2.72
3.12
3.13
2.71
1.95
1.01
0.17
-0.37
-0.69
-1.06
-1.78
-3.02
-4.66
-6.51
-8.32
-9.77
-10.66
-11.15
-11.67
-12.71
-14.51
-17.04
-20.12
-23.41
-25.99
-26.92
-26.04
-24.03
-21.96
-20.69
-20.78
-22.42
-25.60
-28.94
-30.88
-30.92
-30.12
-30.01
-31.64
-35.35
-40.96
-47.93
-53.82
-56.11
-54.17
-49.89
-45.67
-42.91
-41.69
-41.27
-40.48
-35.62
-22.54
1.09
34.82
77.37
127.53
183.69
243.17
287.43
298.40
272.78
224.44
170.25
120.29
77.98
43.15
14.72
-8.08
-23.08
-27.83
-22.17
-10.88
-0.06
5.20
1.89
-10.24
-29.04
-49.08
-64.78
-73.38
-76.20
-76.50
-75.76
-75.02
-74.49
-73.93
-71.91
-67.25
-60.10
-52.12
-44.98
-39.47
-35.76
-33.48
-32.19
-31.00
-29.13
-26.32
-23.09
-20.05
-17.55
-15.78
-14.70
-14.11
-13.57
-12.72
-11.46
-10.07
-8.84
-7.94
-7.35
-6.88
-6.22
-5.06
-3.26
-0.76
2.32
5.80
9.54
13.36
17.16
20.92
24.62
28.15
31.35
34.04
36.16
37.83
39.41
41.32
43.95
47.46
51.65
56.10
60.38
64.16
67.49
70.64
73.99
77.78
81.98
86.21
90.01
92.88
94.47
94.61
93.30
90.52
86.14
79.85
71.17
59.63
44.92
27.08
6.53
-15.86
-38.76
-60.30
-78.26
-90.33
-94.66
-90.48
-78.42
-60.47
-39.45
-18.31
0.48
15.21
24.83
28.75
26.82
19.40
7.49
-7.28
-23.03
-38.07
-51.37
-62.62
-72.00
-79.70
-85.61
-89.09
-89.22
-85.07
-76.11
-62.45
-44.93
-24.93
-4.08
16.05
34.24
49.83
62.69
72.97
80.78
85.82
87.21
83.73
74.43
59.33
39.96
19.24
0.59
-13.34
-21.79
-26.22
-29.74
-35.59
-45.70
-59.82
-75.80
-90.78
-102.56
-110.54
-115.57
-119.05
-121.89
-123.91
-123.99
-120.86
-113.93
-103.68
-91.36
-78.46
-65.99
-54.32
-43.42
-33.29
-24.22
-16.80
-11.67
-9.18
-9.26
-11.46
-15.16
-19.67
-24.41
-28.84
-32.45
-34.79
-35.67
-35.24
-34.01
-32.73
-32.01
-32.26
-33.41
-35.06
-36.42
-36.57
-34.58
-29.71
-21.69
-10.89
1.70
14.64
26.54
36.49
44.25
50.11
54.56
57.96
60.41
61.99
62.89
63.59
64.62
66.26
68.30
70.15
71.17
71.05
70.04
68.82
68.18
68.53
69.72
71.07
71.73
71.05
68.91
65.71
62.16
58.95
56.36
54.17
51.79
48.60
44.26
38.89
33.00
27.09
21.45
15.87
9.74
2.36
-6.73
-17.42
-29.01
-40.42
-50.68
-59.13
-65.60
-70.19
-73.15
-74.83
-75.69
-76.37
-77.38
-78.69
-79.14
-76.57
-68.45
-53.20
-31.20
-5.04
21.28
43.98
60.80
71.59
77.82
81.52
84.34
87.10
90.03
93.23
97.00
101.63
107.11
112.71
117.14
119.00
117.38
112.47
105.54
98.63
93.66
91.76
92.83
95.62
98.45
99.83
99.08
96.49
92.90
89.13
85.51
81.55
76.07
67.58
54.70
36.80
14.48
-10.18
-33.58
-51.19
-58.59
-52.89
-33.99
-5.24
27.28
56.30
75.74
82.48
77.01
62.71
44.17
25.46
8.86
-5.48
-19.21
-35.27
-56.97
-87.07
-126.57
-173.44
-222.11
-264.26
-291.29
-297.48
-282.33
-250.83
-211.28
-171.89
-137.56
-108.78
-82.66
-55.44
-24.96
8.20
41.23
70.65
94.09
111.02
122.39
129.58
133.29
133.20
128.35
118.05
102.74
84.28
65.47
48.87
35.88
26.26
18.87
12.85
8.70
8.30
13.88
26.24
43.42
60.63
71.73
71.58
58.27
33.87
3.53
-26.68
-52.01
-70.26
-81.64
-87.74
-90.29
-90.46
-88.93
-86.31
-83.44
-81.30
-80.65
-81.58
-83.57
-85.77
-87.37
-87.96
-87.50
-86.22
-84.29
-81.70
-78.22
-73.48
-67.18
-59.26
-49.99
-40.04
-30.37
-22.00
-15.71
-11.80
-10.01
-9.64
-9.82
-9.83
-9.26
-8.15
-6.81
-5.80
-5.57
-6.49
-8.64
-11.90
-15.96
-20.47
-25.14
-29.76
-34.29
-38.80
-43.42
-48.34
-53.72
-59.55
-65.64
-71.61
-76.99
-81.32
-84.31
-85.86
-86.09
-85.37
-84.14
-82.95
-82.31
-82.59
-84.07
-86.77
-90.59
-95.38
-100.97
-107.20
-113.84
-120.51
-126.53
-131.05
-133.09
-131.75
-126.36
-116.62
-102.62
-84.88
-64.22
-41.75
-18.74
3.54
24.05
42.08
57.31
69.76
79.53
86.71
91.30
93.27
92.70
89.89
85.38
79.93
74.34
69.34
65.42
62.77
61.34
60.89
61.06
61.58
62.29
63.12
64.05
65.02
65.83
66.13
65.53
63.56
59.93
54.61
47.86
40.18
32.20
24.52
17.66
12.18
8.50
6.65
6.51
7.77
9.80
11.93
13.66
14.89
16.00
17.50
19.49
21.76
23.93
25.58
26.44
26.56
26.19
25.93
26.18
26.53
26.46
25.74
24.17
21.62
18.03
13.36
8.43
4.02
-0.72
-6.07
-11.31
-15.73
-18.87
-20.61
-21.30
-20.00
-16.10
-12.55
-11.27
-12.06
-14.41
-17.59
-20.83
-23.64
-23.34
-17.90
-11.33
-6.48
-3.22
-1.12
0.64
3.24
8.15
20.48
45.32
79.92
121.88
170.69
224.00
278.46
330.52
356.35
339.43
312.33
288.88
259.09
218.77
166.15
102.89
33.71
-35.15
-94.54
-137.47
-166.09
-180.35
-180.09
-168.86
-150.38
-126.40
-98.54
-67.33
-34.43
-5.86
14.13
25.68
30.78
32.29
32.62
32.57
31.50
30.47
28.01
23.71
18.50
12.73
6.39
-0.30
-7.44
-13.51
-15.65
-13.35
-7.54
-0.39
4.98
6.01
2.18
-6.74
-19.45
-32.62
-43.49
-50.56
-53.94
-55.59
-57.73
-60.63
-65.41
-72.36
-78.53
-79.62
-71.85
-53.39
-25.47
9.62
56.35
107.96
149.10
167.97
162.11
139.11
105.00
62.46
14.17
-34.58
-78.34
-115.43
-145.04
-167.52
-183.75
-182.09
-157.79
-133.10
-114.78
-96.31
-76.67
-55.78
-34.50
-14.48
2.17
10.42
6.81
-5.24
-22.42
-43.53
-67.25
-92.45
-118.17
-132.76
-129.85
-111.53
-83.42
-52.68
-24.81
-1.85
16.17
30.10
39.54
43.20
39.08
29.25
16.62
2.75
-11.38
-24.77
-36.45
-43.00
-44.42
-42.15
-34.86
-20.61
1.32
30.46
65.87
106.37
150.14
193.22
221.93
226.15
206.82
174.61
140.47
110.07
84.48
62.64
42.54
22.92
5.70
-6.67
-13.33
-15.75
-16.21
-16.38
-16.80
-17.50
-17.80
-14.80
-6.18
8.74
28.39
50.26
71.54
89.31
100.39
98.86
85.15
62.81
36.61
10.27
-14.29
-37.17
-59.61
-82.97
-106.89
-128.31
-145.70
-156.43
-159.41
-154.65
-142.76
-124.60
-102.11
-77.84
-54.75
-36.58
-26.79
-27.29
-37.34
-53.91
-72.64
-89.84
-102.31
-108.20
-105.98
-97.13
-84.58
-70.68
-56.13
-39.25
-19.37
3.73
29.65
57.12
84.25
109.96
133.36
152.25
168.63
177.16
173.28
156.61
130.32
99.26
70.17
48.93
38.57
35.59
36.61
39.39
44.25
51.69
59.98
67.94
74.10
76.45
74.13
68.32
62.71
63.40
73.89
91.80
113.26
132.99
144.50
142.31
123.43
78.77
11.97
-55.11
-116.70
-173.35
-223.58
-265.77
-297.88
-317.58
-322.83
-311.28
-283.54
-244.75
-198.92
-148.86
-97.00
-45.20
5.16
52.84
97.73
138.78
173.14
200.16
220.82
236.19
247.19
254.24
256.99
255.17
247.59
231.94
207.87
176.86
141.47
104.82
69.94
38.96
13.11
-7.82
-25.40
-40.83
-54.70
-67.31
-78.75
-89.00
-98.06
-105.81
-112.16
-117.25
-121.02
-123.42
-124.47
-124.32
-123.04
-120.75
-117.53
-113.60
-109.31
-105.15
-101.63
-99.05
-97.38
-96.21
-94.81
-92.28
-87.81
-80.82
-71.14
-59.03
-45.15
-30.46
-16.05
-2.95
8.11
16.90
23.60
28.74
32.95
36.81
40.71
44.98
49.91
55.87
63.26
72.34
83.07
95.04
107.58
119.85
131.03
140.53
147.93
153.04
155.77
156.08
153.97
149.48
142.70
133.67
122.44
108.95
93.13
75.01
54.85
33.24
11.09
-10.51
-30.52
-48.13
-62.82
-74.31
-82.41
-87.01
-88.09
-85.97
-81.38
-75.51
-69.79
-65.56
-63.78
-64.81
-68.54
-74.42
-81.64
-89.18
-95.83
-100.37
-101.83
-99.65
-93.84
-84.99
-74.00
-61.90
-49.61
-37.83
-26.94
-17.06
-8.08
0.24
8.02
15.16
21.33
26.03
28.85
29.63
28.61
26.28
23.26
20.03
16.91
14.00
11.33
8.86
6.70
5.09
4.32
4.69
6.35
9.20
12.98
17.29
21.67
25.74
29.17
31.67
33.05
33.19
32.05
29.75
26.45
22.42
17.88
13.09
8.23
3.51
-1.01
-5.36
-9.72
-14.35
-19.42
-24.98
-30.98
-37.30
-43.87
-50.58
-57.29
-63.61
-69.07
-73.18
-75.66
-76.65
-76.59
-76.10
-75.65
-75.44
-75.34
-75.08
-74.35
-72.93
-70.72
-67.66
-63.72
-58.92
-53.41
-47.49
-41.65
-36.47
-32.46
-29.91
-28.76
-28.74
-29.42
-30.44
-31.46
-32.20
-32.31
-31.30
-28.71
-24.23
-17.87
-10.09
-1.59
6.77
14.31
20.51
25.18
28.30
30.02
30.60
30.44
30.08
30.11
31.08
33.24
36.55
40.70
45.26
49.96
54.74
59.77
65.23
71.15
77.35
83.51
89.33
94.64
99.32
103.10
105.50
105.81
103.38
97.92
89.64
79.22
67.55
55.40
43.34
31.69
20.71
10.73
2.15
-4.64
-9.35
-11.85
-12.12
-10.17
-6.00
0.35
8.67
18.62
29.66
41.11
52.13
61.75
68.97
72.90
72.95
69.05
61.64
51.56
39.77
27.10
14.09
1.07
-11.77
-24.21
-35.94
-46.54
-55.62
-62.78
-67.77
-70.51
-71.16
-70.10
-67.84
-64.94
-61.87
-58.98
-56.55
-54.77
-53.80
-53.70
-54.43
-55.76
-57.36
-58.93
-60.29
-61.50
-62.75
-64.26
-66.02
-67.81
-69.07
-69.11
-67.35
-63.43
-57.35
-49.51
-40.49
-30.97
-21.52
-12.54
-4.20
3.48
10.51
16.84
22.38
26.99
30.50
32.84
34.02
34.20
33.62
32.57
31.35
30.17
29.26
28.76
28.92
29.82
31.31
32.99
34.39
35.07
34.69
33.20
30.73
27.76
24.78
22.13
19.89
17.99
16.31
14.63
12.75
10.47
7.95
5.29
2.40
-0.95
-4.91
-9.53
-14.75
-20.51
-26.75
-32.55
-37.26
-40.85
-43.84
-46.59
-49.20
-51.42
-52.95
-53.41
-50.76
-43.67
-32.46
-18.64
-3.50
12.23
28.48
45.16
61.96
81.04
103.43
127.93
151.71
172.73
189.48
201.71
209.34
212.41
214.73
219.19
225.98
232.89
238.43
240.48
238.39
231.28
196.45
125.52
30.09
-65.87
-144.26
-198.21
-231.21
-247.31
-250.08
-242.24
-223.93
-195.53
-160.68
-125.58
-93.33
-66.61
-42.82
-18.25
10.11
46.79
88.73
131.00
158.07
179.91
192.64
196.97
193.88
183.67
167.69
146.72
121.46
92.37
62.23
31.21
1.66
-24.57
-46.10
-60.98
-67.88
-66.40
-57.82
-43.36
-27.37
-12.51
-1.06
5.46
6.54
2.21
-6.92
-19.76
-33.82
-47.84
-59.83
-68.84
-75.18
-80.12
-85.05
-90.73
-97.07
-103.05
-108.38
-112.78
-116.66
-120.95
-126.63
-134.32
-143.96
-154.84
-165.62
-175.12
-182.26
-186.55
-188.24
-188.21
-187.52
-186.73
-185.47
-182.22
-174.61
-159.93
-135.94
-101.69
-58.18
-8.72
41.41
86.00
119.72
139.70
146.58
144.12
137.65
131.90
129.25
129.26
129.37
126.41
118.08
103.72
84.31
61.97
39.32
19.07
3.65
-5.08
-6.11
0.55
13.91
32.15
53.08
74.40
94.10
110.65
123.17
131.41
135.78
137.08
136.12
133.43
129.26
123.61
116.40
107.34
95.92
81.36
62.92
40.49
15.02
-11.43
-36.24
-57.09
-72.62
-82.66
-87.76
-88.52
-85.22
-77.90
-66.87
-53.07
-38.01
-23.19
-9.56
2.71
13.89
24.36
34.06
42.18
47.45
48.70
45.64
39.16
30.98
22.82
15.96
10.92
7.48
5.00
2.79
0.54
-1.69
-3.60
-5.19
-6.35
-6.78
-6.27
-4.88
-3.33
-2.56
-3.40
-6.39
-12.69
-22.38
-34.48
-47.57
-60.31
-72.50
-84.03
-94.56
-103.68
-113.10
-123.49
-134.10
-143.72
-151.25
-157.76
-164.30
-171.25
-178.61
-189.32
-204.22
-221.37
-237.79
-250.48
-260.07
-267.53
-273.14
-276.78
-281.77
-288.04
-291.35
-286.20
-268.05
-238.97
-203.55
-167.12
-107.16
-21.69
72.64
154.29
203.34
230.02
242.78
245.97
244.11
238.84
227.21
208.93
187.16
166.12
149.67
136.58
124.88
113.28
100.91
84.52
63.89
42.02
23.22
11.70
7.68
10.21
17.93
28.67
38.35
45.05
49.28
52.82
57.93
64.75
72.78
81.33
89.27
94.88
98.08
99.60
100.28
100.98
102.03
104.12
108.28
114.96
123.82
134.57
146.02
156.27
163.55
166.65
165.10
158.77
147.11
124.93
93.06
58.74
31.01
15.01
10.84
15.50
24.90
33.39
39.49
43.86
47.15
49.09
48.54
43.91
33.32
17.48
-3.22
-27.74
-54.64
-83.04
-112.66
-143.02
-172.56
-198.61
-218.16
-229.33
-231.46
-225.41
-213.43
-198.39
-182.73
-167.77
-153.78
-140.52
-128.00
-116.29
-105.55
-96.18
-88.52
-82.80
-78.89
-76.42
-74.61
-72.39
-67.67
-57.48
-38.64
-9.05
30.78
76.82
122.07
158.49
179.62
183.09
171.14
149.37
124.33
100.93
81.21
64.57
49.18
33.52
17.25
1.31
-12.80
-23.45
-29.32
-29.37
-22.98
-10.25
7.52
27.77
47.14
62.43
71.91
76.02
77.22
78.96
84.34
95.20
111.97
133.93
159.45
185.95
209.44
224.75
226.42
210.28
174.93
122.39
57.47
-13.58
-84.56
-150.14
-206.01
-248.87
-276.72
-289.36
-288.90
-279.41
-265.88
-252.64
-242.24
-235.21
-230.57
-226.67
-221.75
-214.23
-202.72
-186.17
-164.38
-138.33
-110.30
-83.31
-60.29
-43.01
-31.59
-24.47
-19.39
-14.60
-9.81
-6.22
-5.36
-7.59
-10.96
-11.61
-5.24
10.70
35.67
66.27
97.64
125.38
146.64
160.10
165.21
161.52
148.78
127.70
100.63
71.35
44.09
22.21
7.35
-0.63
-2.96
-1.20
3.29
9.58
16.93
24.85
33.15
42.08
52.35
64.83
80.05
97.65
116.23
133.57
147.33
155.80
158.38
155.69
149.14
140.36
130.65
120.76
110.92
101.15
91.53
82.35
74.08
67.09
61.44
56.78
52.39
47.52
41.68
34.93
27.84
21.22
15.71
11.48
8.01
4.31
-0.83
-8.44
-19.14
-33.01
-49.52
-67.51
-85.38
-101.37
-114.02
-122.62
-127.32
-128.96
-128.62
-127.09
-124.59
-120.81
-115.27
-107.71
-98.33
-87.69
-76.53
-65.42
-54.65
-44.29
-34.29
-24.69
-15.69
-7.54
-0.46
5.56
10.73
15.35
19.61
23.42
26.39
28.05
28.12
26.82
24.89
23.44
23.54
25.83
30.27
36.13
42.18
47.06
49.62
49.14
45.42
38.70
29.66
19.29
8.77
-0.76
-8.44
-13.85
-17.10
-18.69
-19.24
-19.22
-18.77
-17.80
-16.15
-13.89
-11.37
-9.14
-7.75
-7.49
-8.33
-9.94
-11.89
-13.79
-15.43
-16.78
-17.85
-18.67
-19.18
-19.30
-18.87
-17.72
-15.64
-12.35
-7.64
-1.38
6.30
14.98
23.96
32.38
39.33
44.09
46.28
45.91
43.41
39.51
35.07
30.86
27.36
24.68
22.66
21.02
19.51
18.02
16.62
15.47
14.67
14.21
13.88
13.36
12.33
10.58
8.14
5.28
2.37
-0.24
-2.40
-4.17
-5.74
-7.30
-8.96
-10.64
-12.31
-13.88
-15.34
-16.60
-17.49
-17.69
-16.84
-14.70
-11.35
-7.20
-2.95
0.73
3.35
4.76
5.19
4.99
4.54
4.01
3.46
2.82
2.07
1.28
0.65
0.43
0.73
1.56
2.71
3.91
4.94
5.66
6.02
6.06
5.77
5.09
3.93
2.25
0.12
-2.29
-4.76
-7.11
-9.29
-11.37
-13.49
-15.80
-18.35
-21.12
-23.91
-26.49
-28.57
-29.89
-30.28
-29.71
-28.31
-26.45
-24.63
-23.37
-23.11
-24.06
-26.11
-28.88
-31.86
-34.60
-36.89
-38.82
-40.68
-42.71
-44.98
-47.22
-48.86
-49.43
-48.75
-46.95
-44.27
-40.99
-37.34
-33.34
-28.92
-23.72
-17.42
-9.82
-0.87
9.29
20.24
31.13
40.82
48.13
52.41
53.27
50.63
44.93
37.02
27.74
17.27
4.96
-10.30
-28.56
-49.36
-71.36
-91.94
-107.53
-114.87
-112.14
-99.34
-77.72
-47.28
-9.11
34.70
82.02
131.34
181.39
230.49
276.67
318.22
356.50
391.09
419.45
438.64
447.11
444.73
432.16
410.86
383.34
355.85
330.81
305.47
274.51
233.61
180.97
117.80
48.30
-41.54
-142.55
-230.99
-287.52
-310.03
-308.16
-293.51
-275.26
-259.49
-247.68
-236.07
-222.84
-208.40
-192.78
-173.82
-148.40
-115.05
-77.85
-44.83
-20.64
-7.21
-3.96
-8.33
-16.67
-26.36
-36.97
-49.18
-62.67
-74.83
-84.90
-95.42
-109.41
-128.31
-151.96
-178.66
-204.11
-220.86
-219.82
-195.02
-146.10
-78.04
0.83
82.52
152.97
193.91
195.50
163.20
113.01
61.62
19.93
-8.43
-26.82
-39.79
-48.56
-51.43
-46.39
-33.69
-16.46
0.36
13.35
19.26
16.97
8.46
-1.85
-9.40
-11.73
-9.16
-3.78
1.89
5.96
8.17
9.98
13.62
20.66
30.95
42.65
53.41
60.96
64.03
62.95
59.20
54.63
50.54
47.31
44.72
42.41
39.41
35.22
30.07
24.45
18.32
11.03
1.71
-10.02
-23.64
-39.14
-55.51
-70.85
-83.30
-92.37
-99.17
-105.79
-114.24
-125.59
-141.31
-160.76
-180.95
-197.72
-207.70
-209.52
-203.92
-193.14
-169.25
-131.65
-87.40
-47.01
-16.93
2.63
14.94
23.35
29.88
35.33
38.20
37.88
35.34
32.81
32.36
35.32
42.43
53.78
68.67
84.18
98.22
109.73
119.17
127.77
136.40
144.66
150.27
149.54
138.05
113.88
79.11
39.49
1.98
-27.76
-47.13
-56.71
-59.03
-57.27
-53.26
-47.17
-37.49
-24.04
-7.96
8.42
22.34
31.75
35.82
35.29
31.87
27.41
22.92
18.44
13.38
7.11
-0.38
-8.35
-15.53
-20.88
-23.99
-25.38
-26.00
-26.82
-28.36
-30.53
-32.82
-34.59
-35.40
-35.22
-34.32
-32.95
-31.14
-28.74
-25.48
-21.15
-15.82
-9.76
-3.47
2.56
7.87
12.15
15.24
17.17
18.21
18.83
19.54
20.72
22.42
24.30
25.85
26.53
26.13
24.79
22.98
21.25
20.04
19.48
19.49
19.81
20.15
20.31
20.17
19.64
18.64
17.09
14.89
11.96
8.39
4.38
0.25
-3.62
-6.94
-9.48
-11.15
-11.93
-11.86
-11.06
-9.66
-7.86
-5.91
-4.05
-2.44
-1.17
-0.23
0.43
0.91
1.31
1.71
2.19
2.79
3.48
4.20
4.85
5.40
5.84
6.22
6.51
6.60
6.30
5.41
3.81
1.48
-1.41
-4.63
-7.91
-11.02
-13.75
-15.99
-17.69
-19.03
-20.42
-22.50
-26.03
-31.52
-39.02
-47.86
-56.77
-64.16
-68.51
-68.80
-64.72
-56.74
-45.84
-33.30
-20.28
-7.58
4.62
16.73
29.57
44.04
60.70
79.53
99.80
120.01
138.23
152.42
160.83
162.40
157.01
145.49
129.49
111.04
91.98
73.59
56.48
40.69
26.04
12.39
-0.09
-10.93
-19.61
-25.91
-30.01
-32.36
-33.45
-33.69
-33.32
-32.29
-30.34
-27.34
-23.58
-19.72
-16.47
-14.23
-13.07
-12.89
-13.35
-13.96
-14.27
-13.93
-12.46
-9.14
-3.46
4.05
11.15
14.84
12.70
3.98
-10.19
-27.57
-45.95
-63.36
-77.75
-88.34
-95.48
-99.16
-98.20
-91.34
-78.49
-61.07
-41.65
-23.19
-8.60
0.41
3.52
1.53
-3.83
-10.15
-14.62
-15.47
-13.13
-10.65
-11.66
-18.66
-32.04
-49.84
-67.82
-80.35
-82.88
-70.78
-43.50
-3.28
45.69
98.15
145.08
175.07
182.17
169.64
146.36
120.23
95.76
74.02
53.73
32.98
11.23
-9.38
-26.89
-39.45
-46.57
-48.72
-47.12
-43.48
-39.37
-35.40
-31.07
-26.08
-20.23
-15.15
-12.50
-13.19
-17.04
-22.98
-29.34
-34.32
-36.98
-37.42
-36.83
-36.36
-36.72
-37.99
-39.74
-41.13
-41.21
-39.42
-35.78
-31.05
-26.20
-22.15
-19.53
-18.55
-18.94
-20.12
-21.42
-22.34
-22.65
-22.33
-21.46
-20.15
-18.47
-16.37
-13.65
-10.16
-5.79
-0.64
5.02
10.82
16.43
21.70
26.60
31.20
35.47
39.24
42.19
43.98
44.38
43.35
40.99
37.50
33.16
28.24
22.97
17.56
12.22
7.10
2.36
-1.80
-5.19
-7.60
-8.88
-8.97
-7.97
-6.07
-3.53
-0.65
2.24
4.80
6.70
7.75
7.91
7.29
6.09
4.49
2.61
0.52
-1.67
-3.79
-5.62
-6.95
-7.67
-7.79
-7.41
-6.68
-5.66
-4.40
-2.86
-1.01
1.20
3.77
6.68
9.81
13.00
15.99
18.57
20.60
22.02
22.85
23.11
22.77
21.77
20.12
17.87
15.19
12.32
9.46
6.74
4.17
1.73
-0.61
-2.84
-4.92
-6.72
-8.16
-9.15
-9.64
-9.66
-9.30
-8.72
-8.08
-7.60
-7.47
-7.82
-8.72
-10.04
-11.53
-12.76
-13.32
-12.95
-11.66
-9.75
-7.64
-5.78
-4.38
-3.50
-3.02
-2.87
-3.01
-3.44
-4.08
-4.74
-5.11
-4.93
-4.07
-2.61
-0.85
0.88
2.32
3.36
4.07
4.59
5.00
5.28
5.33
5.08
4.52
3.81
3.16
2.71
2.45
2.23
1.85
1.27
0.59
0.06
-0.12
0.03
0.27
0.21
-0.51
-1.99
-3.99
-6.07
-7.71
-8.56
-8.50
-7.72
-6.50
-5.19
-4.01
-2.99
-2.08
-1.17
-0.20
0.82
1.82
2.76
3.62
4.44
5.21
5.90
6.46
6.85
7.11
7.34
7.63
7.98
8.30
8.41
8.16
7.53
6.55
5.38
4.16
3.00
1.97
1.11
0.45
0.02
-0.22
-0.34
-0.43
-0.57
-0.82
-1.16
-1.59
-2.05
-2.48
-2.81
-2.98
-2.85
-2.37
-1.50
-0.29
1.16
2.74
4.36
5.99
7.60
9.12
10.45
11.48
12.13
12.42
12.48
12.52
12.75
13.25
13.95
14.68
15.21
15.42
15.27
14.86
14.29
13.63
12.83
11.76
10.19
7.87
4.63
0.42
-4.72
-10.57
-16.85
-23.19
-29.27
-34.77
-39.41
-42.99
-45.26
-46.03
-45.12
-42.36
-37.68
-31.09
-22.78
-13.15
-2.90
7.10
15.90
22.72
27.09
28.99
28.75
26.90
24.06
20.72
17.31
14.15
11.54
9.69
8.77
8.83
9.79
11.48
13.66
16.08
18.49
20.59
22.10
22.77
22.46
21.17
19.05
16.35
13.37
10.29
7.23
4.24
1.38
-1.29
-3.76
-6.09
-8.45
-11.05
-14.00
-17.22
-20.34
-22.90
-24.42
-24.69
-23.72
-21.75
-19.05
-15.79
-12.10
-8.10
-4.04
-0.24
2.96
5.41
7.26
8.85
10.57
12.66
15.08
17.47
19.33
20.08
19.14
16.00
10.33
2.11
-8.16
-19.48
-30.50
-39.87
-46.61
-50.32
-51.22
-49.93
-47.14
-43.44
-39.17
-34.52
-29.60
-24.48
-19.31
-14.22
-9.32
-4.64
-0.04
4.70
9.76
15.18
20.80
26.16
30.72
33.95
35.47
35.15
32.98
29.06
23.54
16.64
8.64
0.02
-8.61
-16.61
-23.44
-28.73
-32.36
-34.33
-34.71
-33.58
-30.96
-26.96
-21.86
-16.08
-10.20
-4.77
-0.23
3.20
5.50
6.80
7.31
7.13
6.32
4.78
2.33
-1.20
-5.89
-11.63
-17.97
-24.09
-28.81
-30.81
-28.97
-22.63
-11.82
2.70
19.68
37.61
55.00
70.54
83.23
92.27
97.19
97.78
94.21
86.97
76.84
64.70
51.38
37.68
24.28
11.80
0.87
-8.03
-14.56
-18.62
-20.35
-20.14
-18.45
-15.80
-12.67
-9.48
-6.61
-4.35
-2.97
-2.56
-3.13
-4.54
-6.56
-8.95
-11.46
-13.94
-16.17
-17.94
-18.94
-18.90
-17.64
-15.22
-11.93
-8.19
-4.45
-1.01
1.99
4.50
6.52
8.00
8.90
9.18
8.96
8.39
7.69
6.99
6.35
5.77
5.21
4.66
4.13
3.61
3.10
2.57
1.97
1.31
0.57
-0.22
-1.08
-2.06
-3.20
-4.56
-6.12
-7.85
-9.66
-11.42
-13.04
-14.42
-15.54
-16.32
-16.65
-16.47
-15.75
-14.56
-13.01
-11.25
-9.37
-7.44
-5.51
-3.65
-1.98
-0.62
0.38
1.08
1.65
2.25
2.95
3.68
4.27
4.52
4.42
4.07
3.71
3.53
3.62
3.84
3.97
3.79
3.20
2.29
1.23
0.20
-0.72
-1.57
-2.48
-3.58
-4.88
-6.32
-7.74
-8.98
-9.95
-10.56
-10.79
-10.63
-10.11
-9.24
-8.06
-6.65
-5.14
-3.61
-2.20
-1.00
-0.09
0.51
0.85
1.04
1.21
1.51
1.99
2.67
3.49
4.37
5.18
5.79
6.09
6.03
5.65
5.06
4.45
4.01
3.88
4.03
4.34
4.60
4.63
4.38
3.89
3.29
2.68
2.14
1.64
1.14
0.57
-0.08
-0.81
-1.60
-2.41
-3.24
-4.10
-5.00
-5.94
-6.90
-7.83
-8.70
-9.56
-10.45
-11.46
-12.62
-13.90
-15.13
-16.10
-16.59
-16.44
-15.61
-14.16
-12.26
-10.14
-8.01
-6.05
-4.32
-2.80
-1.44
-0.17
1.03
2.19
3.27
4.29
5.28
6.27
7.28
8.28
9.20
9.97
10.59
11.01
11.28
11.42
11.47
11.46
11.43
11.40
11.34
11.22
11.01
10.72
10.35
9.85
9.18
8.24
6.99
5.45
3.78
2.20
0.94
0.09
-0.40
-0.69
-0.93
-1.19
-1.41
-1.49
-1.38
-1.20
-1.19
-1.66
-2.78
-4.53
-6.64
-8.74
-10.39
-11.29
-11.29
-10.41
-8.84
-6.79
-4.53
-2.28
-0.21
1.61
3.16
4.46
5.56
6.52
7.39
8.22
9.07
9.93
10.79
11.57
12.18
12.58
12.78
12.86
12.84
12.78
12.67
12.49
12.23
11.89
11.57
11.35
11.29
11.41
11.63
11.81
11.82
11.57
11.08
10.47
9.86
9.34
8.93
8.55
8.11
7.54
6.84
6.09
5.31
4.51
3.61
2.55
1.29
-0.11
-1.52
-2.82
-3.98
-5.12
-6.44
-8.09
-10.03
-11.99
-13.60
-14.44
-14.32
-13.32
-11.72
-9.92
-8.22
-6.80
-5.66
-4.76
-4.03
-3.51
-3.19
-3.11
-3.21
-3.36
-3.48
-3.50
-3.43
-3.34
-3.26
-3.14
-2.87
-2.30
-1.38
-0.15
1.18
2.37
3.20
3.62
3.71
3.64
3.58
3.63
3.80
3.99
4.08
3.99
3.72
3.34
3.02
2.91
3.09
3.55
4.17
4.76
5.13
5.17
4.87
4.29
3.54
2.69
1.75
0.71
-0.46
-1.80
-3.24
-4.68
-5.96
-6.97
-7.61
-7.88
-7.80
-7.40
-6.73
-5.82
-4.77
-3.73
-2.86
-2.28
-2.04
-2.06
-2.15
-2.16
-1.97
-1.56
-0.97
-0.30
0.38
1.01
1.51
1.87
2.05
2.08
2.02
1.98
2.03
2.18
2.41
2.61
2.75
2.79
2.74
2.64
2.53
2.42
2.35
2.32
2.26
2.12
1.78
1.25
0.61
0.03
-0.31
-0.33
-0.12
0.13
0.19
-0.09
-0.71
-1.60
-2.63
-3.65
-4.56
-5.30
-5.82
-6.06
-6.01
-5.66
-5.03
-4.17
-3.16
-2.12
-1.16
-0.39
0.15
0.47
0.61
0.65
0.64
0.64
0.68
0.77
0.91
1.02
1.05
0.91
0.61
0.19
-0.25
-0.64
-0.93
-1.16
-1.38
-1.63
-1.92
-2.20
-2.44
-2.58
-2.64
-2.59
-2.45
-2.24
-2.02
-1.88
-1.92
-2.21
-2.71
-3.40
-4.13
-4.80
-5.32
-5.66
-5.85
-5.94
-6.01
-6.13
-6.34
-6.62
-6.92
-7.12
-7.10
-6.75
-6.02
-4.95
-3.64
-2.25
-0.92
0.21
1.08
1.68
2.03
2.15
2.05
1.74
1.26
0.75
0.31
0.03
-0.06
-0.04
-0.04
-0.12
-0.29
-0.53
-0.76
-0.94
-1.10
-1.26
-1.44
-1.62
-1.81
-1.99
-2.20
-2.47
-2.81
-3.19
-3.54
-3.79
-3.85
-3.70
-3.34
-2.85
-2.35
-2.00
-1.93
-2.19
-2.80
-3.62
-4.47
-5.18
-5.59
-5.63
-5.38
-4.96
-4.49
-4.05
-3.62
-3.14
-2.56
-1.86
-1.12
-0.44
0.09
0.43
0.61
0.66
0.62
0.46
0.17
-0.27
-0.78
-1.27
-1.70
-2.01
-2.20
-2.25
-2.12
-1.78
-1.21
-0.48
0.28
0.87
1.13
0.97
0.42
-0.45
-1.48
-2.52
-3.47
-4.21
-4.78
-5.26
-5.77
-6.42
-7.21
-8.03
-8.70
-9.02
-8.82
-8.10
-6.96
-5.63
-4.35
-3.32
-2.68
-2.50
-2.75
-3.34
-4.11
-4.90
-5.56
-5.97
-6.07
-5.87
-5.41
-4.83
-4.24
-3.75
-3.40
-3.18
-3.06
-2.96
-2.84
-2.69
-2.54
-2.43
-2.40
-2.41
-2.44
-2.41
-2.35
-2.31
-2.38
-2.64
-3.10
-3.73
-4.41
-5.09
-5.75
-6.50
-7.41
-8.54
-9.79
-11.00
-11.99
-12.58
-12.67
-12.23
-11.33
-10.09
-8.68
-7.26
-5.97
-4.87
-3.94
-3.09
-2.22
-1.28
-0.31
0.67
1.61
2.50
3.38
4.29
5.24
6.21
7.15
8.04
8.85
9.60
10.27
10.84
11.28
11.59
11.72
11.68
11.38
10.77
9.80
8.54
7.16
5.90
4.91
4.15
3.43
2.48
1.10
-0.75
-2.86
-5.00
-6.91
-8.41
-9.39
-9.75
-9.44
-8.52
-7.07
-5.28
-3.43
-1.74
-0.38
0.58
1.17
1.53
1.82
2.26
2.97
3.96
5.10
6.22
7.14
7.81
8.27
8.63
8.99
9.36
9.62
9.68
9.45
8.90
8.11
7.15
6.10
5.07
4.09
3.21
2.41
1.66
0.91
0.16
-0.55
-1.13
-1.50
-1.62
-1.55
-1.37
-1.19
-1.06
-1.05
-1.18
-1.52
-2.13
-3.02
-4.08
-5.08
-5.72
-5.71
-4.89
-3.31
-1.21
1.07
3.18
4.93
6.30
7.39
8.32
9.14
9.74
9.99
9.82
9.30
8.63
8.00
7.49
7.02
6.46
5.73
4.91
4.20
3.81
3.83
4.17
4.65
5.08
5.35
5.43
5.38
5.24
5.06
4.83
4.58
4.27
3.92
3.48
2.89
2.13
1.24
0.30
-0.52
-1.10
-1.38
-1.37
-1.17
-0.89
-0.65
-0.55
-0.67
-1.03
-1.67
-2.49
-3.37
-4.10
-4.44
-4.23
-3.38
-1.97
-0.18
1.72
3.49
4.94
6.00
6.67
7.07
7.33
7.57
7.84
8.11
8.28
8.28
8.08
7.74
7.39
7.15
7.09
7.16
7.26
7.27
7.16
6.97
6.76
6.58
6.40
6.11
5.64
5.00
4.31
3.76
3.50
3.56
3.87
4.23
4.49
4.53
4.36
4.03
3.61
3.15
2.66
2.14
1.58
1.01
0.44
-0.13
-0.74
-1.43
-2.22
-3.07
-3.87
-4.48
-4.73
-4.51
-3.81
-2.74
-1.53
-0.37
0.62
1.45
2.21
2.98
3.76
4.42
4.83
4.89
4.64
4.20
3.78
3.50
3.45
3.62
3.94
4.33
4.73
5.06
5.25
5.27
5.06
4.60
3.90
3.00
1.97
0.93
0.02
-0.71
-1.25
-1.64
-1.98
-2.29
-2.55
-2.72
-2.75
-2.65
-2.50
-2.42
-2.55
-2.98
-3.72
-4.70
-5.82
-6.94
-7.96
-8.76
-9.26
-9.34
-8.90
-7.90
-6.47
-4.85
-3.31
-2.10
-1.27
-0.73
-0.25
0.37
1.23
2.28
3.36
4.26
4.84
5.02
4.85
4.43
3.95
3.59
3.45
3.50
3.64
3.74
3.70
3.53
3.29
3.04
2.81
2.57
2.24
1.81
1.31
0.80
0.35
0.05
-0.07
-0.00
0.25
0.62
0.98
1.14
0.95
0.35
-0.63
-1.77
-2.82
-3.55
-3.89
-3.91
-3.79
-3.70
-3.72
-3.86
-4.02
-4.11
-4.09
-3.95
-3.71
-3.40
-3.04
-2.66
-2.29
-1.96
-1.70
-1.49
-1.28
-1.00
-0.60
-0.06
0.58
1.21
1.76
2.14
2.33
2.31
2.11
1.79
1.41
1.09
0.92
0.99
1.29
1.73
2.14
2.37
2.28
1.84
1.12
0.26
-0.58
-1.26
-1.71
-1.92
-1.95
-1.90
-1.88
-1.92
-2.01
-2.14
-2.30
-2.50
-2.74
-3.02
-3.25
-3.34
-3.16
-2.71
-2.04
-1.33
-0.71
-0.28
-0.05
0.06
0.20
0.45
0.81
1.22
1.55
1.72
1.75
1.72
1.71
1.75
1.80
1.78
1.64
1.41
1.18
1.04
0.98
0.93
0.77
0.45
-0.04
-0.61
-1.16
-1.66
-2.09
-2.48
-2.84
-3.18
-3.51
-3.85
-4.21
-4.60
-5.02
-5.44
-5.82
-6.15
-6.41
-6.58
-6.60
-6.39
-5.88
-5.08
-4.06
-2.96
-1.94
-1.15
-0.62
-0.33
-0.19
-0.09
0.08
0.39
0.85
1.41
1.99
2.49
2.80
2.89
2.78
2.57
2.41
2.41
2.66
3.13
3.73
4.30
4.67
4.72
4.38
3.71
2.81
1.85
0.98
0.30
-0.18
-0.56
-0.91
-1.32
-1.79
-2.28
-2.78
-3.34
-4.06
-5.01
-6.19
-7.44
-8.56
-9.34
-9.66
-9.51
-8.94
-8.01
-6.82
-5.45
-4.04
-2.76
-1.77
-1.12
-0.78
-0.57
-0.33
0.11
0.81
1.73
2.78
3.85
4.81
5.50
5.84
5.78
5.40
4.85
4.33
3.96
3.78
3.70
3.55
3.25
2.79
2.29
1.85
1.52
1.27
1.02
0.69
0.32
-0.00
-0.18
-0.21
-0.21
-0.36
-0.80
-1.52
-2.37
-3.12
-3.62
-3.87
-4.01
-4.28
-4.85
-5.75
-6.82
-7.77
-8.32
-8.31
-7.73
-6.73
-5.55
-4.41
-3.48
-2.80
-2.33
-2.00
-1.70
-1.36
-0.95
-0.44
0.19
0.97
1.91
2.98
4.03
4.90
5.42
5.49
5.19
4.72
4.33
4.18
4.30
4.53
4.66
4.49
3.96
3.15
2.22
1.28
0.45
-0.28
-0.92
-1.52
-2.06
-2.53
-2.88
-3.09
-3.21
-3.25
-3.25
-3.23
-3.24
-3.31
-3.52
-3.94
-4.55
-5.29
-5.98
-6.46
-6.60
-6.35
-5.77
-4.95
-3.99
-2.96
-1.92
-0.85
0.22
1.27
2.28
3.21
4.01
4.65
5.12
5.41
5.60
5.81
6.15
6.70
7.45
8.30
9.12
9.73
10.04
10.02
9.70
9.14
8.41
7.58
6.73
5.99
5.44
5.17
5.14
5.29
5.50
5.62
5.55
5.26
4.78
4.21
3.60
2.94
2.19
1.24
0.03
-1.44
-3.10
-4.83
-6.47
-7.86
-8.84
-9.31
-9.23
-8.61
-7.53
-6.18
-4.79
-3.56
-2.65
-2.13
-1.94
-1.94
-1.95
-1.81
-1.44
-0.84
-0.08
0.75
1.53
2.22
2.75
3.16
3.45
3.66
3.80
3.87
3.82
3.61
3.25
2.73
2.17
1.61
1.08
0.59
0.11
-0.42
-1.03
-1.71
-2.46
-3.24
-4.05
-4.89
-5.72
-6.57
-7.38
-8.11
-8.67
-8.96
-8.91
-8.49
-7.75
-6.79
-5.72
-4.62
-3.52
-2.44
-1.43
-0.50
0.27
0.87
1.34
1.74
2.16
2.65
3.21
3.80
4.40
4.97
5.49
5.93
6.25
6.45
6.53
6.52
6.47
6.39
6.30
6.18
6.02
5.84
5.67
5.56
5.51
5.52
5.56
5.56
5.47
5.19
4.63
3.72
2.49
1.01
-0.56
-2.02
-3.22
-4.00
-4.29
-4.14
-3.63
-2.94
-2.25
-1.68
-1.27
-1.03
-0.84
-0.63
-0.42
-0.24
-0.16
-0.18
-0.20
-0.03
0.39
1.08
1.85
2.49
2.82
2.83
2.63
2.42
2.33
2.39
2.51
2.56
2.45
2.18
1.87
1.60
1.44
1.35
1.22
0.99
0.67
0.30
-0.00
-0.18
-0.25
-0.30
-0.49
-0.94
-1.71
-2.76
-3.96
-5.13
-6.10
-6.67
-6.76
-6.32
-5.43
-4.25
-2.99
-1.86
-1.05
-0.70
-0.78
-1.14
-1.56
-1.77
-1.59
-1.03
-0.20
0.70
1.48
2.07
2.52
2.93
3.36
3.80
4.18
4.42
4.48
4.43
4.32
4.21
4.09
3.93
3.72
3.46
3.19
2.92
2.65
2.38
2.10
1.83
1.57
1.31
1.03
0.68
0.24
-0.30
-0.95
-1.69
-2.53
-3.40
-4.21
-4.77
-4.92
-4.59
-3.80
-2.73
-1.59
-0.51
0.39
1.11
1.66
2.04
2.22
2.21
1.99
1.61
1.18
0.78
0.53
0.53
0.78
1.22
1.71
2.06
2.15
1.97
1.60
1.17
0.81
0.53
0.31
0.10
-0.13
-0.33
-0.43
-0.43
-0.28
0.00
0.43
1.06
1.95
3.13
4.55
6.11
7.62
8.95
9.97
10.60
10.78
10.48
9.66
8.32
6.49
4.25
1.70
-1.02
-3.71
-6.15
-8.11
-9.43
-10.08
-10.13
-9.74
-9.10
-8.30
-7.36
-6.27
-5.05
-3.79
-2.64
-1.76
-1.25
-1.09
-1.17
-1.31
-1.34
-1.16
-0.75
-0.17
0.47
1.10
1.67
2.12
2.42
2.54
2.47
2.28
2.11
2.07
2.28
2.72
3.31
3.88
4.29
4.47
4.44
4.30
4.12
3.96
3.79
3.57
3.24
2.79
2.25
1.67
1.10
0.57
0.00
-0.65
-1.46
-2.46
-3.60
-4.76
-5.74
-6.37
-6.53
-6.21
-5.49
-4.57
-3.60
-2.70
-1.92
-1.27
-0.74
-0.35
-0.10
0.04
0.11
0.17
0.29
0.47
0.71
0.98
1.27
1.54
1.79
1.97
2.03
1.99
1.86
1.73
1.68
1.79
2.08
2.53
3.07
3.61
4.08
4.40
4.49
4.30
3.79
3.00
2.03
1.08
0.34
-0.05
-0.09
0.07
0.17
-0.02
-0.65
-1.62
-2.68
-3.53
-3.97
-4.01
-3.83
-3.70
-3.82
-4.21
-4.75
-5.23
-5.53
-5.60
-5.49
-5.27
-4.97
-4.54
-3.94
-3.16
-2.28
-1.46
-0.85
-0.52
-0.47
-0.57
-0.71
-0.80
-0.79
-0.69
-0.54
-0.33
-0.07
0.28
0.74
1.32
2.00
2.75
3.52
4.24
4.79
5.12
5.17
4.94
4.50
3.96
3.39
2.89
2.46
2.12
1.86
1.63
1.41
1.13
0.72
0.14
-0.65
-1.62
-2.64
-3.56
-4.24
-4.55
-4.54
-4.30
-3.99
-3.73
-3.60
-3.55
-3.53
-3.45
-3.29
-3.05
-2.80
-2.53
-2.27
-2.03
-1.86
-1.80
-1.92
-2.20
-2.57
-2.91
-3.10
-3.14
-3.06
-2.96
-2.90
-2.88
-2.77
-2.47
-1.95
-1.26
-0.58
-0.06
0.22
0.29
0.24
0.19
0.17
0.15
0.09
-0.08
-0.38
-0.84
-1.48
-2.36
-3.46
-4.71
-5.90
-6.75
-7.05
-6.71
-5.91
-4.91
-4.02
-3.42
-3.12
-2.97
-2.78
-2.42
-1.88
-1.27
-0.67
-0.16
0.28
0.67
1.07
1.48
1.90
2.31
2.70
3.06
3.41
3.77
4.13
4.40
4.48
4.22
3.55
2.52
1.32
0.22
-0.57
-0.95
-0.99
-0.83
-0.62
-0.41
-0.16
0.18
0.63
1.14
1.57
1.79
1.69
1.24
0.45
-0.57
-1.65
-2.61
-3.27
-3.55
-3.44
-3.06
-2.54
-2.06
-1.70
-1.49
-1.39
-1.29
-1.13
-0.84
-0.41
0.14
0.75
1.38
2.04
2.73
3.44
4.12
4.68
5.08
5.31
5.41
5.37
5.21
4.87
4.32
3.54
2.62
1.62
0.61
-0.40
-1.39
-2.29
-3.00
-3.37
-3.37
-3.03
-2.55
-2.11
-1.87
-1.82
-1.91
-2.08
-2.33
-2.70
-3.23
-3.87
-4.50
-4.95
-5.08
-4.83
-4.29
-3.62
-2.98
-2.46
-2.07
-1.77
-1.49
-1.15
-0.71
-0.18
0.44
1.09
1.69
2.15
2.40
2.40
2.18
1.82
1.40
0.99
0.64
0.36
0.19
0.14
0.21
0.38
0.58
0.74
0.82
0.82
0.76
0.65
0.48
0.21
-0.19
-0.68
-1.21
-1.72
-2.22
-2.76
-3.37
-4.04
-4.70
-5.23
-5.55
-5.68
-5.66
-5.53
-5.24
-4.69
-3.80
-2.64
-1.37
-0.25
0.54
0.95
1.08
1.07
1.07
1.10
1.15
1.24
1.40
1.65
1.99
2.32
2.51
2.44
2.06
1.40
0.57
-0.29
-1.00
-1.43
-1.47
-1.13
-0.51
0.18
0.74
1.03
1.05
0.94
0.89
1.01
1.26
1.50
1.60
1.50
1.27
1.03
0.89
0.86
0.87
0.81
0.64
0.44
0.31
0.38
0.66
1.07
1.44
1.61
1.53
1.25
0.93
0.71
0.70
0.87
1.17
1.48
1.75
1.94
2.04
2.08
2.10
2.14
2.24
2.39
2.51
2.53
2.41
2.17
1.90
1.67
1.51
1.38
1.20
0.93
0.57
0.16
-0.29
-0.77
-1.34
-1.98
-2.67
-3.32
-3.88
-4.35
-4.74
-5.11
-5.40
-5.48
-5.16
-4.27
-2.81
-0.95
1.01
2.72
3.91
4.42
4.26
3.55
2.40
0.94
-0.71
-2.41
-3.96
-5.10
-5.62
-5.40
-4.54
-3.27
-1.87
-0.57
0.54
1.42
2.07
2.45
2.51
2.22
1.60
0.80
-0.01
-0.69
-1.20
-1.60
-2.02
-2.54
-3.20
-4.01
-4.94
-5.96
-7.04
-8.12
-9.09
-9.84
-10.30
-10.42
-10.23
-9.76
-9.08
-8.27
-7.37
-6.43
-5.45
-4.42
-3.31
-2.09
-0.77
0.64
2.08
3.53
4.94
6.27
7.46
8.45
9.15
9.47
9.33
8.67
7.50
5.86
3.86
1.63
-0.63
-2.73
-4.42
-5.50
-5.85
-5.43
-4.35
-2.87
-1.35
-0.08
0.76
1.17
1.27
1.27
1.32
1.48
1.79
2.19
2.64
3.12
3.59
4.02
4.36
4.54
4.51
4.27
3.82
3.20
2.48
1.73
1.07
0.60
0.37
0.38
0.55
0.76
0.88
0.79
0.50
0.08
-0.34
-0.69
-0.94
-1.12
-1.31
-1.54
-1.80
-2.01
-2.09
-2.02
-1.87
-1.75
-1.79
-2.06
-2.52
-3.11
-3.74
-4.35
-4.91
-5.40
-5.78
-5.98
-5.99
-5.80
-5.41
-4.93
-4.44
-4.05
-3.88
-3.97
-4.33
-4.84
-5.32
-5.56
-5.41
-4.88
-4.07
-3.14
-2.21
-1.34
-0.57
0.18
0.95
1.80
2.77
3.82
4.92
5.92
6.71
7.18
7.30
7.12
6.71
6.18
5.60
5.04
4.60
4.37
4.42
4.68
5.00
5.18
5.09
4.71
4.16
3.64
3.30
3.18
3.19
3.23
3.23
3.26
3.38
3.61
3.88
4.02
3.93
3.59
3.16
2.81
2.68
2.71
2.74
2.57
2.07
1.30
0.41
-0.46
-1.21
-1.80
-2.26
-2.61
-2.83
-2.94
-2.92
-2.82
-2.68
-2.56
-2.52
-2.60
-2.80
-3.09
-3.43
-3.75
-4.03
-4.28
-4.53
-4.82
-5.10
-5.29
-5.22
-4.74
-3.76
-2.31
-0.52
1.42
3.24
4.74
5.73
6.17
6.06
5.56
4.84
4.13
3.62
3.42
3.52
3.86
4.32
4.80
5.22
5.51
5.65
5.63
5.46
5.17
4.79
4.34
3.82
3.23
2.61
2.04
1.63
1.43
1.44
1.58
1.67
1.60
1.31
0.82
0.23
-0.39
-1.06
-1.81
-2.69
-3.68
-4.68
-5.51
-6.01
-6.04
-5.57
-4.69
-3.54
-2.27
-1.04
0.04
0.96
1.69
2.29
2.77
3.16
3.45
3.61
3.65
3.58
3.45
3.36
3.41
3.68
4.19
4.89
5.69
6.49
7.24
7.90
8.45
8.82
8.91
8.61
7.89
6.84
5.63
4.40
3.26
2.12
0.86
-0.65
-2.45
-4.54
-6.83
-9.26
-11.77
-14.31
-16.79
-19.07
-20.98
-22.36
-23.19
-23.50
-23.45
-23.20
-22.88
-22.53
-22.11
-21.51
-20.62
-19.39
-17.80
-15.90
-13.71
-11.24
-8.51
-5.52
-2.30
1.05
4.38
7.51
10.24
12.46
14.13
15.29
16.04
16.45
16.53
16.30
15.76
14.97
14.03
13.06
12.15
11.34
10.58
9.83
9.02
8.12
7.10
5.95
4.67
3.22
1.64
-0.03
-1.70
-3.16
-4.24
-4.79
-4.72
-4.11
-3.14
-1.99
-0.86
0.15
0.98
1.52
1.66
1.35
0.57
-0.51
-1.66
-2.68
-3.42
-3.89
-4.15
-4.23
-4.11
-3.73
-3.05
-2.12
-1.08
-0.06
0.89
1.79
2.71
3.69
4.65
5.47
6.05
6.34
6.37
6.17
5.75
5.13
4.33
3.45
2.66
2.20
2.19
2.69
3.63
4.87
6.35
8.10
10.22
12.86
16.04
19.61
23.30
26.72
29.52
31.46
32.54
32.97
33.13
33.49
34.58
36.87
40.57
45.53
51.20
56.74
61.22
63.80
63.98
61.81
57.89
53.20
48.78
45.40
43.43
42.75
42.80
42.93
42.68
42.01
41.19
40.53
40.20
40.14
39.94
38.50
34.46
26.91
15.93
2.72
-10.88
-22.86
-31.48
-35.64
-35.90
-33.91
-31.44
-29.71
-29.59
-31.97
-37.41
-45.45
-54.28
-62.31
-68.42
-71.66
-71.12
-66.65
-59.23
-50.31
-41.04
-32.02
-25.25
-24.13
-31.73
-49.46
-77.13
-113.62
-157.00
-204.53
-242.00
-254.84
-237.38
-196.98
-146.96
-97.53
-53.21
-14.60
19.31
48.21
72.80
91.14
101.33
103.59
99.99
93.30
86.24
80.95
78.38
77.85
77.02
73.83
67.82
59.88
51.43
43.78
37.99
34.69
33.36
32.27
30.02
26.38
21.97
17.77
14.59
12.93
12.93
14.12
15.39
15.91
15.58
14.87
14.43
14.71
15.82
17.58
19.56
21.10
21.81
21.60
20.64
19.05
16.90
14.09
10.64
6.68
2.46
-1.66
-5.38
-8.46
-10.83
-12.52
-13.60
-14.15
-14.29
-14.09
-13.63
-13.00
-12.16
-11.00
-9.39
-7.25
-4.59
-1.59
1.43
4.10
6.09
7.16
7.29
6.57
5.30
3.85
2.55
1.57
0.91
0.38
-0.26
-1.13
-2.21
-3.24
-3.95
-4.18
-3.97
-3.58
-3.37
-3.63
-4.49
-5.88
-7.60
-9.46
-11.34
-13.10
-14.66
-15.92
-16.75
-17.08
-16.87
-16.22
-15.28
-14.21
-13.07
-11.87
-10.62
-9.31
-8.04
-6.94
-6.13
-5.68
-5.51
-5.46
-5.42
-5.32
-5.23
-5.26
-5.49
-5.85
-6.20
-6.41
-6.44
-6.40
-6.44
-6.66
-7.08
-7.60
-8.09
-8.51
-8.87
-9.25
-9.69
-10.13
-10.47
-10.69
-10.78
-10.83
-10.91
-11.02
-11.07
-10.97
-10.70
-10.33
-9.97
-9.73
-9.54
-9.26
-8.67
-7.59
-5.96
-3.89
-1.64
0.46
2.15
3.29
3.87
4.02
3.93
3.73
3.48
3.19
2.81
2.36
1.91
1.55
1.39
1.48
1.81
2.29
2.82
3.33
3.73
3.98
4.02
3.82
3.37
2.66
1.73
0.71
-0.25
-0.95
-1.20
-0.89
-0.06
1.14
2.41
3.49
4.18
4.39
4.21
3.83
3.52
3.56
4.21
5.59
7.72
10.41
13.31
15.92
17.81
18.72
18.58
17.61
16.15
14.58
13.14
11.92
10.86
9.84
8.78
7.74
6.96
6.74
7.37
8.98
11.45
14.45
17.60
20.53
22.99
24.92
26.29
27.13
27.46
27.29
26.64
25.55
24.08
22.18
19.83
16.98
13.71
10.23
6.87
4.00
1.87
0.55
-0.15
-0.58
-1.18
-2.33
-4.28
-7.07
-10.53
-14.55
-18.81
-22.63
-25.18
-25.76
-24.05
-20.12
-14.37
-7.48
-0.46
5.81
10.81
14.37
16.46
17.03
16.14
14.00
11.00
7.01
2.06
-3.31
-8.34
-12.43
-15.38
-17.24
-18.13
-18.32
-20.01
-24.80
-32.56
-41.62
-50.22
-57.29
-62.30
-65.05
-65.56
-67.63
-73.81
-83.14
-92.06
-97.53
-98.59
-95.80
-90.35
-83.60
-82.42
-91.38
-109.12
-129.96
-148.74
-163.24
-173.36
-179.96
-184.39
-195.86
-220.98
-259.00
-303.35
-347.91
-389.94
-429.12
-465.95
-453.05
-367.98
-229.47
-81.78
43.00
136.45
203.19
250.97
286.25
313.09
325.99
320.48
300.17
273.62
248.16
227.27
211.98
202.46
198.44
193.61
183.58
169.15
156.43
150.40
150.04
151.93
154.24
157.32
158.10
153.38
141.23
121.93
96.49
66.46
34.45
5.16
-16.69
-30.00
-35.58
-34.79
-28.96
-20.06
-10.33
-1.21
6.82
13.73
18.83
21.63
22.27
21.59
20.48
19.58
19.43
20.31
21.80
23.00
22.94
21.13
17.83
13.78
9.84
6.73
4.76
3.72
3.11
2.48
1.70
0.97
0.64
1.01
2.24
4.29
6.96
9.87
12.58
14.69
15.92
16.14
15.47
14.21
12.77
11.54
10.71
10.25
10.00
9.82
9.70
9.84
10.49
11.83
13.75
15.89
17.68
18.64
18.47
17.13
14.77
11.56
7.66
3.17
-1.72
-6.68
-11.24
-14.98
-17.65
-19.28
-20.15
-20.63
-20.95
-21.17
-21.17
-20.78
-19.92
-18.66
-17.13
-15.50
-13.84
-12.23
-10.72
-9.47
-8.69
-8.55
-9.07
-10.07
-11.19
-11.95
-12.05
-11.40
-10.22
-8.88
-7.71
-6.92
-6.45
-6.19
-5.98
-5.85
-5.87
-6.17
-6.78
-7.61
-8.57
-9.63
-10.83
-12.24
-13.88
-15.59
-17.12
-18.23
-18.80
-18.93
-18.89
-19.01
-19.56
-20.70
-22.39
-24.52
-26.89
-29.27
-31.50
-33.45
-35.12
-36.65
-38.23
-40.17
-42.75
-46.14
-50.35
-55.20
-60.33
-65.46
-70.47
-75.54
-81.02
-87.21
-94.07
-101.18
-107.84
-113.29
-117.16
-119.56
-121.15
-122.80
-125.20
-128.47
-132.04
-134.93
-135.98
-134.28
-129.39
-121.33
-110.48
-97.43
-82.76
-66.85
-49.83
-31.31
-10.51
13.54
41.37
72.36
104.40
134.11
157.84
172.91
178.67
176.54
169.34
159.97
150.34
140.96
131.33
120.81
109.33
97.66
87.08
78.58
72.27
67.37
62.81
57.75
52.07
46.24
41.03
37.20
34.97
33.98
33.51
32.89
31.87
30.66
29.64
29.19
29.75
31.28
33.15
34.38
34.17
32.27
28.98
24.84
20.32
16.67
14.44
13.01
10.83
6.55
-0.32
-9.34
-19.48
-29.57
-36.29
-37.08
-31.49
-21.12
-8.08
6.05
20.08
32.83
43.08
53.29
65.53
79.68
93.49
104.87
113.28
119.28
123.63
126.73
133.28
146.92
167.81
193.39
221.64
252.91
288.88
330.49
348.37
323.30
257.74
173.09
90.30
19.81
-36.02
-78.32
-109.35
-131.79
-143.01
-141.52
-130.33
-117.10
-110.45
-116.55
-137.40
-170.47
-210.53
-246.36
-267.65
-269.57
-253.81
-225.86
-191.77
-156.52
-121.03
-89.34
-60.86
-34.12
-9.40
10.91
24.12
28.99
26.19
17.91
6.65
-3.36
-9.22
-10.43
-8.47
-5.42
-2.58
-0.18
2.27
5.12
9.30
14.89
21.05
26.70
31.20
34.76
38.08
41.66
45.36
48.77
50.93
50.79
47.58
41.00
31.48
19.81
6.88
-6.63
-20.03
-32.70
-44.09
-53.58
-60.79
-65.14
-66.35
-64.66
-60.76
-55.44
-49.54
-43.68
-38.43
-34.37
-31.46
-29.64
-29.12
-30.06
-32.44
-36.25
-41.65
-48.96
-58.34
-68.51
-77.81
-84.80
-88.62
-89.07
-87.52
-86.92
-87.28
-90.51
-97.35
-107.92
-121.82
-138.15
-155.07
-171.15
-185.60
-198.81
-210.94
-220.73
-226.92
-228.37
-223.68
-210.78
-188.59
-153.83
-112.01
-73.06
-39.83
-7.56
30.35
74.35
125.04
181.96
243.49
306.34
366.54
418.94
455.73
467.71
448.41
398.76
327.69
250.17
181.73
133.74
109.69
104.19
106.69
107.33
101.62
90.18
76.43
63.12
51.25
40.11
28.27
15.06
1.58
-9.62
-16.62
-19.26
-19.40
-19.59
-21.81
-26.70
-33.43
-40.05
-44.26
-44.72
-41.46
-35.89
-29.93
-25.24
-22.65
-22.00
-22.33
-22.40
-21.34
-19.04
-16.12
-13.58
-12.33
-12.65
-14.16
-15.89
-16.82
-16.28
-14.28
-11.45
-8.75
-6.98
-6.48
-7.11
-8.32
-9.59
-10.60
-11.28
-11.80
-12.29
-12.78
-13.14
-13.24
-12.95
-12.27
-11.31
-10.23
-9.22
-8.38
-7.71
-7.07
-6.27
-5.04
-3.19
-0.70
2.16
4.92
7.11
8.40
8.78
8.55
8.17
8.07
8.45
9.34
10.55
11.88
13.09
13.95
14.27
13.90
12.81
11.14
9.19
7.24
5.54
4.07
2.68
1.20
-0.44
-2.16
-3.75
-5.10
-6.29
-7.57
-9.24
-11.48
-14.23
-17.31
-20.47
-23.59
-26.66
-29.77
-32.97
-36.20
-39.22
-41.72
-43.37
-44.00
-43.67
-42.71
-41.62
-40.88
-40.81
-41.39
-42.29
-43.10
-43.56
-43.73
-44.04
-45.09
-47.34
-50.86
-55.28
-59.82
-63.64
-66.02
-66.60
-65.45
-63.01
-59.93
-56.79
-54.00
-51.59
-49.07
-45.44
-39.32
-29.41
-15.06
3.23
23.66
43.43
59.53
69.56
72.40
68.25
58.28
44.07
27.10
8.61
-10.34
-28.62
-45.10
-58.77
-68.93
-75.39
-78.24
-77.49
-73.03
-64.67
-52.26
-35.78
-15.60
7.43
32.03
56.65
80.00
101.00
118.78
132.64
142.12
146.90
146.73
141.49
131.31
117.32
100.98
83.75
66.75
50.76
36.11
22.52
9.40
-3.77
-15.64
-24.67
-29.98
-31.65
-30.29
-26.89
-22.87
-19.86
-19.02
-17.81
-13.38
-4.20
9.66
27.63
48.87
71.78
93.88
112.36
129.08
145.59
161.09
173.14
180.36
183.43
183.82
182.60
179.71
179.78
185.59
196.21
208.84
222.74
240.14
263.71
294.28
295.62
248.04
160.53
61.67
-25.69
-93.23
-141.79
-175.76
-199.98
-218.26
-227.50
-225.55
-215.03
-202.12
-193.14
-191.05
-195.71
-204.91
-215.64
-220.99
-216.66
-203.42
-185.88
-168.61
-153.96
-142.56
-133.59
-126.75
-119.23
-109.14
-96.78
-84.00
-72.37
-62.29
-53.69
-46.59
-41.36
-37.08
-33.05
-29.21
-25.97
-23.42
-21.13
-18.67
-15.94
-13.31
-10.86
-8.85
-7.73
-7.97
-9.63
-12.20
-14.89
-16.95
-18.12
-18.77
-20.03
-23.43
-30.28
-41.09
-55.05
-70.23
-84.10
-94.31
-99.10
-97.54
-89.40
-75.09
-55.65
-32.62
-7.92
16.67
39.92
61.40
81.08
98.84
113.94
125.14
131.34
132.33
129.22
123.97
118.51
113.95
110.25
106.60
102.18
96.84
91.11
85.89
81.89
79.27
77.68
76.56
75.49
74.29
73.01
71.56
69.59
66.48
61.60
54.71
46.08
36.39
26.47
16.87
7.68
-1.41
-10.91
-21.11
-31.86
-42.56
-52.34
-60.30
-65.83
-68.66
-68.89
-66.91
-63.27
-58.59
-53.49
-48.53
-44.19
-40.76
-38.35
-36.79
-35.74
-34.67
-33.03
-30.43
-26.74
-22.10
-16.93
-11.66
-6.66
-2.08
2.06
5.89
9.48
12.78
15.63
17.80
19.05
19.24
18.32
16.34
13.42
9.76
5.55
0.96
-3.87
-8.89
-14.11
-19.45
-24.68
-29.35
-32.84
-34.62
-34.43
-32.42
-29.05
-24.86
-20.24
-15.25
-9.85
-3.92
2.47
9.19
16.02
22.75
29.22
35.08
39.80
42.74
43.42
41.87
38.70
34.90
31.41
28.76
26.93
25.42
23.63
21.12
17.81
13.96
10.02
6.41
3.44
1.26
-0.09
-0.66
-0.52
0.23
1.37
2.60
3.48
3.65
2.91
1.36
-0.63
-2.52
-3.79
-4.11
-3.36
-1.63
0.86
3.85
7.02
10.06
12.61
14.33
14.99
14.54
13.09
10.96
8.48
5.94
3.52
1.25
-0.91
-3.06
-5.26
-7.55
-9.94
-12.48
-15.14
-17.85
-20.51
-23.04
-25.39
-27.56
-29.61
-31.64
-33.74
-36.04
-38.63
-41.54
-44.68
-47.78
-50.46
-52.32
-52.96
-52.03
-49.16
-43.99
-36.28
-25.98
-13.45
0.61
15.16
29.12
41.56
51.77
59.37
64.11
66.03
65.27
62.23
57.40
51.40
44.78
37.97
31.27
24.88
18.95
13.52
8.61
4.19
0.23
-3.28
-6.31
-8.81
-10.75
-12.11
-12.94
-13.29
-13.24
-12.88
-12.40
-12.10
-12.27
-13.14
-14.76
-16.91
-19.10
-20.69
-20.96
-19.37
-15.68
-10.06
-3.10
4.31
11.30
17.18
21.70
25.00
27.42
29.34
30.89
31.96
32.29
31.62
29.83
27.00
23.48
19.72
16.26
13.55
11.84
11.17
11.32
12.03
12.98
13.98
14.84
15.34
15.06
13.49
10.10
4.55
-3.01
-11.95
-21.18
-29.36
-35.22
-37.91
-37.26
-33.85
-28.93
-23.99
-20.29
-18.46
-18.25
-18.73
-18.75
-17.51
-14.85
-11.41
-8.12
-5.85
-4.97
-5.17
-5.61
-5.32
-3.51
0.20
5.65
12.24
19.00
24.80
28.59
29.59
27.51
22.65
15.86
8.35
1.43
-3.84
-6.82
-7.41
-5.97
-3.23
0.03
3.17
5.85
8.03
9.75
10.98
11.43
10.60
7.98
3.25
-3.48
-11.72
-20.67
-29.39
-37.02
-42.76
-46.02
-46.46
-44.17
-39.65
-33.82
-27.77
-22.56
-18.91
-17.05
-16.81
-17.74
-19.27
-20.85
-21.94
-21.90
-19.92
-15.10
-6.69
5.57
21.10
38.40
55.25
69.20
78.29
81.52
79.07
72.18
62.65
52.28
42.50
34.17
27.69
23.13
20.44
19.44
19.82
21.01
22.24
22.68
21.67
18.90
14.43
8.60
1.86
-5.29
-12.40
-18.98
-24.48
-28.32
-29.98
-29.19
-26.07
-21.20
-15.48
-9.98
-5.56
-2.71
-1.41
-1.28
-1.77
-2.38
-2.87
-3.28
-3.76
-4.43
-5.28
-6.20
-6.99
-7.57
-7.95
-8.30
-8.76
-9.35
-9.86
-9.95
-9.17
-7.16
-3.73
1.19
7.44
14.64
22.27
29.63
36.06
41.16
44.96
48.02
51.19
55.23
60.43
66.36
72.00
76.08
77.58
75.97
71.31
64.07
55.00
44.88
34.50
24.60
15.81
8.60
3.22
-0.37
-2.41
-3.38
-3.91
-4.62
-6.12
-8.76
-12.51
-16.90
-21.26
-24.88
-27.44
-29.09
-30.37
-31.92
-34.27
-37.58
-41.77
-46.64
-52.08
-58.07
-64.60
-71.48
-78.17
-83.85
-87.55
-88.45
-86.11
-80.70
-72.95
-64.02
-55.19
-47.53
-41.67
-37.61
-34.95
-33.10
-31.57
-30.11
-28.78
-27.70
-26.86
-26.04
-24.77
-22.61
-19.29
-14.77
-9.22
-2.92
3.82
10.63
17.00
22.37
26.21
28.23
28.49
27.43
25.57
23.44
21.33
19.34
17.42
15.57
13.81
12.16
10.64
9.15
7.61
6.01
4.51
3.38
2.91
3.25
4.38
6.08
7.98
9.70
10.95
11.65
11.84
11.73
11.40
10.97
10.55
10.22
10.01
9.91
10.01
10.46
11.43
12.87
14.59
16.31
17.75
18.67
19.08
19.25
19.60
20.48
21.75
23.15
24.57
26.18
28.36
31.50
35.81
40.98
46.20
49.60
49.73
46.22
39.59
30.59
19.91
8.34
-3.03
-12.68
-20.24
-24.67
-24.50
-18.79
-8.47
3.90
15.19
22.60
24.07
15.99
-3.17
-32.01
-66.85
-103.78
-139.34
-170.64
-195.56
-213.12
-226.50
-238.00
-247.33
-252.27
-250.85
-242.00
-225.22
-200.28
-149.78
-72.24
16.58
94.75
149.34
178.39
185.88
177.38
158.55
134.48
106.59
77.10
48.73
25.57
10.36
3.59
3.89
9.36
17.90
25.24
28.77
28.64
26.82
24.81
24.39
25.38
27.18
29.08
29.03
26.08
20.95
15.48
11.11
8.43
7.19
7.03
7.49
7.38
6.05
3.69
1.16
-0.83
-1.93
-2.19
-1.66
-0.38
1.34
3.34
5.62
8.25
11.15
14.02
16.47
18.30
19.57
20.38
20.87
21.02
20.77
20.06
18.95
17.58
16.15
14.84
13.69
12.65
11.61
10.48
9.25
8.00
6.81
5.73
4.79
3.95
3.16
2.36
1.54
0.68
-0.15
-0.86
-1.37
-1.66
-1.80
-1.94
-2.19
-2.59
-3.06
-3.37
-3.27
-2.57
-1.29
0.37
2.11
3.61
4.67
5.20
5.24
4.93
4.44
3.89
3.37
2.87
2.37
1.80
1.13
0.38
-0.45
-1.34
-2.32
-3.49
-4.95
-6.67
-8.52
-10.24
-11.57
-12.41
-12.81
-12.94
-12.97
-12.98
-12.89
-12.61
-12.08
-11.36
-10.62
-10.03
-9.63
-9.36
-9.02
-8.37
-7.27
-5.66
-3.60
-1.25
1.21
3.58
5.65
7.28
8.35
8.77
8.62
8.01
7.16
6.27
5.55
5.05
4.76
4.63
4.62
4.79
5.19
5.85
6.70
7.54
8.13
8.32
8.07
7.44
6.50
5.32
3.88
2.21
0.43
-1.27
-2.68
-3.65
-4.22
-4.59
-5.00
-5.62
-6.44
-7.24
-7.73
-7.60
-6.63
-4.77
-2.14
1.00
4.30
7.43
10.17
12.38
14.04
15.20
15.91
16.27
16.32
16.14
15.76
15.17
14.34
13.21
11.71
9.85
7.65
5.15
2.45
-0.41
-3.38
-6.38
-9.38
-12.32
-15.16
-17.87
-20.43
-22.85
-25.10
-27.24
-29.29
-31.37
-33.62
-36.17
-39.07
-42.20
-45.22
-47.68
-49.13
-49.28
-48.19
-46.13
-43.53
-40.72
-37.84
-34.82
-31.47
-27.64
-23.32
-18.55
-13.40
-7.92
-2.10
4.02
10.22
16.11
21.28
25.42
28.44
30.51
31.86
32.71
33.15
33.11
32.53
31.41
29.87
28.08
26.19
24.27
22.25
20.08
17.70
15.19
12.69
10.34
8.25
6.49
5.02
3.75
2.58
1.46
0.45
-0.30
-0.60
-0.19
1.12
3.46
6.81
11.02
15.80
20.80
25.65
30.07
33.89
36.99
39.28
40.67
41.13
40.68
39.52
37.96
36.30
34.75
33.27
31.62
29.58
26.94
23.66
19.85
15.70
11.39
7.08
2.90
-1.01
-4.46
-7.27
-9.21
-10.18
-10.15
-9.29
-7.88
-6.31
-4.92
-3.90
-3.26
-2.78
-2.16
-1.13
0.40
2.29
4.15
5.53
6.04
5.53
4.19
2.39
0.55
-1.08
-2.51
-3.90
-5.47
-7.28
-9.18
-10.81
-11.83
-12.00
-11.30
-9.97
-8.38
-6.94
-5.99
-5.74
-6.29
-7.65
-9.77
-12.52
-15.66
-18.81
-21.53
-23.38
-24.06
-23.42
-21.55
-18.60
-14.72
-9.99
-4.49
1.66
8.16
14.58
20.37
25.03
28.23
29.88
30.14
29.29
27.71
25.71
23.57
21.54
19.79
18.54
17.90
17.84
18.13
18.38
18.03
16.57
13.68
9.25
3.45
-3.43
-10.94
-18.64
-26.08
-32.81
-38.49
-42.85
-45.76
-47.09
-46.53
-43.66
-38.03
-29.64
-19.23
-8.47
0.45
5.45
5.33
0.15
-8.84
-19.74
-30.67
-40.30
-47.97
-53.59
-57.22
-58.89
-58.54
-56.08
-51.58
-45.33
-37.83
-29.62
-21.19
-12.91
-5.11
1.84
7.45
11.20
12.67
11.76
8.80
4.59
0.16
-3.36
-5.00
-4.04
-0.13
6.60
15.58
25.79
35.97
44.86
51.53
55.57
57.15
56.89
55.57
53.86
52.16
50.56
48.94
47.19
45.29
43.38
41.67
40.27
39.14
38.06
36.79
35.23
33.52
31.99
30.97
30.67
31.00
31.60
32.07
32.10
31.52
30.33
28.57
26.29
23.58
20.54
17.32
14.15
11.22
8.57
6.12
3.66
1.04
-1.73
-4.41
-6.61
-8.00
-8.45
-8.17
-7.59
-7.24
-7.48
-8.40
-9.84
-11.49
-13.07
-14.45
-15.68
-16.86
-18.08
-19.26
-20.23
-20.79
-20.85
-20.57
-20.32
-20.72
-22.59
-26.85
-34.34
-45.37
-59.39
-74.62
-88.32
-97.27
-98.71
-91.21
-75.03
-52.08
-25.24
2.30
27.80
49.16
65.23
75.71
81.01
82.05
79.93
75.58
69.62
62.31
53.77
44.16
33.79
23.13
12.68
2.80
-6.24
-14.34
-21.42
-27.43
-32.37
-36.28
-39.26
-41.43
-42.87
-43.50
-43.14
-41.59
-38.71
-34.65
-29.76
-24.63
-19.86
-15.93
-13.01
-10.95
-9.43
-8.12
-6.88
-5.73
-4.79
-4.20
-3.92
-3.78
-3.53
-2.93
-1.89
-0.42
1.33
3.27
5.29
7.41
9.66
12.02
14.34
16.34
17.66
17.98
17.12
15.10
12.13
8.45
4.35
0.03
-4.29
-8.45
-12.20
-15.35
-17.76
-19.43
-20.51
-21.21
-21.69
-21.99
-21.99
-21.42
-20.00
-17.61
-14.33
-10.47
-6.49
-2.81
0.27
2.65
4.42
5.73
6.74
7.56
8.23
8.74
9.10
9.33
9.51
9.70
9.93
10.19
10.42
10.54
10.51
10.36
10.16
10.03
10.03
10.16
10.38
10.64
10.91
11.20
11.53
11.92
12.37
12.93
13.64
14.55
15.66
16.84
17.89
18.59
18.78
18.46
17.79
16.98
16.27
15.77
15.53
15.47
15.52
15.62
15.69
15.70
15.65
15.55
15.40
15.18
14.80
14.18
13.28
12.08
10.71
9.30
8.03
6.98
6.20
5.68
5.36
5.17
4.95
4.52
3.69
2.38
0.64
-1.39
-3.49
-5.48
-7.28
-8.94
-10.57
-12.36
-14.41
-16.73
-19.23
-21.71
-23.92
-25.64
-26.81
-27.52
-28.00
-28.46
-29.00
-29.57
-29.98
-30.04
-29.61
-28.61
-26.97
-24.61
-21.44
-17.45
-12.81
-7.88
-3.16
0.89
3.96
5.96
7.02
7.36
7.18
6.60
5.77
4.79
3.88
3.26
3.09
3.40
4.05
4.83
5.51
5.92
6.00
5.78
5.37
4.87
4.38
3.92
3.45
2.86
1.99
0.74
-0.88
-2.69
-4.47
-6.01
-7.18
-8.01
-8.56
-8.92
-9.14
-9.26
-9.35
-9.51
-9.78
-10.10
-10.35
-10.35
-9.95
-9.15
-8.03
-6.80
-5.68
-4.80
-4.18
-3.74
-3.38
-2.94
-2.33
-1.53
-0.64
0.20
0.88
1.35
1.70
2.05
2.52
3.12
3.71
4.13
4.21
3.93
3.36
2.63
1.82
0.96
0.00
-1.06
-2.16
-3.19
-4.00
-4.52
-4.74
-4.71
-4.52
-4.26
-4.05
-3.96
-4.09
-4.46
-5.00
-5.55
-5.86
-5.73
-4.98
-3.63
-1.82
0.19
2.07
3.58
4.56
5.06
5.22
5.22
5.15
5.05
4.88
4.58
4.18
3.73
3.33
3.06
2.96
3.05
3.29
3.62
3.94
4.18
4.23
4.07
3.72
3.22
2.61
1.86
0.97
-0.08
-1.22
-2.33
-3.31
-4.08
-4.65
-5.08
-5.42
-5.71
-5.98
-6.23
-6.52
-6.86
-7.20
-7.44
-7.34
-6.72
-5.51
-3.82
-1.90
-0.03
1.58
2.85
3.79
4.46
4.85
5.01
4.96
4.85
4.83
5.08
5.67
6.50
7.41
8.15
8.56
8.60
8.34
7.93
7.51
7.19
7.00
6.89
6.82
6.68
6.40
5.99
5.49
4.90
4.25
3.46
2.46
1.22
-0.19
-1.66
-3.02
-4.16
-5.05
-5.71
-6.15
-6.29
-6.02
-5.22
-3.91
-2.21
-0.36
1.34
2.68
3.49
3.74
3.51
2.92
2.09
1.16
0.19
-0.79
-1.69
-2.48
-3.00
-3.16
-2.93
-2.39
-1.71
-1.09
-0.66
-0.48
-0.53
-0.77
-1.19
-1.81
-2.63
-3.58
-4.51
-5.32
-5.92
-6.33
-6.59
-6.80
-6.99
-7.15
-7.21
-7.13
-6.86
-6.31
-5.46
-4.26
-2.76
-1.13
0.40
1.55
2.15
2.18
1.77
1.13
0.47
-0.11
-0.59
-0.99
-1.39
-1.73
-1.97
-2.01
-1.81
-1.43
-0.99
-0.70
-0.67
-0.97
-1.48
-2.06
-2.59
-3.10
-3.67
-4.44
-5.39
-6.38
-7.19
-7.65
-7.76
-7.73
-7.79
-8.04
-8.39
-8.58
-8.31
-7.43
-5.95
-4.06
-2.02
-0.08
1.63
3.03
4.09
4.80
5.15
5.16
4.85
4.29
3.54
2.70
1.88
1.17
0.59
0.12
-0.28
-0.64
-0.89
-0.95
-0.71
-0.16
0.57
1.21
1.49
1.24
0.53
-0.44
-1.34
-1.97
-2.31
-2.48
-2.72
-3.16
-3.86
-4.69
-5.48
-6.04
-6.25
-6.04
-5.35
-4.18
-2.55
-0.55
1.68
3.88
5.77
7.11
7.74
7.67
7.04
6.07
4.98
3.90
2.91
2.00
1.13
0.29
-0.51
-1.23
-1.81
-2.20
-2.42
-2.52
-2.57
-2.62
-2.61
-2.45
-2.00
-1.21
-0.18
0.84
1.62
2.02
2.04
1.89
1.74
1.66
1.61
1.47
1.17
0.83
0.67
0.90
1.61
2.68
3.79
4.59
4.81
4.43
3.59
2.51
1.37
0.27
-0.81
-1.92
-2.98
-3.85
-4.30
-4.12
-3.22
-1.71
0.14
1.99
3.53
4.56
5.02
4.98
4.56
3.90
3.13
2.36
1.68
1.11
0.67
0.33
0.04
-0.24
-0.53
-0.80
-0.93
-0.78
-0.21
0.88
2.44
4.36
6.48
8.65
10.78
12.88
14.95
16.95
18.77
20.11
20.62
20.10
18.63
16.67
15.04
14.60
15.86
18.69
22.21
25.24
26.86
26.98
26.29
25.89
26.69
28.94
32.25
35.99
39.79
43.84
48.71
54.97
62.78
71.77
81.20
90.12
97.41
101.53
100.40
91.54
72.87
43.71
5.69
-37.04
-78.59
-112.75
-134.74
-142.35
-136.32
-119.64
-96.50
-70.95
-46.26
-24.55
-6.97
5.91
13.88
17.00
15.68
10.84
3.85
-3.71
-10.40
-15.28
-18.10
-19.29
-19.60
-19.74
-20.15
-20.86
-21.65
-22.21
-22.35
-22.11
-21.66
-21.13
-20.49
-19.51
-17.84
-15.21
-11.65
-7.52
-3.44
-0.06
2.20
3.23
3.20
2.42
1.22
-0.19
-1.63
-3.01
-4.17
-4.99
-5.34
-5.25
-4.79
-4.09
-3.26
-2.20
-0.72
1.43
4.33
7.77
11.12
13.53
14.14
12.39
8.18
1.96
-5.49
-13.20
-20.24
-25.85
-29.42
-30.53
-28.98
-24.87
-18.61
-11.05
-3.23
3.77
9.12
12.43
13.79
13.63
12.52
10.99
9.44
8.08
7.04
6.28
5.64
4.87
3.68
1.90
-0.44
-3.01
-5.28
-6.62
-6.51
-4.76
-1.58
2.50
6.74
10.42
12.89
13.79
12.96
10.56
7.02
2.97
-0.83
-3.71
-5.19
-5.21
-4.13
-2.62
-1.46
-1.28
-2.38
-4.70
-7.83
-11.12
-13.88
-15.40
-15.16
-13.00
-9.14
-4.31
0.50
4.26
6.28
6.47
5.40
3.99
3.12
3.25
4.27
5.64
6.71
7.02
6.50
5.39
4.06
2.77
1.60
0.49
-0.62
-1.71
-2.64
-3.26
-3.51
-3.47
-3.34
-3.36
-3.66
-4.22
-4.87
-5.40
-5.66
-5.59
-5.30
-4.87
-4.38
-3.85
-3.21
-2.43
-1.47
-0.41
0.62
1.56
2.40
3.19
4.03
4.97
5.97
6.94
7.71
8.13
8.17
7.78
7.00
5.79
4.22
2.37
0.47
-1.17
-2.23
-2.50
-1.98
-0.90
0.31
1.25
1.60
1.22
0.17
-1.35
-3.08
-4.74
-6.13
-7.11
-7.67
-7.90
-7.97
-8.02
-8.21
-8.60
-9.18
-9.92
-10.79
-11.70
-12.57
-13.26
-13.59
-13.43
-12.69
-11.47
-10.00
-8.62
-7.63
-7.20
-7.29
-7.72
-8.29
-8.88
-9.47
-10.05
-10.50
-10.49
-9.60
-7.48
-4.22
-0.43
2.91
4.83
4.72
2.57
-1.08
-5.40
-9.52
-12.64
-14.01
-12.91
-8.69
-1.06
9.62
22.27
35.37
47.39
57.18
64.11
67.98
68.83
66.78
62.02
54.97
46.24
36.52
26.44
16.46
6.92
-1.78
-9.14
-14.51
-17.31
-17.21
-14.34
-9.29
-3.02
3.35
8.83
12.70
14.69
14.90
13.65
11.29
8.06
4.09
-0.41
-5.12
-9.59
-13.36
-16.22
-18.21
-19.56
-20.50
-21.14
-21.42
-21.23
-20.56
-19.50
-18.25
-16.99
-15.75
-14.41
-12.75
-10.60
-7.87
-4.67
-1.21
2.30
5.76
9.24
12.96
17.15
21.86
26.75
31.09
33.90
34.31
31.91
26.89
20.14
12.87
6.34
1.43
-1.47
-2.50
-2.28
-1.76
-2.09
-4.28
-8.98
-16.14
-25.04
-34.39
-42.81
-49.27
-53.44
-55.66
-56.75
-57.68
-59.18
-61.59
-64.70
-67.85
-70.01
-69.98
-66.77
-59.91
-49.70
-37.27
-24.37
-13.00
-4.84
-0.92
-1.24
-4.79
-9.79
-14.17
-16.18
-14.88
-10.36
-3.59
3.95
10.75
15.71
18.20
18.17
15.97
12.30
7.98
3.83
0.46
-1.92
-3.42
-4.45
-5.36
-6.28
-7.00
-7.13
-6.33
-4.56
-2.12
0.39
2.27
2.98
2.42
0.98
-0.34
-0.12
3.18
10.72
22.73
38.20
54.90
69.91
80.41
84.56
82.09
74.32
63.68
52.94
44.42
39.50
38.56
41.28
46.88
54.47
63.08
71.65
79.13
84.56
87.36
87.49
85.54
82.58
79.83
78.24
78.21
79.47
81.20
82.35
81.98
79.38
74.15
66.00
54.60
39.67
21.11
-0.65
-24.49
-48.62
-70.91
-89.42
-102.86
-111.02
-114.82
-116.05
-116.76
-118.49
-121.63
-125.12
-126.80
-124.19
-115.46
-100.18
-79.50
-55.77
-31.85
-10.45
6.31
17.13
21.77
21.32
18.14
15.57
16.87
24.02
36.70
52.17
66.14
74.34
74.08
64.93
48.69
28.43
7.48
-11.48
-26.64
-37.27
-43.48
-46.06
-46.27
-45.35
-44.10
-42.57
-39.95
-34.82
-25.73
-11.92
6.11
25.95
43.25
52.38
48.00
27.24
-8.16
-51.17
-90.80
-115.40
-116.80
-93.39
-50.97
-0.66
44.70
74.53
82.86
69.12
37.41
-5.06
-49.61
-87.70
-112.69
-121.15
-113.71
-94.72
-70.70
-48.15
-31.58
-22.47
-19.44
-19.55
-19.68
-17.72
-13.00
-6.08
1.69
8.82
14.00
16.25
14.81
9.22
-0.61
-14.08
-29.70
-45.05
-57.26
-63.72
-62.92
-55.07
-41.93
-26.24
-10.75
2.64
13.28
21.47
27.98
33.43
37.98
41.47
43.67
44.56
44.37
43.47
42.09
40.22
37.65
34.10
29.45
23.83
17.61
11.31
5.48
0.49
-3.45
-6.44
-8.75
-10.76
-12.73
-14.70
-16.36
-17.26
-16.98
-15.38
-12.73
-9.61
-6.68
-4.37
-2.82
-1.88
-1.28
-0.84
-0.51
-0.29
-0.16
-0.04
0.19
0.64
1.31
2.08
2.80
3.31
3.64
3.81
3.93
4.04
4.08
3.94
3.48
2.66
1.56
0.37
-0.72
-1.62
-2.41
-3.31
-4.56
-6.26
-8.30
-10.39
-12.16
-13.37
-13.88
-13.74
-12.95
-11.48
-9.28
-6.34
-2.88
0.80
4.27
7.18
9.35
10.84
11.82
12.46
12.94
13.28
13.51
13.59
13.48
13.18
12.75
12.27
11.80
11.38
10.99
10.61
10.22
9.75
9.15
8.32
7.14
5.51
3.46
1.14
-1.17
-3.14
-4.53
-5.32
-5.64
-5.78
-6.03
-6.64
-7.71
-9.13
-10.62
-11.82
-12.38
-12.17
-11.20
-9.70
-7.95
-6.17
-4.43
-2.70
-0.93
0.88
2.61
4.14
5.34
6.15
6.57
6.60
6.31
5.82
5.37
5.21
5.60
6.55
7.87
9.25
10.34
10.91
10.99
10.73
10.33
9.95
9.65
9.42
9.22
9.04
8.82
8.49
7.97
7.14
5.99
4.59
3.07
1.60
0.31
-0.76
-1.59
-2.14
-2.39
-2.23
-1.59
-0.43
1.25
3.35
5.70
8.08
10.25
11.99
13.24
14.00
14.39
14.55
14.51
14.24
13.71
12.97
12.21
11.69
11.57
11.83
12.25
12.60
12.67
12.46
12.10
11.76
11.53
11.34
11.02
10.41
9.38
7.91
6.04
3.91
1.71
-0.30
-1.93
-3.08
-3.82
-4.36
-4.88
-5.55
-6.33
-7.06
-7.46
-7.23
-6.16
-4.21
-1.59
1.33
4.08
6.27
7.71
8.54
9.10
9.80
10.83
12.01
12.78
12.42
10.23
5.86
-0.46
-8.00
-15.53
-21.78
-25.70
-26.88
-25.64
-23.06
-20.47
-19.00
-19.05
-20.10
-20.97
-20.33
-17.42
-12.30
-5.94
0.37
5.50
8.98
11.12
12.78
14.88
18.05
22.41
27.59
33.00
38.06
42.36
45.82
48.64
51.27
54.26
58.13
63.11
68.91
74.49
77.98
77.09
69.75
55.09
34.21
10.33
-11.92
-27.86
-34.37
-30.97
-19.81
-4.82
9.82
21.10
28.03
31.53
33.75
37.05
43.02
51.88
62.24
71.24
75.20
70.45
54.60
27.75
-6.82
-42.94
-72.98
-90.13
-90.53
-74.53
-46.44
-12.88
19.44
45.36
62.03
68.56
65.51
54.35
37.26
17.02
-3.31
-21.13
-35.00
-44.95
-52.20
-58.20
-63.89
-69.18
-73.18
-74.69
-72.96
-68.09
-61.20
-54.24
-49.58
-49.27
-54.18
-63.33
-73.86
-81.76
-83.37
-76.88
-63.17
-45.62
-28.74
-16.53
-11.10
-12.27
-18.06
-25.62
-32.21
-35.84
-35.50
-31.05
-23.15
-12.99
-2.02
8.31
16.86
22.84
25.84
25.85
23.29
19.04
14.45
10.98
9.77
11.19
14.69
18.95
22.46
24.12
23.65
21.65
19.19
17.33
16.64
17.10
18.29
19.71
21.09
22.43
23.97
25.88
28.08
30.27
31.92
32.62
32.19
30.84
29.05
27.51
26.81
27.26
28.76
30.73
32.40
33.07
32.48
30.89
28.99
27.44
26.49
25.76
24.37
21.24
15.44
6.33
-6.41
-22.79
-42.38
-64.10
-86.03
-105.59
-120.02
-127.04
-125.56
-115.91
-99.72
-79.57
-58.43
-39.19
-24.34
-15.55
-13.42
-17.34
-25.70
-36.39
-47.47
-57.72
-66.77
-74.93
-82.61
-89.79
-95.73
-98.91
-97.40
-89.43
-74.03
-51.51
-23.78
5.99
33.86
56.16
70.23
75.08
71.53
61.77
48.87
36.01
25.91
20.28
19.60
23.04
28.78
34.58
38.34
38.72
35.31
28.64
19.82
10.14
0.84
-7.15
-13.15
-16.89
-18.45
-18.37
-17.43
-16.55
-16.32
-16.84
-17.70
-18.14
-17.44
-15.16
-11.39
-6.60
-1.56
2.88
5.89
6.84
5.31
1.29
-4.73
-11.78
-18.56
-23.70
-26.28
-25.94
-23.11
-18.68
-13.70
-8.98
-4.84
-1.17
2.28
5.61
8.65
10.93
11.99
11.64
10.09
7.91
5.73
4.06
3.06
2.79
3.13
4.08
5.65
7.80
10.39
13.13
15.73
17.94
19.78
21.34
22.82
24.32
25.82
27.25
28.43
29.28
29.70
29.73
29.44
28.98
28.55
28.31
28.41
28.81
29.46
30.18
30.83
31.31
31.54
31.49
31.18
30.62
29.74
28.50
26.86
24.89
22.81
20.86
19.28
18.07
16.97
15.54
13.35
10.17
6.13
1.69
-2.48
-5.70
-7.46
-7.46
-5.62
-2.12
2.64
8.00
13.25
17.59
20.51
21.73
21.37
19.81
17.59
15.17
12.90
11.03
9.62
8.68
8.08
7.62
7.06
6.21
5.07
3.83
2.80
2.23
2.25
2.71
3.31
3.69
3.62
3.08
2.23
1.36
0.63
0.10
-0.40
-1.22
-2.65
-4.89
-7.91
-11.45
-15.02
-18.06
-19.93
-20.16
-18.45
-14.82
-9.57
-3.20
3.70
10.56
16.87
22.31
26.71
30.07
32.62
34.71
36.69
38.81
41.08
43.24
44.86
45.49
44.86
42.94
40.00
36.54
33.17
30.49
29.01
29.02
30.53
33.17
36.28
38.92
40.16
39.21
35.67
29.58
21.39
11.77
1.35
-9.38
-20.07
-30.44
-40.20
-48.98
-56.44
-62.25
-66.24
-68.33
-68.53
-66.88
-63.52
-58.72
-52.89
-46.52
-40.15
-34.19
-28.87
-24.28
-20.50
-17.55
-15.41
-13.93
-12.82
-11.65
-10.04
-7.71
-4.67
-1.17
2.35
5.55
8.15
10.07
11.30
11.90
11.92
11.40
10.37
8.89
7.01
4.85
2.45
-0.10
-2.72
-5.28
-7.60
-9.45
-10.56
-10.70
-9.67
-7.39
-3.97
0.32
5.12
10.00
14.62
18.69
22.06
24.64
26.41
27.41
27.77
27.77
27.74
28.05
28.90
30.29
31.97
33.61
34.89
35.67
36.01
36.11
36.18
36.37
36.77
37.35
38.02
38.64
38.91
38.54
37.22
34.92
31.83
28.40
25.02
21.94
19.11
16.22
12.97
9.24
5.29
1.61
-1.18
-2.66
-2.73
-1.58
0.36
2.60
4.67
6.24
7.06
6.97
5.86
3.70
0.60
-3.26
-7.58
-12.01
-16.22
-19.99
-23.24
-26.10
-28.83
-31.70
-34.96
-38.66
-42.67
-46.78
-50.77
-54.47
-57.87
-61.03
-63.98
-66.73
-69.17
-71.09
-72.31
-72.78
-72.53
-71.74
-70.61
-69.24
-67.61
-65.57
-62.94
-59.58
-55.51
-50.80
-45.48
-39.48
-32.57
-24.48
-15.08
-4.54
6.71
17.96
28.33
36.93
42.98
45.97
45.69
42.43
36.85
29.85
22.33
15.01
8.30
2.46
-2.28
-5.70
-7.56
-7.78
-6.50
-4.18
-1.32
1.68
4.70
7.93
11.64
16.03
20.97
26.13
30.94
34.92
37.78
39.32
39.55
38.51
36.34
33.22
29.51
25.67
22.21
19.60
18.04
17.50
17.67
18.14
18.49
18.47
18.00
17.21
16.41
15.97
16.28
17.61
19.94
22.97
26.17
28.89
30.47
30.47
28.58
24.82
19.43
12.90
5.87
-0.97
-7.08
-12.18
-16.28
-19.68
-22.72
-25.72
-28.75
-31.76
-34.52
-36.79
-38.33
-39.00
-38.79
-37.81
-36.28
-34.49
-32.70
-31.11
-29.86
-28.90
-28.12
-27.34
-26.36
-24.97
-23.15
-20.94
-18.51
-16.07
-13.80
-11.81
-10.10
-8.70
-7.57
-6.71
-6.05
-5.46
-4.81
-3.97
-2.96
-1.86
-0.80
0.14
0.98
1.86
3.00
4.50
6.30
8.17
9.84
11.09
11.88
12.39
12.89
13.59
14.52
15.61
16.64
17.60
18.50
19.45
20.46
