1538482923.00
64.000000
-0.00
-0.00
-0.00
-0.00
-0.00
-0.00
-0.00
-0.00
-0.00
-0.00
0.00
0.01
0.01
-0.00
-0.03
-0.05
-0.05
0.00
0.13
0.36
0.66
1.01
1.37
1.72
2.06
2.40
2.79
3.24
3.80
4.42
5.06
5.66
6.20
6.68
7.15
7.68
8.31
9.14
10.09
11.04
11.88
12.56
13.14
13.76
14.65
15.96
17.91
20.32
22.90
25.38
27.58
29.57
31.68
34.32
37.81
42.54
48.15
54.10
59.83
64.97
69.58
74.14
79.34
85.71
93.76
103.00
112.62
121.73
129.77
136.75
143.30
150.75
157.77
166.64
177.95
191.79
206.97
220.57
228.25
225.36
208.53
176.87
132.76
80.05
23.07
-34.94
-92.44
-149.16
-205.23
-260.37
-313.74
-363.87
-409.83
-450.91
-486.50
-515.74
-537.23
-549.22
-549.96
-538.37
-514.21
-478.67
-433.88
-382.45
-327.02
-269.84
-212.63
-156.66
-102.95
-52.37
-5.90
35.58
71.43
101.35
125.50
144.38
158.69
169.15
176.37
180.75
182.57
182.07
179.51
175.23
169.65
163.18
156.15
148.81
141.30
133.69
126.02
118.33
110.69
103.16
95.80
88.68
81.83
75.25
68.95
62.95
57.25
51.86
46.78
42.03
37.59
33.45
29.61
26.07
22.81
19.83
17.11
14.67
12.48
10.54
8.83
7.34
6.07
4.99
4.07
3.30
2.64
2.07
1.56
1.11
0.74
0.45
0.25
0.12
0.03
-0.04
-0.12
-0.24
-0.38
-0.51
-0.61
-0.64
-0.62
-0.58
-0.57
-0.64
-0.81
-1.04
-1.27
-1.41
-1.40
-1.27
-1.11
-1.06
-1.23
-1.68
-2.31
-2.94
-3.38
-3.48
-3.28
-2.99
-2.91
-3.30
-4.22
-5.52
-6.82
-7.73
-7.98
-7.61
-7.01
-6.68
-7.12
-8.47
-10.50
-12.63
-14.21
-14.82
-14.43
-13.45
-12.50
-12.25
-13.20
-15.61
-19.32
-23.56
-26.88
-27.42
-23.53
-14.57
-1.49
13.31
26.75
36.40
41.26
42.02
40.43
38.31
36.86
36.33
36.39
36.59
36.66
36.60
36.38
35.91
34.96
33.33
30.83
27.52
23.16
17.63
10.82
2.89
-5.65
-13.97
-21.12
-26.40
-29.62
-31.09
-31.22
-30.24
-28.09
-24.55
-19.84
-14.85
-11.14
-10.23
-12.95
-18.77
-25.92
-32.14
-35.51
-35.30
-31.97
-26.75
-20.83
-14.86
-8.89
-2.70
3.78
10.28
16.40
21.95
27.14
32.35
37.89
43.83
49.98
56.13
61.99
67.17
71.12
73.16
72.57
68.94
62.44
53.85
44.33
34.79
25.80
17.58
10.46
4.66
0.43
-2.13
-2.96
-2.17
-0.43
1.43
2.76
3.63
3.96
4.36
5.14
6.70
9.38
12.48
15.07
16.52
17.74
19.14
20.95
22.83
24.58
25.95
25.67
22.89
17.91
13.46
10.89
10.23
9.79
7.90
3.38
-5.52
-19.55
-38.27
-58.42
-78.66
-98.66
-119.01
-139.45
-150.34
-145.01
-123.43
-104.20
-93.37
-92.21
-94.61
-97.42
-98.42
-96.54
-93.10
-89.69
-86.83
-81.72
-72.77
-59.75
-44.54
-29.51
-16.72
-8.31
-5.07
-6.36
-9.19
-11.52
-12.34
-12.08
-11.43
-10.94
-11.47
-13.44
-16.63
-19.19
-18.88
-13.94
-4.39
7.87
20.16
29.84
35.67
38.21
39.90
44.39
54.91
72.72
97.04
126.02
157.52
189.08
217.48
231.43
220.93
184.99
133.92
81.97
39.21
9.22
-9.33
-19.91
-25.79
-28.01
-26.61
-22.34
-17.71
-15.74
-18.17
-24.69
-33.41
-41.76
-46.99
-48.37
-46.66
-44.62
-45.62
-52.05
-64.61
-81.56
-98.59
-109.53
-108.61
-92.89
-64.10
-28.02
7.80
36.44
51.92
54.22
48.05
39.01
30.52
22.96
15.23
6.90
-0.96
-5.93
-6.11
-1.65
5.25
11.69
15.17
15.19
13.34
12.28
15.08
24.24
40.24
61.93
86.41
109.09
124.38
127.25
113.06
84.62
49.09
15.30
-9.46
-22.17
-24.59
-21.38
-17.23
-14.94
-14.48
-14.71
-14.82
-14.93
-15.99
-18.87
-24.01
-30.54
-37.68
-44.43
-50.47
-55.79
-60.30
-63.94
-66.50
-67.82
-67.60
-66.22
-64.33
-63.24
-64.57
-69.49
-77.72
-86.67
-91.66
-87.07
-69.74
-40.43
-4.17
31.56
59.85
76.84
82.73
78.01
67.77
56.29
45.29
34.69
24.14
14.35
6.92
3.46
4.34
8.90
14.96
19.82
21.84
19.63
12.82
1.99
-11.14
-24.41
-35.32
-42.35
-45.05
-43.79
-39.44
-32.64
-23.76
-12.76
-0.43
11.72
21.16
25.52
23.77
16.87
7.64
-2.58
-11.26
-16.89
-19.36
-20.03
-20.86
-23.49
-28.78
-36.74
-46.87
-58.17
-69.83
-81.07
-91.01
-98.64
-102.93
-103.32
-99.95
-93.74
-85.72
-77.00
-68.34
-60.11
-52.45
-45.53
-39.65
-35.05
-31.83
-29.75
-28.64
-28.47
-29.13
-30.07
-29.97
-26.84
-18.74
-4.75
14.53
36.97
59.87
81.16
100.04
116.87
132.25
146.19
157.72
165.44
168.28
166.28
160.56
152.80
144.39
135.81
126.73
116.50
104.79
92.08
79.47
68.35
59.84
54.36
51.66
51.04
51.70
52.95
54.14
54.54
53.30
49.68
43.46
35.16
25.97
17.36
10.53
6.08
4.07
4.42
7.18
12.71
21.38
33.12
47.15
62.02
76.05
87.84
96.58
101.97
104.03
102.86
98.68
92.09
84.27
76.92
71.91
70.50
72.74
77.35
82.08
84.66
83.68
79.01
71.78
63.69
56.24
50.08
44.78
38.82
30.01
16.15
-4.38
-32.05
-65.84
-103.08
-139.73
-171.17
-193.43
-204.41
-204.50
-196.33
-183.67
-170.10
-157.84
-147.42
-138.19
-129.31
-120.67
-112.96
-107.12
-103.48
-101.44
-99.45
-95.59
-88.19
-76.52
-61.49
-45.58
-32.50
-26.41
-31.56
-50.47
-82.18
-121.21
-158.32
-183.47
-188.77
-171.03
-132.45
-80.59
-25.05
25.86
67.40
98.44
119.51
131.92
137.35
138.37
136.67
133.85
131.19
129.44
127.97
123.77
113.11
93.57
66.34
34.13
1.44
-26.76
-46.55
-51.60
-40.92
-21.70
-10.92
-13.72
-29.00
-49.67
-68.72
-80.22
-81.37
-74.08
-63.15
-53.55
-47.55
-46.42
-49.58
-55.32
-61.35
-65.84
-68.61
-70.35
-71.75
-72.56
-73.52
-75.53
-79.20
-84.13
-89.03
-92.44
-92.85
-88.90
-79.45
-65.16
-47.89
-30.11
-13.84
-0.05
11.29
21.17
30.88
41.41
52.24
61.86
68.57
71.72
72.11
71.60
72.06
74.47
78.50
82.77
86.04
88.12
90.07
93.36
98.69
105.27
110.94
113.39
111.28
104.99
96.13
86.59
77.49
68.86
60.12
50.83
41.25
32.21
24.56
18.62
14.07
10.16
6.21
1.88
-2.92
-8.15
-13.82
-19.85
-25.83
-30.95
-34.21
-34.82
-32.57
-27.91
-21.67
-14.69
-7.55
-0.70
5.33
9.75
11.69
10.66
6.97
1.88
-2.79
-5.46
-5.50
-3.53
-1.03
0.61
0.87
0.40
0.58
2.55
6.38
10.81
13.94
14.28
11.65
7.32
3.34
1.35
1.82
3.73
5.19
4.21
-0.75
-10.81
-26.83
-49.30
-77.80
-110.16
-142.04
-167.75
-182.14
-182.54
-169.70
-147.07
-118.60
-86.54
-50.56
-8.97
38.79
89.96
138.26
175.96
197.25
200.83
190.37
172.55
153.94
138.45
126.67
117.00
107.55
97.66
88.02
79.84
73.74
69.09
64.33
57.84
48.82
37.54
25.30
13.71
4.11
-2.93
-7.77
-11.38
-14.99
-19.46
-24.96
-31.04
-36.90
-42.00
-46.45
-50.93
-56.30
-62.89
-70.08
-76.30
-79.55
-78.18
-71.56
-60.19
-45.50
-29.37
-13.53
0.66
12.45
21.63
28.57
34.02
39.08
44.79
51.95
60.71
70.38
79.36
85.38
86.00
79.35
64.91
44.02
19.73
-3.91
-23.09
-35.35
-40.20
-38.92
-33.79
-27.14
-20.61
-15.03
-10.63
-7.44
-5.53
-5.05
-6.08
-8.47
-11.86
-15.76
-19.76
-23.72
-27.72
-31.99
-36.54
-40.95
-44.32
-45.71
-44.68
-42.03
-39.73
-40.18
-45.05
-54.27
-66.03
-77.55
-86.49
-91.89
-94.21
-94.62
-93.95
-92.15
-88.48
-82.26
-73.48
-62.99
-52.05
-41.80
-32.79
-24.99
-18.15
-12.03
-6.65
-2.21
1.00
2.84
3.34
2.82
1.77
0.87
0.84
2.31
5.70
10.98
17.70
25.04
32.01
37.80
41.90
44.21
44.96
44.54
43.36
41.72
39.83
37.75
35.38
32.55
29.08
24.95
20.31
15.48
10.84
6.61
2.76
-0.92
-4.65
-8.46
-12.08
-14.90
-16.24
-15.61
-12.90
-8.46
-2.97
2.82
8.26
12.99
16.88
20.00
22.44
24.26
25.44
25.99
25.96
25.46
24.61
23.56
22.38
21.10
19.68
18.09
16.38
14.70
13.29
12.52
12.72
14.10
16.58
19.68
22.44
23.66
22.19
17.37
9.23
-1.41
-13.25
-24.85
-34.96
-42.64
-47.30
-48.61
-46.51
-41.26
-33.46
-24.02
-14.00
-4.42
3.89
10.22
14.06
14.98
12.82
7.92
1.43
-4.73
-8.15
-6.68
0.80
13.90
30.74
48.70
65.27
78.65
87.92
92.72
92.75
87.43
75.89
57.18
30.77
-2.78
-41.26
-80.64
-115.61
-140.93
-153.15
-151.77
-139.24
-119.79
-97.59
-75.42
-54.38
-34.61
-16.51
-1.28
9.35
13.99
12.42
5.75
-3.98
-14.55
-24.10
-31.31
-35.36
-35.94
-33.20
-27.74
-20.45
-12.28
-3.98
3.95
11.08
16.71
19.98
19.99
16.45
9.95
1.98
-5.62
-11.39
-14.74
-15.99
-15.95
-15.18
-13.74
-11.22
-7.18
-1.66
4.64
10.62
15.27
18.26
20.19
22.15
25.01
28.97
33.40
37.31
39.92
41.17
41.69
42.34
43.57
44.97
45.71
45.11
43.16
40.38
37.41
34.47
31.25
27.11
21.18
13.37
4.56
-3.80
-10.63
-15.69
-19.49
-22.78
-25.97
-29.99
-35.19
-41.16
-46.88
-51.38
-53.97
-54.24
-51.91
-47.08
-42.14
-39.86
-42.19
-49.40
-60.33
-72.79
-84.07
-91.67
-94.26
-94.15
-94.41
-97.01
-101.75
-107.32
-112.59
-117.29
-121.96
-114.60
-88.98
-47.65
-0.73
42.25
76.76
102.31
120.20
132.27
140.44
144.35
143.76
139.21
132.82
126.90
122.97
121.51
122.08
123.52
122.74
117.32
106.19
90.99
74.26
58.03
43.24
29.63
16.18
0.59
-16.26
-34.69
-53.06
-68.88
-80.30
-86.55
-88.26
-87.04
-85.22
-84.74
-87.08
-92.54
-100.59
-109.64
-116.53
-116.84
-106.36
-83.43
-50.27
-12.99
21.00
45.81
59.13
62.68
60.50
56.54
52.88
49.53
45.52
40.54
35.50
31.84
30.54
31.30
32.71
33.07
31.08
26.70
21.06
15.89
12.59
11.62
12.34
13.33
13.14
10.97
7.03
2.38
-1.55
-3.74
-3.96
-2.88
-1.51
-0.80
-1.10
-1.96
-2.39
-1.25
2.40
8.98
18.24
29.13
39.76
47.79
51.07
48.45
40.42
29.05
17.29
7.85
2.22
0.25
0.61
1.65
2.22
2.02
1.37
0.73
0.30
-0.08
-0.65
-1.53
-2.61
-3.61
-4.17
-4.11
-3.49
-2.64
-1.98
-1.98
-2.99
-5.07
-7.98
-11.15
-13.81
-15.33
-15.44
-14.34
-12.74
-11.60
-11.77
-13.62
-16.86
-20.57
-23.57
-24.78
-23.56
-19.98
-14.70
-8.71
-2.90
2.15
6.17
9.06
10.78
11.63
12.21
13.41
16.02
20.20
25.19
29.47
31.49
29.66
24.01
15.98
7.71
0.98
-3.63
-6.77
-9.75
-13.58
-18.38
-23.28
-27.02
-28.70
-28.19
-26.17
-23.67
-21.72
-20.91
-21.34
-22.71
-24.56
-26.45
-28.00
-28.88
-28.84
-27.89
-26.43
-25.18
-24.87
-25.87
-27.91
-30.08
-31.14
-30.05
-26.31
-20.06
-11.84
-2.39
7.57
17.25
25.76
32.25
36.03
37.01
35.85
33.97
33.17
34.95
39.89
47.34
55.50
62.09
65.05
63.37
57.30
48.20
37.87
27.85
18.96
11.18
3.98
-3.18
-10.54
-17.81
-24.28
-28.97
-30.80
-28.78
-22.11
-10.48
5.59
24.29
42.42
55.78
60.54
54.76
39.58
19.13
-0.90
-15.67
-23.10
-24.42
-23.11
-22.77
-25.24
-29.90
-34.54
-36.79
-35.47
-31.00
-24.76
-18.20
-12.08
-6.25
-0.12
6.76
14.18
21.09
25.94
27.28
24.45
17.96
9.34
0.46
-7.22
-13.30
-18.41
-23.61
-29.70
-36.63
-43.52
-49.14
-52.57
-53.63
-52.80
-50.86
-48.37
-45.42
-41.79
-37.47
-33.00
-29.52
-28.29
-30.03
-34.45
-40.15
-45.10
-47.30
-45.40
-38.92
-28.23
-14.24
1.80
18.45
34.24
47.86
58.37
65.60
70.08
72.93
75.49
78.88
83.65
89.42
94.90
98.14
97.13
90.68
78.94
63.54
47.14
32.46
21.39
14.50
11.14
10.03
9.92
9.92
9.60
8.76
7.18
4.64
1.00
-3.60
-8.73
-13.75
-18.06
-21.34
-23.63
-25.31
-26.76
-28.18
-29.40
-29.89
-29.05
-26.51
-22.24
-16.71
-10.59
-4.59
0.83
5.51
9.56
13.16
16.43
19.31
21.62
23.21
24.04
24.24
24.04
23.60
22.98
22.09
20.85
19.23
17.37
15.49
13.75
12.21
10.72
9.06
7.03
4.50
1.56
-1.58
-4.62
-7.33
-9.62
-11.56
-13.31
-15.05
-16.92
-19.01
-21.42
-24.25
-27.46
-30.88
-34.02
-36.26
-36.97
-35.79
-32.74
-28.18
-22.69
-16.77
-10.79
-4.91
0.77
6.14
11.02
15.20
18.49
20.80
22.21
22.94
23.33
23.74
24.42
25.44
26.70
27.93
28.82
29.14
28.76
27.67
25.90
23.44
20.28
16.41
11.90
7.01
2.17
-2.10
-5.38
-7.52
-8.77
-9.71
-11.06
-13.40
-16.93
-21.33
-25.85
-29.49
-31.37
-30.92
-28.10
-23.37
-17.59
-11.77
-6.77
-3.12
-0.84
0.42
1.23
2.12
3.35
4.90
6.54
7.95
8.96
9.52
9.74
9.80
9.84
9.97
10.24
10.68
11.30
12.08
12.93
13.69
14.06
13.78
12.63
10.55
7.61
4.01
-0.01
-4.21
-8.35
-12.23
-15.68
-18.66
-21.23
-23.61
-26.09
-28.83
-31.78
-34.52
-36.33
-36.46
-34.45
-30.33
-24.70
-18.52
-12.70
-7.78
-3.79
-0.37
2.92
6.32
9.78
13.05
15.87
18.15
19.88
21.11
21.85
22.02
21.61
20.72
19.58
18.50
17.65
17.06
16.62
16.18
15.63
14.91
13.95
12.59
10.66
8.02
4.72
1.07
-2.45
-5.40
-7.57
-9.09
-10.34
-11.80
-13.84
-16.61
-20.00
-23.70
-27.26
-30.17
-31.95
-32.20
-30.73
-27.59
-23.08
-17.62
-11.68
-5.66
0.17
5.62
10.54
14.81
18.28
20.89
22.64
23.64
24.07
24.12
23.90
23.43
22.64
21.41
19.67
17.53
15.24
13.15
11.55
10.52
9.90
9.36
8.49
6.98
4.72
1.84
-1.37
-4.63
-7.69
-10.50
-13.06
-15.45
-17.72
-19.96
-22.27
-24.75
-27.44
-30.23
-32.82
-34.75
-35.60
-35.03
-33.00
-29.66
-25.30
-20.20
-14.66
-8.93
-3.34
1.76
6.09
9.48
11.94
13.61
14.66
15.24
15.42
15.30
14.97
14.54
14.11
13.66
13.13
12.41
11.41
10.09
8.49
6.73
4.96
3.33
1.88
0.56
-0.73
-2.16
-3.84
-5.80
-7.96
-10.17
-12.28
-14.23
-16.09
-18.08
-20.40
-23.16
-26.25
-29.27
-31.61
-32.59
-31.69
-28.70
-23.93
-18.03
-11.77
-5.81
-0.53
4.06
8.08
11.69
14.98
17.90
20.35
22.26
23.61
24.43
24.73
24.49
23.69
22.35
20.61
18.69
16.82
15.18
13.77
12.50
11.20
9.75
8.12
6.41
4.70
3.03
1.29
-0.63
-2.83
-5.25
-7.71
-10.01
-12.05
-13.87
-15.69
-17.81
-20.42
-23.49
-26.72
-29.57
-31.48
-32.01
-31.00
-28.52
-24.90
-20.48
-15.60
-10.46
-5.20
0.04
5.10
9.76
13.85
17.17
19.61
21.13
21.79
21.82
21.51
21.13
20.82
20.56
20.19
19.56
18.62
17.48
16.31
15.23
14.25
13.20
11.90
10.22
8.20
5.98
3.71
1.46
-0.76
-3.05
-5.45
-7.94
-10.44
-12.79
-14.92
-16.91
-19.01
-21.51
-24.54
-27.93
-31.16
-33.51
-34.33
-33.27
-30.37
-26.00
-20.65
-14.76
-8.67
-2.67
2.95
7.82
11.64
14.27
15.83
16.62
17.00
17.18
17.21
17.00
16.49
15.70
14.77
13.84
12.94
12.01
10.94
9.70
8.43
7.34
6.57
6.03
5.42
4.38
2.68
0.39
-2.18
-4.65
-6.73
-8.43
-9.92
-11.53
-13.48
-15.89
-18.71
-21.80
-24.93
-27.74
-29.86
-30.82
-30.30
-28.15
-24.52
-19.80
-14.48
-9.03
-3.80
1.00
5.30
9.03
12.18
14.73
16.68
18.06
18.89
19.20
19.01
18.38
17.43
16.30
15.17
14.18
13.38
12.74
12.22
11.70
11.10
10.31
9.27
7.95
6.35
4.50
2.44
0.23
-2.07
-4.35
-6.51
-8.43
-10.09
-11.61
-13.18
-15.02
-17.29
-20.08
-23.31
-26.69
-29.76
-31.95
-32.68
-31.57
-28.61
-24.14
-18.77
-13.16
-7.79
-2.91
1.46
5.41
8.97
12.09
14.69
16.71
18.17
19.18
19.91
20.47
20.87
21.00
20.69
19.87
18.57
16.99
15.39
13.98
12.79
11.71
10.55
9.20
7.67
6.06
4.45
2.84
1.16
-0.69
-2.71
-4.81
-6.86
-8.72
-10.41
-12.01
-13.70
-15.61
-17.88
-20.46
-23.19
-25.72
-27.60
-28.39
-27.76
-25.64
-22.19
-17.74
-12.70
-7.45
-2.32
2.48
6.75
10.42
13.48
15.99
18.01
19.57
20.61
21.05
20.89
20.26
19.39
18.55
17.94
17.57
17.34
17.04
16.47
15.54
14.25
12.70
11.04
9.42
7.89
6.44
4.94
3.27
1.38
-0.68
-2.73
-4.52
-5.89
-6.92
-7.86
-9.10
-10.90
-13.34
-16.30
-19.53
-22.75
-25.68
-28.03
-29.41
-29.37
-27.60
-24.03
-18.99
-13.12
-7.14
-1.68
2.95
6.71
9.76
12.29
14.48
16.40
18.01
19.25
20.01
20.24
19.93
19.15
18.07
16.84
15.64
14.57
13.68
12.96
12.28
11.52
10.54
9.25
7.65
5.83
3.92
2.06
0.28
-1.46
-3.22
-5.07
-7.05
-9.12
-11.23
-13.35
-15.51
-17.79
-20.23
-22.82
-25.38
-27.58
-29.02
-29.32
-28.23
-25.75
-22.07
-17.55
-12.59
-7.47
-2.39
2.58
7.37
11.86
15.88
19.22
21.70
23.19
23.66
23.19
22.02
20.43
18.76
17.31
16.23
15.59
15.32
15.28
15.34
15.37
15.20
14.70
13.74
12.29
10.42
8.35
6.32
4.49
2.92
1.48
-0.03
-1.81
-4.01
-6.66
-9.75
-13.21
-16.95
-20.84
-24.68
-28.24
-31.16
-33.07
-33.59
-32.46
-29.57
-25.10
-19.49
-13.33
-7.23
-1.66
3.11
7.04
10.24
12.86
15.04
16.86
18.34
19.44
20.09
20.24
19.90
19.13
18.11
17.01
16.05
15.32
14.92
14.86
15.13
15.58
16.02
16.20
15.88
14.97
13.55
11.81
9.92
7.93
5.76
3.33
0.62
-2.26
-5.10
-7.72
-10.08
-12.25
-14.43
-16.79
-19.40
-22.23
-25.13
-27.88
-30.19
-31.70
-32.06
-31.04
-28.59
-24.94
-20.48
-15.68
-10.97
-6.62
-2.75
0.64
3.59
6.11
8.09
9.37
9.79
9.36
8.32
7.13
6.25
5.96
6.19
6.55
6.49
5.59
3.76
1.28
-1.41
-3.92
-6.14
-8.31
-10.89
-14.38
-19.02
-24.70
-31.02
-37.41
-43.44
-49.02
-54.45
-60.30
-67.16
-75.30
-84.56
-94.36
-103.98
-112.79
-120.50
-127.17
-133.07
-138.54
-143.90
-149.48
-155.63
-162.61
-170.27
-177.72
-183.13
-184.02
-177.96
-163.30
-139.67
-107.81
-68.89
-23.86
26.61
81.50
138.47
193.41
241.02
276.47
297.11
303.51
299.03
288.30
275.35
262.45
250.02
237.41
223.91
209.42
194.47
179.72
165.63
152.30
139.60
127.38
115.64
104.63
94.67
86.01
78.67
72.33
66.35
59.97
52.57
43.94
34.44
24.88
16.22
9.35
4.69
2.22
1.50
1.89
2.78
3.71
4.46
4.98
5.41
5.97
6.97
8.61
10.89
13.52
16.03
17.92
19.04
19.70
20.62
22.62
26.12
30.90
36.07
40.48
43.35
44.69
45.25
46.09
47.85
50.26
52.26
52.55
50.18
44.75
36.10
23.88
7.54
-12.91
-36.01
-58.52
-76.45
-86.97
-90.18
-89.43
-89.61
-94.50
-104.62
-117.07
-127.32
-131.88
-130.15
-124.29
-117.66
-112.64
-109.49
-106.68
-102.18
-94.95
-85.45
-75.35
-66.48
-59.91
-55.48
-52.17
-48.75
-44.64
-40.33
-37.18
-36.62
-39.26
-44.34
-49.90
-53.55
-53.60
-49.79
-43.42
-36.74
-31.99
-30.43
-31.96
-35.27
-38.66
-40.85
-41.51
-41.40
-41.89
-44.19
-48.84
-55.36
-62.50
-68.81
-73.28
-75.69
-76.80
-77.84
-79.94
-83.69
-88.98
-95.20
-101.47
-106.87
-110.26
-110.42
-106.43
-98.49
-88.44
-79.41
-74.20
-73.17
-72.91
-66.92
-48.52
-14.45
32.82
85.55
134.09
171.03
194.02
205.65
210.87
213.64
215.01
213.33
206.28
193.28
176.51
160.20
148.66
144.04
145.18
148.17
148.04
140.71
124.35
99.47
68.21
33.84
0.25
-28.34
-47.95
-55.95
-52.40
-40.71
-26.74
-16.49
-13.33
-16.53
-21.85
-23.97
-19.40
-8.21
6.38
20.00
29.38
33.55
33.40
30.31
24.93
16.89
5.54
-8.93
-24.85
-39.30
-49.22
-52.68
-49.46
-41.14
-30.66
-21.51
-16.70
-17.94
-24.98
-35.49
-45.91
-52.94
-55.15
-53.64
-51.31
-51.14
-54.32
-59.58
-63.87
-64.27
-59.61
-51.18
-41.83
-34.34
-30.06
-28.51
-28.14
-27.43
-25.82
-23.84
-22.64
-23.15
-25.57
-29.18
-32.83
-35.50
-36.81
-37.15
-37.43
-38.53
-40.88
-44.13
-47.31
-49.13
-48.50
-44.88
-38.46
-30.05
-20.70
-11.39
-2.73
5.11
12.23
18.77
24.72
29.84
33.76
36.12
36.82
36.09
34.45
32.58
31.10
30.48
30.99
32.59
35.07
38.00
40.77
42.70
43.15
41.72
38.35
33.36
27.38
21.17
15.44
10.65
7.01
4.50
3.03
2.52
2.91
4.00
5.44
6.66
6.93
5.67
2.53
-2.45
-8.86
-16.08
-23.30
-29.62
-34.19
-36.34
-35.70
-32.34
-26.70
-19.45
-11.31
-2.85
5.49
13.38
20.51
26.58
31.32
34.56
36.20
36.32
35.13
33.05
30.62
28.36
26.67
25.62
25.05
24.70
24.34
23.93
23.53
23.15
22.72
22.02
20.87
19.22
17.21
15.08
13.02
11.06
9.03
6.70
3.89
0.62
-2.87
-6.28
-9.34
-11.97
-14.29
-16.62
-19.27
-22.41
-25.96
-29.47
-32.31
-33.81
-33.49
-31.17
-27.05
-21.56
-15.23
-8.53
-1.80
4.65
10.53
15.60
19.66
22.73
25.01
26.82
28.40
29.75
30.70
30.98
30.47
29.31
27.90
26.61
25.65
24.92
24.14
23.07
21.64
19.99
18.34
16.76
15.18
13.41
11.35
9.05
6.73
4.60
2.75
1.04
-0.68
-2.55
-4.56
-6.67
-8.88
-11.31
-14.13
-17.44
-21.16
-24.97
-28.37
-30.81
-31.80
-31.06
-28.51
-24.38
-19.08
-13.16
-7.15
-1.41
3.92
8.84
13.35
17.34
20.61
22.99
24.51
25.41
26.02
26.53
26.83
26.59
25.55
23.74
21.59
19.71
18.54
18.10
18.02
17.73
16.81
15.17
13.02
10.65
8.32
6.16
4.21
2.47
0.96
-0.38
-1.68
-3.15
-4.95
-7.18
-9.73
-12.44
-15.08
-17.57
-19.96
-22.44
-25.11
-27.87
-30.28
-31.64
-31.29
-28.89
-24.61
-19.06
-13.00
-7.02
-1.44
3.65
8.23
12.17
15.29
17.49
18.88
19.79
20.57
21.41
22.23
22.74
22.69
22.07
21.12
20.22
19.68
19.59
19.74
19.73
19.24
18.09
16.40
14.38
12.25
10.10
7.84
5.35
2.53
-0.60
-3.84
-6.97
-9.82
-12.37
-14.67
-16.83
-18.92
-20.96
-22.97
-24.95
-26.94
-28.82
-30.29
-30.91
-30.22
-27.93
-24.04
-18.94
-13.21
-7.53
-2.39
1.91
5.34
7.97
9.95
11.37
12.29
12.76
12.86
12.73
12.60
12.68
13.07
13.72
14.40
14.79
14.65
13.89
12.66
11.22
9.91
8.89
8.15
7.45
6.41
4.79
2.61
0.16
-2.14
-3.93
-5.15
-6.02
-6.90
-8.14
-9.89
-12.06
-14.46
-16.92
-19.38
-21.82
-24.22
-26.41
-28.15
-29.06
-28.87
-27.44
-24.86
-21.36
-17.29
-12.95
-8.57
-4.29
-0.13
3.81
7.49
10.75
13.50
15.64
17.16
18.14
18.59
18.59
18.13
17.29
16.23
15.13
14.17
13.43
12.92
12.57
12.30
12.04
11.78
11.41
10.84
9.91
8.60
6.95
5.08
3.12
1.14
-0.84
-2.79
-4.66
-6.36
-7.80
-9.00
-10.10
-11.33
-12.98
-15.21
-18.09
-21.51
-25.13
-28.47
-30.96
-32.10
-31.59
-29.44
-25.95
-21.56
-16.74
-11.83
-7.05
-2.55
1.56
5.21
8.36
11.06
13.35
15.26
16.73
17.67
18.01
17.80
17.24
16.53
15.82
15.11
14.32
13.33
12.13
10.79
9.44
8.18
7.01
5.89
4.78
3.70
2.70
1.76
0.83
-0.20
-1.38
-2.72
-4.15
-5.57
-7.01
-8.57
-10.42
-12.68
-15.34
-18.23
-21.05
-23.50
-25.32
-26.31
-26.35
-25.31
-23.15
-19.91
-15.80
-11.19
-6.55
-2.27
1.42
4.50
7.12
9.48
11.66
13.62
15.23
16.29
16.74
16.62
16.04
15.21
14.28
13.37
12.58
12.00
11.67
11.58
11.56
11.39
10.83
9.72
8.12
6.25
4.41
2.85
1.64
0.66
-0.33
-1.51
-2.94
-4.54
-6.18
-7.80
-9.38
-10.99
-12.77
-14.78
-17.03
-19.47
-21.92
-24.14
-25.83
-26.69
-26.51
-25.15
-22.57
-18.86
-14.19
-8.85
-3.25
2.13
6.81
10.47
12.94
14.29
14.76
14.67
14.35
14.03
13.84
13.80
13.81
13.71
13.40
12.80
11.97
10.98
9.89
8.71
7.38
5.88
4.26
2.67
1.28
0.17
-0.71
-1.53
-2.48
-3.68
-5.12
-6.67
-8.16
-9.48
-10.66
-11.87
-13.32
-15.20
-17.52
-20.12
-22.65
-24.70
-25.87
-25.94
-24.85
-22.71
-19.73
-16.18
-12.29
-8.31
-4.47
-0.94
2.24
5.07
7.64
9.97
11.97
13.48
14.28
14.29
13.64
12.61
11.56
10.84
10.60
10.80
11.26
11.66
11.72
11.23
10.17
8.67
6.97
5.27
3.68
2.15
0.60
-1.02
-2.68
-4.22
-5.57
-6.72
-7.84
-9.15
-10.81
-12.81
-15.04
-17.35
-19.66
-21.95
-24.19
-26.18
-27.53
-27.83
-26.77
-24.32
-20.73
-16.40
-11.74
-7.06
-2.55
1.66
5.47
8.80
11.67
14.09
16.06
17.51
18.27
18.22
17.42
16.21
15.08
14.46
14.47
14.93
15.38
15.36
14.62
13.25
11.53
9.78
8.16
6.72
5.37
4.10
2.97
2.07
1.41
0.82
0.03
-1.22
-3.06
-5.37
-7.84
-10.15
-12.11
-13.76
-15.32
-17.02
-19.02
-21.29
-23.59
-25.60
-26.99
-27.48
-26.93
-25.28
-22.58
-19.01
-14.83
-10.32
-5.79
-1.43
2.58
6.14
9.13
11.54
13.38
14.80
15.97
16.95
17.76
18.27
18.35
18.00
17.39
16.79
16.42
16.33
16.34
16.15
15.52
14.36
12.75
10.96
9.21
7.67
6.36
5.21
4.14
3.07
1.96
0.76
-0.58
-2.17
-4.11
-6.46
-9.14
-11.92
-14.60
-17.01
-19.18
-21.26
-23.36
-25.42
-27.09
-27.89
-27.35
-25.24
-21.70
-17.12
-12.05
-6.97
-2.22
2.05
5.77
8.90
11.43
13.32
14.59
15.29
15.54
15.47
15.19
14.81
14.39
13.95
13.49
12.98
12.33
11.53
10.61
9.71
9.02
8.69
8.70
8.80
8.60
7.69
5.94
3.52
0.85
-1.61
-3.58
-5.04
-6.21
-7.35
-8.67
-10.24
-12.04
-14.02
-16.18
-18.42
-20.61
-22.39
-23.36
-23.17
-21.59
-18.72
-14.83
-10.38
-5.83
-1.53
2.33
5.68
8.58
11.05
13.07
14.52
15.31
15.39
14.87
13.98
13.07
12.40
12.13
12.24
12.57
12.92
13.06
12.88
12.40
11.68
10.83
9.90
8.91
7.79
6.53
5.16
3.81
2.61
1.61
0.68
-0.40
-1.88
-3.86
-6.27
-8.94
-11.77
-14.77
-18.04
-21.56
-25.05
-27.93
-29.54
-29.39
-27.44
-24.05
-19.81
-15.22
-10.57
-5.90
-1.19
3.43
7.71
11.37
14.20
16.23
17.60
18.44
18.76
18.53
17.75
16.64
15.53
14.77
14.46
14.39
14.12
13.25
11.64
9.54
7.42
5.69
4.49
3.64
2.74
1.50
-0.16
-1.98
-3.59
-4.77
-5.51
-6.07
-6.82
-8.04
-9.79
-11.90
-14.14
-16.25
-18.15
-19.83
-21.27
-22.36
-22.84
-22.37
-20.71
-17.80
-13.86
-9.31
-4.63
-0.21
3.70
7.04
9.89
12.33
14.37
15.98
17.06
17.50
17.26
16.40
15.09
13.59
12.16
11.04
10.36
10.07
9.99
9.82
9.30
8.27
6.76
4.97
3.12
1.33
-0.49
-2.53
-4.99
-7.87
-10.95
-13.83
-16.13
-17.73
-18.85
-19.98
-21.68
-24.27
-27.81
-32.03
-36.48
-40.64
-44.00
-46.16
-46.96
-46.55
-45.41
-44.20
-43.52
-43.59
-44.05
-44.08
-42.68
-39.14
-33.45
-26.35
-19.26
-13.72
-10.93
-11.23
-14.01
-17.78
-20.71
-21.22
-18.63
-13.27
-6.23
1.18
7.91
13.56
18.11
21.71
24.30
25.74
25.96
25.26
24.32
23.82
24.08
24.84
25.39
24.97
23.29
20.73
18.16
16.50
16.28
17.50
19.90
23.28
27.86
34.21
43.08
54.84
69.18
84.87
99.99
112.45
120.78
124.69
125.18
124.11
123.35
123.82
125.19
126.20
125.50
122.38
116.99
109.87
101.38
91.50
80.13
67.68
55.42
44.98
37.48
32.65
28.69
23.05
13.69
0.01
-16.88
-34.79
-51.52
-65.74
-77.21
-86.47
-93.94
-99.21
-100.98
-98.16
-91.39
-83.85
-80.51
-85.51
-99.13
-116.30
-127.97
-125.26
-103.82
-66.18
-20.25
24.81
62.79
92.05
113.94
129.53
137.44
134.28
117.33
87.36
49.39
10.87
-21.64
-44.90
-59.49
-68.25
-73.98
-78.13
-80.78
-81.66
-80.74
-78.47
-75.22
-70.79
-64.49
-55.75
-44.70
-32.39
-20.40
-10.07
-2.05
3.75
7.68
9.96
10.51
9.12
5.88
1.32
-3.70
-8.28
-11.88
-14.56
-16.83
-19.41
-22.69
-26.50
-29.94
-31.69
-30.53
-25.79
-17.64
-7.03
4.60
15.73
24.99
31.37
34.24
33.40
29.09
22.05
13.50
5.01
-1.77
-5.52
-5.68
-2.65
2.27
7.16
10.14
9.96
6.43
0.54
-5.98
-11.38
-14.57
-15.51
-15.11
-14.65
-15.25
-17.39
-20.92
-25.30
-29.96
-34.49
-38.60
-42.00
-44.32
-45.16
-44.36
-42.13
-39.15
-36.32
-34.43
-33.84
-34.22
-34.65
-33.92
-31.03
-25.64
-18.32
-10.32
-3.05
2.49
6.17
8.65
10.88
13.62
16.95
20.35
23.10
24.76
25.39
25.55
25.84
26.60
27.73
28.79
29.36
29.24
28.51
27.45
26.21
24.76
22.88
20.43
17.58
14.78
12.62
11.49
11.31
11.53
11.36
10.11
7.58
4.13
0.50
-2.46
-4.17
-4.56
-4.04
-3.40
-3.45
-4.75
-7.42
-11.09
-14.99
-18.26
-20.17
-20.38
-19.00
-16.46
-13.36
-10.20
-7.30
-4.78
-2.65
-0.94
0.29
0.90
0.80
-0.02
-1.46
-3.31
-5.33
-7.34
-9.25
-11.09
-12.88
-14.76
-16.87
-19.44
-22.71
-26.81
-31.61
-36.69
-41.36
-45.05
-47.59
-49.44
-51.57
-55.05
-60.51
-67.72
-75.76
-83.50
-90.15
-95.59
-100.16
-104.17
-107.31
-108.49
-106.03
-98.26
-83.89
-62.28
-33.34
2.35
43.41
87.32
130.60
169.45
201.04
224.61
241.94
256.48
271.84
289.87
309.74
328.09
340.46
343.04
334.15
314.51
286.81
254.44
220.41
186.67
153.91
121.83
89.48
55.88
20.61
-15.65
-51.00
-82.69
-107.92
-124.85
-133.18
-134.14
-129.86
-122.59
-114.12
-105.76
-98.58
-93.52
-91.30
-92.01
-94.84
-98.18
-100.24
-99.84
-96.90
-92.41
-87.95
-84.98
-84.21
-85.23
-86.79
-87.29
-85.46
-80.86
-73.96
-65.87
-57.77
-50.40
-43.88
-37.87
-31.92
-25.82
-19.76
-14.16
-9.47
-5.93
-3.58
-2.22
-1.62
-1.52
-1.71
-2.02
-2.37
-2.79
-3.44
-4.45
-5.91
-7.77
-9.85
-11.94
-13.88
-15.58
-17.06
-18.45
-19.95
-21.77
-24.07
-26.87
-29.95
-32.82
-34.87
-35.61
-34.93
-33.17
-31.13
-29.77
-29.91
-32.01
-36.05
-41.54
-47.57
-53.01
-56.81
-58.22
-57.10
-53.94
-49.79
-45.96
-43.60
-43.44
-45.73
-50.35
-57.03
-65.57
-75.70
-86.99
-98.64
-109.49
-118.27
-123.90
-125.87
-124.20
-119.46
-112.40
-103.80
-94.25
-84.01
-72.93
-60.36
-45.38
-27.21
-5.81
17.89
42.13
64.90
84.67
100.75
113.22
122.49
128.86
132.44
133.18
131.16
126.58
119.74
110.85
100.14
87.86
74.59
61.20
48.73
38.10
29.93
24.44
21.47
20.55
21.06
22.40
24.25
26.60
29.76
33.96
39.17
44.84
50.02
53.66
54.85
53.12
48.42
41.16
32.09
22.17
12.36
3.42
-4.12
-10.00
-14.10
-16.39
-16.99
-16.12
-14.15
-11.45
-8.22
-4.51
-0.30
4.28
8.83
12.81
15.78
17.69
18.91
19.97
21.24
22.62
23.60
23.52
21.95
18.93
15.05
11.08
7.74
5.42
4.05
3.29
2.71
1.99
0.94
-0.54
-2.50
-4.99
-8.07
-11.64
-15.38
-18.76
-21.18
-22.24
-22.03
-21.23
-20.90
-22.02
-24.95
-29.21
-33.57
-36.61
-37.39
-35.87
-32.70
-28.74
-24.48
-19.74
-14.03
-7.15
0.45
7.74
13.72
18.08
21.36
24.61
28.61
33.28
37.58
40.08
39.78
36.60
31.48
25.83
20.90
17.23
14.60
12.31
9.70
6.51
3.03
-0.08
-2.21
-3.00
-2.37
-0.47
2.63
6.98
12.60
19.32
26.47
33.06
38.01
40.67
40.96
39.34
36.53
33.24
29.99
27.22
25.27
24.44
24.73
25.80
26.99
27.66
27.39
26.22
24.45
22.44
20.23
17.55
13.96
9.21
3.47
-2.64
-8.20
-12.38
-14.66
-15.11
-14.39
-13.46
-13.36
-14.75
-17.79
-22.15
-27.25
-32.62
-38.11
-43.88
-50.10
-56.65
-62.85
-67.61
-69.70
-68.32
-63.37
-55.44
-45.59
-34.93
-24.32
-14.28
-5.15
2.73
8.93
12.98
14.66
14.24
12.57
10.87
10.35
11.79
15.32
20.44
26.29
31.98
36.86
40.63
43.27
44.83
45.25
44.38
42.09
38.46
33.90
29.10
24.75
21.24
18.47
15.95
13.08
9.54
5.42
1.17
-2.79
-6.33
-9.70
-13.29
-17.30
-21.37
-24.63
-26.07
-25.09
-21.80
-17.08
-12.11
-7.86
-4.66
-2.15
0.31
3.21
6.54
9.78
12.29
13.63
13.82
13.24
12.37
11.45
10.46
9.19
7.48
5.52
3.81
2.96
3.34
4.81
6.63
7.71
7.09
4.35
-0.15
-5.36
-10.02
-13.15
-14.49
-14.43
-13.86
-13.65
-14.31
-15.90
-18.15
-20.67
-23.20
-25.62
-27.86
-29.76
-30.99
-31.12
-29.70
-26.45
-21.35
-14.61
-6.72
1.69
9.87
17.17
23.08
27.37
30.05
31.29
31.37
30.62
29.39
28.00
26.57
24.94
22.65
19.16
14.28
8.44
2.64
-1.87
-4.21
-4.24
-2.61
-0.32
1.73
3.15
4.00
4.58
5.02
5.16
4.62
2.96
-0.02
-4.25
-9.37
-14.88
-20.26
-25.09
-29.07
-31.96
-33.60
-33.86
-32.71
-30.29
-26.88
-22.92
-18.87
-15.18
-12.19
-10.16
-9.25
-9.45
-10.50
-11.94
-13.23
-14.01
-14.09
-13.50
-12.25
-10.20
-7.09
-2.80
2.44
7.88
12.59
15.76
17.01
16.60
15.15
13.39
11.92
11.11
11.11
11.86
13.11
14.39
15.10
14.76
13.17
10.54
7.42
4.48
2.30
1.25
1.45
2.83
5.10
7.87
10.57
12.63
13.56
13.14
11.59
9.50
7.64
6.66
6.80
7.73
8.68
8.80
7.56
5.07
2.03
-0.59
-2.02
-2.00
-0.78
1.05
3.00
4.81
6.43
7.90
9.18
10.07
10.35
9.91
8.86
7.49
6.10
4.96
4.14
3.43
2.49
0.89
-1.69
-5.30
-9.59
-13.93
-17.47
-19.54
-19.83
-18.50
-16.15
-13.48
-10.97
-8.67
-6.15
-2.69
2.29
8.89
16.56
24.20
30.62
34.95
36.92
36.86
35.45
33.31
30.81
27.99
24.78
21.18
17.39
13.76
10.59
7.93
5.60
3.25
0.65
-2.19
-5.02
-7.52
-9.51
-11.05
-12.33
-13.58
-14.80
-15.90
-16.76
-17.51
-18.50
-20.21
-22.92
-26.53
-30.54
-34.28
-37.19
-39.01
-39.83
-39.84
-39.15
-37.65
-35.13
-31.41
-26.55
-20.97
-15.31
-10.26
-6.26
-3.36
-1.23
0.63
2.74
5.41
8.72
12.49
16.42
20.08
22.99
24.69
24.91
23.74
21.69
19.57
18.15
17.79
18.28
18.98
19.19
18.51
16.93
14.69
12.09
9.20
5.90
2.08
-2.24
-6.78
-11.13
-14.95
-18.06
-20.52
-22.48
-24.06
-25.32
-26.26
-26.89
-27.31
-27.67
-28.06
-28.49
-28.80
-28.76
-28.10
-26.61
-24.13
-20.48
-15.42
-8.77
-0.60
8.63
18.03
26.52
33.12
37.36
39.38
39.91
39.92
40.24
41.27
42.88
44.57
45.70
45.76
44.50
41.93
38.26
33.76
28.73
23.44
18.06
12.69
7.37
2.12
-2.94
-7.54
-11.40
-14.36
-16.48
-17.99
-19.12
-19.92
-20.15
-19.56
-18.07
-16.03
-14.10
-12.99
-13.22
-14.84
-17.50
-20.62
-23.58
-25.85
-27.05
-26.84
-25.07
-21.74
-17.14
-11.79
-6.37
-1.43
2.75
6.28
9.50
12.76
16.09
19.14
21.29
22.02
21.09
18.79
15.79
12.84
10.48
8.86
7.75
6.79
5.73
4.60
3.79
3.79
5.04
7.61
11.11
14.79
17.75
19.29
19.13
17.49
15.05
12.61
10.86
10.05
9.93
9.82
8.95
6.82
3.40
-0.81
-5.16
-8.99
-11.92
-13.76
-14.36
-13.54
-11.06
-6.86
-1.18
5.46
12.39
19.01
24.93
29.92
33.78
36.26
37.10
36.13
33.44
29.46
24.81
20.18
16.00
12.32
8.76
4.70
-0.47
-7.08
-14.97
-23.52
-31.91
-39.40
-45.56
-50.37
-54.02
-56.78
-58.73
-59.83
-59.90
-58.76
-56.33
-52.63
-47.83
-42.24
-36.28
-30.47
-25.32
-21.17
-18.18
-16.24
-15.05
-14.10
-12.88
-10.88
-7.78
-3.58
1.40
6.58
11.34
15.24
18.17
20.32
22.07
23.73
25.42
27.06
28.47
29.34
29.43
28.57
26.73
23.99
20.63
17.01
13.49
10.34
7.65
5.35
3.27
1.19
-0.96
-3.12
-5.14
-6.76
-7.79
-8.22
-8.19
-7.97
-7.84
-8.02
-8.60
-9.53
-10.71
-12.00
-13.24
-14.23
-14.82
-15.04
-15.08
-15.28
-15.93
-17.14
-18.59
-19.72
-19.86
-18.53
-15.65
-11.56
-6.91
-2.37
1.51
4.51
6.70
8.23
9.20
9.62
9.43
8.64
7.54
6.56
6.17
6.57
7.59
8.77
9.61
9.84
9.56
9.10
8.81
8.79
8.92
8.86
8.35
7.27
5.70
3.83
1.89
0.11
-1.47
-2.90
-4.32
-5.83
-7.40
-8.81
-9.74
-9.98
-9.62
-9.14
-9.17
-10.23
-12.29
-14.80
-16.80
-17.38
-16.09
-13.05
-8.87
-4.37
-0.22
3.16
5.69
7.53
8.95
10.21
11.41
12.48
13.17
13.10
11.98
9.65
6.20
1.95
-2.60
-6.81
-10.00
-11.60
-11.32
-9.30
-6.09
-2.53
0.55
2.55
3.31
2.97
1.88
0.40
-1.27
-2.98
-4.64
-6.14
-7.33
-8.06
-8.26
-8.03
-7.69
-7.72
-8.61
-10.60
-13.50
-16.76
-19.60
-21.27
-21.37
-19.88
-17.11
-13.49
-9.45
-5.31
-1.34
2.20
5.16
7.48
9.31
10.91
12.54
14.30
16.04
17.51
18.50
18.98
19.13
19.26
19.67
20.44
21.46
22.54
23.51
24.32
25.05
25.68
26.17
26.41
26.31
25.96
25.60
25.59
26.27
27.78
29.89
32.08
33.68
34.11
33.24
31.47
29.56
28.25
27.90
28.29
28.86
29.14
29.07
29.02
29.40
30.19
30.84
30.42
28.19
24.11
18.87
13.58
9.26
6.28
4.41
3.01
1.48
-0.39
-2.39
-4.08
-5.14
-5.55
-5.75
-6.32
-7.72
-10.05
-13.01
-16.10
-18.87
-21.16
-23.10
-24.93
-26.75
-28.35
-29.24
-28.84
-26.76
-23.08
-18.47
-13.96
-10.61
-9.06
-9.30
-10.69
-12.42
-13.92
-15.20
-16.69
-18.85
-21.79
-25.08
-27.91
-29.57
-29.68
-28.42
-26.29
-23.86
-21.51
-19.44
-17.68
-16.20
-14.88
-13.57
-12.08
-10.21
-7.87
-5.09
-2.06
0.96
3.72
6.00
7.73
8.95
9.80
10.37
10.70
10.68
10.15
8.99
7.22
5.11
2.92
0.79
-1.41
-4.01
-7.29
-11.27
-15.54
-19.54
-22.77
-24.98
-26.21
-26.63
-26.39
-25.68
-24.82
-24.34
-24.76
-26.24
-28.19
-29.24
-27.78
-22.76
-14.38
-4.26
5.25
11.97
14.79
13.91
10.44
5.85
1.43
-1.90
-3.53
-2.95
0.17
5.74
13.01
20.50
26.39
29.04
27.63
22.44
14.80
6.63
-0.23
-4.50
-5.82
-4.71
-2.21
0.54
2.65
3.69
3.66
2.87
1.79
0.94
0.68
1.10
1.95
2.84
3.50
4.05
5.01
6.92
9.85
13.05
15.19
15.01
12.08
7.21
2.17
-1.18
-1.75
0.24
3.61
6.90
9.15
10.28
10.78
11.22
11.81
12.28
12.14
11.11
9.35
7.36
5.79
5.04
5.13
5.72
6.38
6.73
6.65
6.25
5.77
5.43
5.28
5.16
4.84
4.11
2.97
1.61
0.33
-0.70
-1.43
-2.01
-2.59
-3.12
-3.41
-3.21
-2.45
-1.38
-0.50
-0.35
-1.29
-3.35
-6.28
-9.68
-13.11
-16.16
-18.45
-19.68
-19.66
-18.39
-16.14
-13.28
-10.20
-7.19
-4.35
-1.71
0.63
2.48
3.58
3.81
3.34
2.66
2.49
3.38
5.50
8.44
11.33
13.19
13.32
11.59
8.46
4.85
1.75
-0.21
-0.86
-0.59
-0.08
0.04
-0.57
-1.78
-3.16
-4.29
-5.03
-5.58
-6.40
-7.87
-10.04
-12.51
-14.72
-16.23
-17.01
-17.47
-18.18
-19.48
-21.22
-22.79
-23.35
-22.28
-19.51
-15.56
-11.26
-7.40
-4.37
-2.06
-0.04
2.16
4.64
7.10
8.94
9.61
8.93
7.19
5.04
3.15
1.91
1.36
1.34
1.71
2.60
4.40
7.36
11.39
15.75
19.26
20.64
19.11
14.65
8.06
0.58
-6.62
-12.79
-17.76
-21.73
-24.91
-27.30
-28.69
-28.91
-28.02
-26.46
-24.82
-23.64
-23.07
-22.89
-22.68
-21.98
-20.50
-18.20
-15.12
-11.39
-7.18
-2.68
1.85
6.20
10.15
13.57
16.35
18.32
19.32
19.21
18.03
16.09
13.85
11.81
10.33
9.50
9.17
9.10
9.07
9.00
8.96
9.06
9.36
9.84
10.38
10.78
10.83
10.42
9.39
7.62
5.00
1.41
-3.05
-8.10
-13.25
-18.04
-22.23
-25.90
-29.28
-32.46
-35.15
-36.53
-35.60
-31.63
-24.65
-15.63
-6.24
1.73
6.90
8.74
7.58
4.28
-0.07
-4.48
-8.17
-10.55
-11.23
-10.13
-7.49
-4.02
-0.77
1.17
1.04
-1.19
-4.71
-8.19
-10.27
-10.21
-8.27
-5.55
-3.52
-3.26
-5.03
-8.17
-11.60
-14.46
-16.66
-18.91
-22.26
-27.39
-34.12
-41.33
-47.44
-51.05
-51.53
-49.16
-44.85
-39.69
-34.60
-30.09
-26.24
-22.68
-18.39
-11.50
0.56
20.50
50.02
88.45
131.84
173.31
204.79
219.61
214.94
192.83
159.28
121.94
87.36
59.26
38.29
23.12
12.05
4.01
-1.37
-4.30
-5.47
-6.15
-7.65
-10.63
-14.67
-18.41
-20.29
-19.30
-15.48
-10.00
-4.60
-0.82
0.50
-0.53
-3.13
-6.33
-9.48
-12.40
-15.39
-18.92
-23.26
-28.32
-33.55
-38.19
-41.45
-42.94
-42.68
-41.13
-38.89
-36.48
-34.15
-31.87
-29.44
-26.67
-23.42
-19.58
-15.16
-10.28
-5.26
-0.64
3.02
5.30
6.12
5.72
4.64
3.43
2.57
2.51
3.56
5.95
9.66
14.29
19.03
22.82
24.64
23.91
20.63
15.41
9.28
3.33
-1.57
-4.96
-6.82
-7.48
-7.43
-7.25
-7.39
-8.17
-9.68
-11.84
-14.33
-16.70
-18.40
-18.90
-17.85
-15.22
-11.32
-6.75
-2.30
1.40
3.96
5.39
6.03
6.34
6.77
7.48
8.42
9.37
10.13
10.59
10.78
10.83
10.82
10.76
10.52
9.93
8.91
7.52
5.98
4.59
3.56
2.90
2.46
1.94
1.11
-0.12
-1.70
-3.48
-5.21
-6.75
-8.04
-9.14
-10.26
-11.57
-13.21
-15.14
-17.20
-19.14
-20.71
-21.78
-22.26
-22.10
-21.23
-19.51
-16.90
-13.52
-9.66
-5.76
-2.22
0.72
3.07
5.03
6.83
8.58
10.20
11.48
12.20
12.29
11.92
11.39
11.02
10.99
11.24
11.55
11.67
11.49
11.03
10.38
9.65
8.82
7.82
6.58
5.14
3.64
2.27
1.08
0.00
-1.17
-2.63
-4.42
-6.40
-8.31
-9.97
-11.34
-12.61
-14.00
-15.61
-17.28
-18.63
-19.20
-18.70
-17.10
-14.65
-11.64
-8.39
-5.06
-1.77
1.38
4.25
6.67
8.56
9.94
10.88
11.56
12.10
12.56
12.95
13.20
13.23
12.96
12.39
11.59
10.68
9.82
9.16
8.82
8.79
8.96
9.14
9.13
8.72
7.80
6.41
4.68
2.83
1.09
-0.36
-1.42
-2.15
-2.71
-3.40
-4.49
-6.11
-8.27
-10.72
-13.16
-15.33
-17.08
-18.38
-19.25
-19.62
-19.37
-18.35
-16.46
-13.81
-10.68
-7.48
-4.60
-2.28
-0.57
0.62
1.45
2.08
2.56
2.87
3.00
3.02
3.03
3.17
3.44
3.67
3.64
3.19
2.38
1.46
0.70
0.30
0.23
0.27
0.24
0.01
-0.40
-0.88
-1.32
-1.73
-2.20
-2.82
-3.64
-4.58
-5.52
-6.38
-7.16
-7.97
-8.98
-10.31
-11.95
-13.69
-15.27
-16.34
-16.65
-16.07
-14.64
-12.51
-9.92
-7.11
-4.28
-1.50
1.21
3.91
6.58
9.09
11.22
12.72
13.47
13.55
13.23
12.81
12.52
12.36
12.18
11.78
11.08
10.17
9.26
8.56
8.11
7.76
7.29
6.50
5.33
3.91
2.45
1.11
0.02
-0.83
-1.48
-1.94
-2.25
-2.47
-2.69
-3.08
-3.81
-5.00
-6.70
-8.88
-11.35
-13.88
-16.13
-17.84
-18.77
-18.90
-18.27
-17.02
-15.25
-13.04
-10.44
-7.62
-4.78
-2.12
0.26
2.39
4.35
6.18
7.82
9.13
10.04
10.59
10.95
11.30
11.69
12.04
12.19
12.07
11.78
11.48
11.35
11.40
11.45
11.23
10.54
9.37
7.93
6.52
5.40
4.66
4.22
3.89
3.52
3.04
2.45
1.73
0.82
-0.43
-2.07
-3.98
-5.89
-7.50
-8.60
-9.25
-9.73
-10.41
-11.52
-13.04
-14.71
-16.09
-16.78
-16.57
-15.49
-13.73
-11.52
-9.04
-6.35
-3.49
-0.53
2.36
4.94
7.07
8.69
9.92
10.90
11.72
12.34
12.68
12.71
12.50
12.21
11.98
11.86
11.78
11.66
11.47
11.27
11.11
10.96
10.70
10.16
9.30
8.17
6.98
5.89
5.01
4.26
3.55
2.78
1.98
1.23
0.62
0.13
-0.36
-1.03
-2.00
-3.27
-4.75
-6.28
-7.78
-9.23
-10.72
-12.29
-13.87
-15.22
-16.00
-15.90
-14.79
-12.79
-10.22
-7.37
-4.51
-1.73
0.89
3.27
5.26
6.77
7.79
8.46
9.02
9.61
10.23
10.72
10.88
10.59
9.94
9.11
8.30
7.58
6.99
6.44
5.97
5.67
5.63
5.90
6.35
6.76
6.86
6.52
5.73
4.70
3.64
2.72
1.99
1.41
0.86
0.27
-0.37
-1.01
-1.59
-2.07
-2.45
-2.86
-3.47
-4.47
-5.98
-7.97
-10.22
-12.41
-14.17
-15.24
-15.44
-14.74
-13.25
-11.09
-8.52
-5.81
-3.25
-1.07
0.66
2.06
3.31
4.59
5.93
7.25
8.41
9.31
9.93
10.29
10.46
10.43
10.14
9.59
8.86
8.14
7.61
7.40
7.47
7.69
7.83
7.76
7.44
6.93
6.34
5.78
5.28
4.80
4.29
3.66
2.87
1.87
0.64
-0.80
-2.34
-3.82
-5.04
-5.90
-6.44
-6.84
-7.40
-8.30
-9.55
-10.97
-12.33
-13.44
-14.31
-14.97
-15.41
-15.42
-14.70
-12.95
-10.16
-6.68
-3.09
0.02
2.32
3.83
4.83
5.62
6.44
7.28
8.06
8.66
9.00
9.08
8.95
8.67
8.26
7.75
7.17
6.55
5.91
5.26
4.60
3.99
3.52
3.29
3.35
3.62
3.90
3.92
3.46
2.45
1.09
-0.25
-1.16
-1.42
-1.12
-0.62
-0.42
-0.91
-2.19
-4.05
-6.07
-7.81
-9.02
-9.68
-9.98
-10.21
-10.61
-11.29
-12.24
-13.28
-14.21
-14.79
-14.76
-13.94
-12.21
-9.61
-6.37
-2.87
0.47
3.27
5.33
6.60
7.24
7.45
7.47
7.47
7.51
7.59
7.66
7.69
7.76
7.96
8.34
8.85
9.27
9.34
8.94
8.11
7.14
6.34
5.93
5.81
5.71
5.32
4.49
3.30
2.02
0.94
0.21
-0.21
-0.50
-0.83
-1.33
-1.98
-2.73
-3.52
-4.33
-5.15
-6.01
-6.93
-7.92
-9.02
-10.29
-11.75
-13.32
-14.76
-15.79
-16.17
-15.77
-14.62
-12.83
-10.54
-7.82
-4.84
-1.78
1.08
3.49
5.26
6.40
7.06
7.43
7.68
7.90
8.05
8.11
8.04
7.87
7.65
7.41
7.15
6.83
6.36
5.67
4.80
3.84
3.00
2.48
2.39
2.65
3.01
3.19
2.96
2.29
1.27
0.14
-0.85
-1.58
-1.99
-2.13
-2.18
-2.31
-2.68
-3.42
-4.55
-6.00
-7.65
-9.29
-10.79
-12.06
-13.13
-14.03
-14.84
-15.48
-15.79
-15.48
-14.29
-12.16
-9.30
-6.13
-3.13
-0.62
1.34
2.92
4.37
5.83
7.30
8.64
9.71
10.41
10.71
10.60
10.13
9.37
8.49
7.70
7.21
7.09
7.23
7.43
7.46
7.23
6.72
6.05
5.27
4.40
3.44
2.40
1.41
0.62
0.15
0.03
0.13
0.28
0.26
-0.11
-0.89
-2.04
-3.41
-4.73
-5.73
-6.20
-6.10
-5.61
-5.13
-5.10
-5.92
-7.69
-10.19
-12.88
-15.04
-16.03
-15.52
-13.59
-10.72
-7.48
-4.39
-1.74
0.48
2.35
3.95
5.31
6.40
7.24
7.90
8.46
8.95
9.32
9.49
9.41
9.11
8.77
8.57
8.60
8.76
8.81
8.48
7.65
6.37
4.93
3.59
2.57
1.89
1.43
1.04
0.65
0.28
0.04
0.02
0.24
0.53
0.72
0.58
0.01
-0.99
-2.30
-3.75
-5.17
-6.40
-7.42
-8.23
-8.95
-9.73
-10.71
-11.99
-13.49
-14.99
-16.09
-16.40
-15.63
-13.76
-11.01
-7.79
-4.55
-1.66
0.63
2.19
3.06
3.43
3.61
3.91
4.59
5.70
7.03
8.28
9.14
9.46
9.34
9.03
8.77
8.71
8.85
9.07
9.25
9.21
8.85
8.08
6.89
5.40
3.83
2.46
1.51
1.04
0.90
0.80
0.46
-0.21
-1.14
-2.13
-3.03
-3.79
-4.52
-5.33
-6.27
-7.24
-8.12
-8.86
-9.53
-10.32
-11.40
-12.78
-14.26
-15.52
-16.21
-16.09
-15.07
-13.24
-10.82
-8.09
-5.28
-2.59
-0.12
2.12
4.10
5.84
7.30
8.43
9.20
9.64
9.83
9.84
9.70
9.44
9.12
8.86
8.81
8.99
9.33
9.59
9.58
9.20
8.55
7.88
7.40
7.16
6.97
6.51
5.55
4.10
2.45
1.01
0.10
-0.28
-0.38
-0.60
-1.27
-2.48
-4.00
-5.52
-6.74
-7.59
-8.24
-9.00
-10.18
-11.92
-14.07
-16.26
-17.98
-18.80
-18.42
-16.82
-14.18
-10.89
-7.34
-3.92
-0.96
1.35
3.01
4.16
5.02
5.79
6.54
7.23
7.78
8.13
8.30
8.37
8.44
8.53
8.57
8.47
8.18
7.75
7.29
6.93
6.76
6.78
6.96
7.18
7.33
7.25
6.74
5.70
4.14
2.23
0.25
-1.50
-2.82
-3.69
-4.24
-4.71
-5.21
-5.72
-6.14
-6.37
-6.50
-6.79
-7.58
-9.06
-11.14
-13.41
-15.28
-16.23
-16.03
-14.77
-12.83
-10.63
-8.43
-6.31
-4.19
-2.00
0.25
2.48
4.57
6.45
8.13
9.61
10.80
11.55
11.70
11.22
10.32
9.35
8.70
8.60
8.99
9.60
10.02
9.93
9.25
8.09
6.76
5.55
4.65
4.08
3.74
3.47
3.14
2.69
2.14
1.56
0.97
0.33
-0.45
-1.48
-2.80
-4.34
-5.98
-7.53
-8.90
-10.07
-11.15
-12.32
-13.74
-15.40
-17.09
-18.42
-18.92
-18.26
-16.33
-13.36
-9.73
-5.93
-2.40
0.59
2.94
4.70
5.97
6.87
7.48
7.84
7.96
7.89
7.77
7.70
7.83
8.17
8.62
9.02
9.21
9.16
8.96
8.83
8.89
9.11
9.34
9.31
8.87
8.01
6.93
5.84
4.91
4.13
3.39
2.57
1.63
0.60
-0.45
-1.46
-2.48
-3.60
-4.85
-6.20
-7.59
-8.97
-10.39
-11.92
-13.57
-15.21
-16.60
-17.43
-17.50
-16.72
-15.11
-12.78
-9.87
-6.56
-3.11
0.20
3.11
5.45
7.18
8.40
9.26
9.91
10.47
11.01
11.52
11.99
12.30
12.33
11.96
11.18
10.13
9.10
8.34
8.02
8.06
8.18
8.04
7.47
6.50
5.37
4.33
3.54
2.93
2.32
1.50
0.43
-0.84
-2.18
-3.52
-4.82
-6.07
-7.21
-8.21
-9.07
-9.91
-10.97
-12.44
-14.39
-16.60
-18.65
-20.02
-20.29
-19.29
-17.12
-14.17
-10.90
-7.67
-4.71
-2.03
0.45
2.82
5.10
7.28
9.27
11.02
12.49
13.66
14.52
15.01
15.07
14.67
13.88
12.86
11.85
11.10
10.79
10.94
11.38
11.84
11.96
11.53
10.55
9.20
7.77
6.49
5.44
4.58
3.81
3.07
2.36
1.65
0.87
-0.11
-1.37
-2.92
-4.62
-6.26
-7.71
-9.01
-10.39
-12.06
-14.14
-16.44
-18.60
-20.12
-20.59
-19.82
-17.83
-14.87
-11.32
-7.62
-4.15
-1.21
1.08
2.83
4.25
5.60
7.05
8.66
10.32
11.86
13.12
14.03
14.59
14.84
14.87
14.72
14.38
13.89
13.26
12.61
12.05
11.66
11.44
11.24
10.85
10.13
9.05
7.81
6.67
5.83
5.33
4.97
4.50
3.67
2.43
0.85
-0.88
-2.56
-4.03
-5.16
-5.97
-6.57
-7.19
-8.11
-9.65
-11.89
-14.70
-17.71
-20.36
-22.11
-22.54
-21.56
-19.34
-16.29
-12.90
-9.59
-6.54
-3.78
-1.21
1.28
3.72
6.03
8.06
9.74
11.02
11.97
12.69
13.23
13.60
13.79
13.76
13.61
13.47
13.52
13.86
14.42
14.95
15.10
14.60
13.39
11.65
9.78
8.13
6.91
6.13
5.62
5.15
4.52
3.64
2.52
1.20
-0.26
-1.81
-3.37
-4.92
-6.45
-8.00
-9.67
-11.52
-13.58
-15.81
-17.99
-19.88
-21.18
-21.61
-21.00
-19.32
-16.71
-13.43
-9.80
-6.16
-2.70
0.46
3.32
5.91
8.21
10.19
11.77
12.93
13.73
14.26
14.65
14.96
15.18
15.25
15.10
14.71
14.09
13.34
12.53
11.76
11.10
10.59
10.23
9.96
9.68
9.23
8.54
7.59
6.49
5.41
4.49
3.76
3.13
2.37
1.30
-0.20
-2.03
-3.93
-5.56
-6.73
-7.46
-8.04
-8.88
-10.23
-12.09
-14.20
-16.17
-17.71
-18.66
-19.06
-18.94
-18.31
-17.04
-15.02
-12.26
-8.92
-5.33
-1.88
1.18
3.71
5.74
7.39
8.79
10.01
11.02
11.74
12.14
12.28
12.31
12.45
12.81
13.36
13.88
14.17
14.05
13.51
12.69
11.77
10.90
10.17
9.59
9.17
8.84
8.50
7.96
7.06
5.73
4.02
2.17
0.46
-0.91
-1.90
-2.63
-3.28
-4.00
-4.85
-5.79
-6.77
-7.78
-8.85
-10.09
-11.61
-13.48
-15.69
-18.03
-20.11
-21.48
-21.78
-20.87
-18.90
-16.18
-13.07
-9.82
-6.56
-3.40
-0.44
2.19
4.42
6.31
8.00
9.61
11.11
12.36
13.16
13.42
13.25
12.86
12.46
12.13
11.81
11.40
10.87
10.31
9.84
9.54
9.33
9.06
8.54
7.72
6.66
5.53
4.52
3.76
3.28
3.03
2.87
2.68
2.34
1.81
1.10
0.22
-0.82
-2.03
-3.42
-4.98
-6.59
-8.09
-9.33
-10.26
-10.93
-11.47
-12.02
-12.58
-13.05
-13.23
-12.90
-11.88
-10.09
-7.62
-4.68
-1.60
1.26
3.66
5.50
6.83
7.71
8.23
8.40
8.24
7.87
7.45
7.24
7.33
7.69
8.08
8.29
8.20
7.91
7.64
7.58
7.80
8.10
8.17
7.70
6.56
4.84
2.86
1.06
-0.26
-0.96
-1.23
-1.38
-1.76
-2.54
-3.66
-4.86
-5.88
-6.60
-7.09
-7.60
-8.36
-9.44
-10.70
-11.97
-13.10
-14.10
-15.04
-15.94
-16.62
-16.73
-15.89
-13.95
-11.02
-7.53
-3.95
-0.66
2.16
4.52
6.44
7.91
8.84
9.24
9.19
8.96
8.85
9.06
9.60
10.26
10.73
10.79
10.41
9.78
9.17
8.79
8.65
8.58
8.31
7.65
6.59
5.32
4.11
3.23
2.85
2.96
3.42
3.97
4.33
4.26
3.63
2.45
0.91
-0.72
-2.17
-3.30
-4.11
-4.77
-5.46
-6.36
-7.52
-8.92
-10.44
-11.98
-13.37
-14.44
-14.98
-14.83
-13.90
-12.24
-10.12
-7.89
-5.88
-4.17
-2.66
-1.10
0.70
2.69
4.65
6.20
7.15
7.45
7.36
7.18
7.15
7.30
7.49
7.53
7.32
6.97
6.62
6.45
6.47
6.54
6.49
6.21
5.73
5.20
4.78
4.49
4.19
3.70
2.90
1.82
0.65
-0.44
-1.35
-2.13
-2.88
-3.65
-4.43
-5.13
-5.73
-6.27
-6.90
-7.76
-8.94
-10.39
-12.02
-13.74
-15.50
-17.28
-18.90
-20.08
-20.36
-19.38
-17.03
-13.51
-9.42
-5.41
-2.05
0.44
2.18
3.49
4.74
6.09
7.47
8.65
9.37
9.53
9.19
8.58
7.97
7.59
7.52
7.73
8.10
8.52
8.90
9.14
9.16
8.84
8.15
7.12
5.91
4.75
3.86
3.29
2.97
2.71
2.29
1.57
0.54
-0.70
-2.04
-3.33
-4.49
-5.47
-6.33
-7.19
-8.23
-9.58
-11.27
-13.17
-15.00
-16.39
-17.02
-16.69
-15.41
-13.33
-10.76
-8.03
-5.40
-3.02
-0.85
1.23
3.31
5.37
7.27
8.84
9.92
10.49
10.58
10.28
9.70
8.99
8.32
7.87
7.76
8.01
8.49
8.99
9.32
9.41
9.27
8.95
8.52
7.96
7.27
6.44
5.49
4.50
3.52
2.59
1.69
0.73
-0.37
-1.70
-3.28
-5.02
-6.72
-8.15
-9.17
-9.83
-10.39
-11.23
-12.57
-14.38
-16.29
-17.78
-18.40
-17.95
-16.51
-14.39
-11.89
-9.25
-6.66
-4.20
-1.99
-0.12
1.41
2.67
3.76
4.77
5.71
6.51
7.09
7.42
7.53
7.53
7.52
7.62
7.92
8.42
9.07
9.69
10.03
9.82
8.93
7.39
5.41
3.37
1.60
0.32
-0.37
-0.53
-0.26
0.22
0.65
0.75
0.29
-0.82
-2.48
-4.38
-6.18
-7.52
-8.29
-8.62
-8.84
-9.33
-10.32
-11.80
-13.44
-14.78
-15.41
-15.08
-13.86
-12.03
-9.94
-7.85
-5.81
-3.77
-1.63
0.54
2.59
4.32
5.59
6.38
6.78
6.91
6.80
6.45
5.90
5.28
4.84
4.83
5.31
6.18
7.08
7.67
7.75
7.32
6.60
5.86
5.26
4.86
4.57
4.27
3.88
3.33
2.61
1.67
0.51
-0.83
-2.25
-3.63
-4.94
-6.21
-7.63
-9.31
-11.32
-13.45
-15.39
-16.74
-17.15
-16.48
-14.75
-12.18
-9.14
-6.03
-3.23
-0.99
0.61
1.70
2.50
3.28
4.18
5.22
6.34
7.39
8.20
8.67
8.76
8.55
8.21
7.96
7.89
8.02
8.23
8.37
8.38
8.28
8.13
7.93
7.53
6.77
5.53
3.89
2.09
0.43
-0.88
-1.83
-2.61
-3.44
-4.48
-5.68
-6.91
-8.00
-8.87
-9.59
-10.36
-11.36
-12.66
-14.14
-15.43
-16.06
-15.69
-14.15
-11.65
-8.61
-5.52
-2.69
-0.16
2.21
4.55
6.80
8.71
9.91
10.18
9.64
8.64
7.67
7.10
7.06
7.37
7.81
8.14
8.29
8.30
8.25
8.17
8.02
7.73
7.20
6.38
5.26
3.90
2.40
0.92
-0.42
-1.51
-2.35
-3.04
-3.71
-4.49
-5.42
-6.43
-7.45
-8.44
-9.49
-10.79
-12.48
-14.55
-16.81
-18.84
-20.22
-20.65
-20.06
-18.60
-16.56
-14.18
-11.63
-8.98
-6.24
-3.49
-0.80
1.70
3.96
5.98
7.81
9.44
10.82
11.81
12.33
12.33
11.92
11.30
10.75
10.46
10.50
10.79
11.12
11.26
11.07
10.54
9.80
8.93
8.03
7.03
5.90
4.63
3.38
2.38
1.78
1.61
1.68
1.73
1.52
0.98
0.15
-0.86
-2.05
-3.53
-5.47
-7.93
-10.74
-13.44
-15.42
-16.17
-15.44
-13.39
-10.49
-7.33
-4.34
-1.70
0.61
2.71
4.66
6.37
7.71
8.59
9.06
9.25
9.34
9.41
9.43
9.36
9.15
8.84
8.45
8.01
7.53
6.99
6.47
6.08
5.91
6.01
6.26
6.46
6.40
5.98
5.27
4.48
3.80
3.31
2.92
2.41
1.60
0.41
-1.05
-2.58
-3.96
-5.09
-6.05
-7.05
-8.34
-10.02
-11.98
-13.90
-15.38
-16.06
-15.76
-14.57
-12.73
-10.53
-8.24
-5.99
-3.80
-1.63
0.58
2.77
4.86
6.72
8.24
9.39
10.14
10.60
10.83
10.90
10.87
10.79
10.65
10.48
10.28
10.08
9.93
9.86
9.86
9.84
9.68
9.24
8.48
7.45
6.33
5.29
4.41
3.65
2.90
2.03
0.92
-0.43
-1.96
-3.59
-5.24
-6.77
-8.11
-9.24
-10.21
-11.13
-12.12
-13.25
-14.51
-15.78
-16.91
-17.72
-18.05
-17.75
-16.72
-14.93
-12.44
-9.49
-6.37
-3.42
-0.83
1.33
3.13
4.65
5.96
7.02
7.74
8.08
8.09
7.91
7.78
7.91
8.34
9.02
9.72
10.26
10.49
10.40
10.07
9.57
8.95
8.19
7.23
6.07
4.81
3.64
2.79
2.40
2.43
2.70
2.91
2.86
2.46
1.81
1.09
0.46
-0.02
-0.40
-0.83
-1.44
-2.28
-3.35
-4.64
-6.09
-7.64
-9.17
-10.50
-11.43
-11.75
-11.31
-10.12
-8.31
-6.12
-3.88
-1.84
-0.17
1.15
2.20
3.10
3.89
4.51
4.87
4.92
4.75
4.54
4.49
4.69
5.14
5.74
6.39
7.00
7.50
7.84
7.98
7.91
7.63
7.17
6.61
5.90
5.02
3.91
2.68
1.52
0.72
0.41
0.55
0.84
0.90
0.49
-0.39
-1.52
-2.61
-3.51
-4.24
-4.98
-5.90
-7.05
-8.31
-9.50
-10.51
-11.31
-11.93
-12.41
-12.64
-12.45
-11.69
-10.33
-8.52
-6.53
-4.61
-2.87
-1.29
0.24
1.83
3.49
5.08
6.40
7.31
7.80
7.99
8.03
8.08
8.14
8.16
8.02
7.72
7.30
6.94
6.72
6.69
6.70
6.60
6.22
5.53
4.61
3.64
2.75
2.02
1.45
0.94
0.39
-0.31
-1.18
-2.14
-3.06
-3.81
-4.34
-4.72
-5.05
-5.44
-5.93
-6.48
-7.08
-7.72
-8.51
-9.52
-10.75
-12.03
-13.08
-13.58
-13.29
-12.17
-10.38
-8.24
-6.08
-4.15
-2.56
-1.21
0.05
1.38
2.77
4.05
4.94
5.22
4.83
4.02
3.15
2.60
2.53
2.84
3.26
3.53
3.53
3.31
3.02
2.77
2.61
2.48
2.37
2.30
2.32
2.47
2.64
2.70
2.47
1.88
0.96
-0.15
-1.27
-2.30
-3.16
-3.86
-4.40
-4.84
-5.24
-5.67
-6.15
-6.69
-7.26
-7.81
-8.34
-8.83
-9.21
-9.32
-8.96
-7.96
-6.33
-4.30
-2.22
-0.46
0.84
1.75
2.54
3.43
4.49
5.59
6.51
7.07
7.21
7.00
6.58
6.04
5.51
5.14
5.07
5.39
5.97
6.53
6.74
6.37
5.48
4.36
3.37
2.75
2.46
2.31
2.12
1.81
1.45
1.14
0.87
0.48
-0.23
-1.35
-2.74
-4.11
-5.19
-5.86
-6.29
-6.77
-7.65
-9.05
-10.79
-12.46
-13.58
-13.78
-12.97
-11.27
-8.98
-6.44
-3.96
-1.70
0.20
1.68
2.72
3.35
3.62
3.69
3.74
3.90
4.22
4.64
5.04
5.29
5.27
4.99
4.56
4.21
4.15
4.51
5.25
6.17
6.93
7.25
6.99
6.23
5.21
4.25
3.51
2.96
2.42
1.71
0.73
-0.46
-1.68
-2.76
-3.62
-4.27
-4.79
-5.33
-6.00
-6.85
-7.90
-9.13
-10.46
-11.75
-12.83
-13.51
-13.62
-13.08
-11.90
-10.21
-8.21
-6.13
-4.20
-2.53
-1.22
-0.23
0.49
1.02
1.48
1.95
2.46
3.01
3.55
4.02
4.39
4.67
4.88
5.06
5.16
5.15
5.01
4.81
4.62
4.51
4.41
4.16
3.54
2.45
1.01
-0.49
-1.68
-2.34
-2.49
-2.30
-2.06
-1.96
-2.05
-2.28
-2.59
-2.95
-3.39
-3.92
-4.56
-5.35
-6.33
-7.54
-8.95
-10.34
-11.36
-11.63
-10.89
-9.22
-6.97
-4.59
-2.50
-0.87
0.35
1.37
2.37
3.44
4.50
5.41
6.07
6.40
6.44
6.29
6.14
6.15
6.44
7.04
7.86
8.70
9.33
9.54
9.23
8.44
7.32
6.10
5.03
4.26
3.82
3.61
3.43
3.08
2.45
1.55
0.49
-0.59
-1.61
-2.60
-3.62
-4.76
-6.03
-7.41
-8.82
-10.20
-11.51
-12.72
-13.71
-14.31
-14.30
-13.52
-11.95
-9.77
-7.28
-4.88
-2.83
-1.23
-0.01
1.05
2.09
3.20
4.29
5.26
6.00
6.47
6.68
6.65
6.43
6.11
5.79
5.61
5.67
5.99
6.46
6.90
7.09
6.92
6.42
5.73
5.04
4.51
4.18
4.00
3.84
3.57
3.04
2.21
1.11
-0.13
-1.33
-2.32
-3.03
-3.52
-3.97
-4.57
-5.49
-6.77
-8.34
-10.11
-11.90
-13.48
-14.56
-14.87
-14.22
-12.62
-10.36
-7.85
-5.51
-3.53
-1.92
-0.52
0.82
2.12
3.32
4.27
4.91
5.31
5.57
5.83
6.12
6.38
6.54
6.54
6.43
6.32
6.30
6.36
6.44
6.39
6.13
5.65
5.05
4.45
3.90
3.36
2.73
1.93
0.95
-0.09
-1.09
-1.95
-2.67
-3.30
-3.92
-4.58
-5.27
-5.95
-6.64
-7.42
-8.40
-9.66
-11.16
-12.74
-14.14
-15.05
-15.24
-14.59
-13.12
-10.97
-8.39
-5.66
-3.09
-0.94
0.64
1.67
2.31
2.81
3.39
4.15
5.06
6.01
6.81
7.36
7.62
7.70
7.74
7.85
8.06
8.26
8.27
7.93
7.24
6.31
5.36
4.62
4.17
3.96
3.81
3.55
3.07
2.37
1.59
0.87
0.29
-0.11
-0.41
-0.72
-1.14
-1.68
-2.31
-3.00
-3.73
-4.59
-5.67
-7.02
-8.47
-9.71
-10.33
-10.01
-8.64
-6.42
-3.75
-1.11
1.15
2.88
4.16
5.13
5.96
6.73
7.41
7.96
8.33
8.53
8.62
8.66
8.65
8.55
8.36
8.12
7.92
7.86
7.95
8.10
8.15
7.94
7.40
6.56
5.56
4.59
3.82
3.31
2.99
2.71
2.27
1.53
0.48
-0.78
-2.05
-3.20
-4.13
-4.87
-5.54
-6.28
-7.23
-8.47
-10.05
-11.88
-13.80
-15.48
-16.58
-16.81
-16.07
-14.49
-12.34
-9.94
-7.53
-5.24
-3.07
-0.97
1.09
3.08
4.89
6.36
7.32
7.71
7.59
7.21
6.85
6.78
7.08
7.63
8.20
8.56
8.62
8.41
8.04
7.57
6.97
6.20
5.28
4.33
3.56
3.12
3.00
3.08
3.13
2.93
2.37
1.42
0.19
-1.18
-2.55
-3.81
-4.94
-6.01
-7.16
-8.52
-10.18
-12.07
-14.01
-15.73
-16.97
-17.55
-17.38
-16.48
-14.91
-12.78
-10.26
-7.63
-5.15
-3.08
-1.51
-0.36
0.62
1.67
2.94
4.36
5.72
6.80
7.51
7.91
8.14
8.37
8.62
8.82
8.94
8.94
8.87
8.79
8.68
8.51
8.25
7.90
7.56
7.31
7.12
6.88
6.42
5.64
4.60
3.44
2.38
1.50
0.76
-0.06
-1.12
-2.51
-4.14
-5.80
-7.30
-8.56
-9.64
-10.61
-11.47
-12.09
-12.18
-11.49
-9.94
-7.66
-4.99
-2.34
0.02
1.98
3.62
5.07
6.35
7.39
8.02
8.14
7.80
7.30
6.94
6.96
7.36
7.93
8.37
8.45
8.16
7.71
7.31
7.07
6.95
6.72
6.20
5.38
4.40
3.50
2.86
2.48
2.18
1.72
0.89
-0.32
-1.77
-3.19
-4.39
-5.28
-5.94
-6.52
-7.18
-8.07
-9.23
-10.67
-12.31
-13.97
-15.44
-16.42
-16.63
-15.91
-14.30
-12.00
-9.35
-6.68
-4.23
-2.10
-0.26
1.38
2.88
4.26
5.50
6.55
7.35
7.87
8.07
8.00
7.74
7.45
7.29
7.32
7.53
7.78
7.99
8.07
8.07
8.05
8.05
8.08
8.05
7.87
7.46
6.81
5.96
4.97
3.90
2.82
1.79
0.85
-0.01
-0.86
-1.83
-3.01
-4.36
-5.77
-7.05
-8.11
-9.00
-9.91
-11.06
-12.52
-14.11
-15.45
-16.11
-15.78
-14.42
-12.21
-9.52
-6.70
-4.03
-1.63
0.53
2.53
4.44
6.25
7.85
9.06
9.75
9.90
9.63
9.16
8.72
8.50
8.53
8.79
9.16
9.51
9.71
9.64
9.27
8.59
7.71
6.75
5.88
5.17
4.63
4.15
3.61
2.93
2.11
1.27
0.49
-0.19
-0.82
-1.57
-2.55
-3.77
-5.12
-6.42
-7.51
-8.39
-9.13
-9.87
-10.73
-11.72
-12.81
-13.91
-14.93
-15.75
-16.21
-16.16
-15.45
-14.01
-11.91
-9.35
-6.60
-3.94
-1.52
0.60
2.54
4.41
6.24
7.96
9.37
10.31
10.72
10.74
10.59
10.48
10.48
10.48
10.34
10.01
9.56
9.19
9.04
9.12
9.27
9.27
9.00
8.48
7.89
7.40
7.07
6.85
6.60
6.25
5.77
5.24
4.67
4.04
3.27
2.29
1.13
-0.09
-1.25
-2.23
-3.06
-3.82
-4.67
-5.71
-6.92
-8.20
-9.28
-9.88
-9.73
-8.79
-7.25
-5.50
-3.94
-2.82
-2.10
-1.50
-0.70
0.52
2.07
3.66
4.96
5.70
5.87
5.61
5.18
4.82
4.68
4.78
5.02
5.29
5.46
5.46
5.29
4.97
4.56
4.06
3.47
2.79
2.05
1.32
0.65
0.07
-0.44
-1.01
-1.73
-2.65
-3.75
-4.91
-6.03
-7.02
-7.83
-8.46
-8.97
-9.41
-9.94
-10.65
-11.65
-12.88
-14.12
-15.01
-15.20
-14.49
-12.94
-10.82
-8.50
-6.28
-4.34
-2.68
-1.19
0.23
1.64
3.07
4.45
5.73
6.79
7.53
7.90
7.90
7.61
7.16
6.70
6.35
6.17
6.16
6.27
6.42
6.51
6.49
6.30
5.87
5.20
4.31
3.27
2.24
1.35
0.71
0.30
0.02
-0.33
-0.91
-1.83
-3.07
-4.49
-5.86
-6.96
-7.63
-7.85
-7.72
-7.50
-7.44
-7.70
-8.36
-9.35
-10.53
-11.68
-12.57
-12.96
-12.63
-11.53
-9.76
-7.65
-5.59
-3.90
-2.67
-1.73
-0.79
0.41
1.91
3.53
4.98
6.00
6.51
6.61
6.55
6.48
6.53
6.67
6.86
7.01
7.16
7.31
7.51
7.74
7.93
8.03
7.96
7.66
7.16
6.45
5.56
4.54
3.45
2.39
1.40
0.49
-0.37
-1.22
-2.08
-2.91
-3.60
-4.08
-4.33
-4.44
-4.55
-4.79
-5.26
-6.03
-7.11
-8.50
-10.10
-11.69
-12.89
-13.30
-12.67
-11.01
-8.64
-6.06
-3.72
-1.84
-0.41
0.73
1.75
2.75
3.68
4.48
5.11
5.61
6.09
6.60
7.14
7.61
7.86
7.77
7.38
6.83
6.32
6.01
5.93
5.96
5.94
5.72
5.26
4.63
3.94
3.31
2.74
2.22
1.73
1.26
0.79
0.30
-0.27
-0.96
-1.81
-2.76
-3.77
-4.77
-5.76
-6.74
-7.72
-8.69
-9.65
-10.62
-11.63
-12.66
-13.59
-14.16
-14.06
-13.09
-11.24
-8.77
-6.09
-3.56
-1.41
0.41
2.07
3.76
5.51
7.20
8.60
9.44
9.62
9.21
8.48
7.74
7.27
7.16
7.38
7.72
7.99
8.09
7.98
7.74
7.45
7.14
6.80
6.41
5.94
5.35
4.71
4.01
3.32
2.66
2.04
1.41
0.68
-0.25
-1.38
-2.64
-3.84
-4.78
-5.35
-5.61
-5.73
-5.99
-6.55
-7.51
-8.80
-10.32
-11.91
-13.39
-14.55
-15.16
-15.01
-14.03
-12.31
-10.13
-7.81
-5.66
-3.83
-2.38
-1.28
-0.44
0.29
1.08
2.09
3.37
4.80
6.12
7.00
7.29
7.02
6.43
5.80
5.35
5.13
5.08
5.09
5.09
5.03
4.94
4.80
4.58
4.25
3.77
3.18
2.56
2.00
1.59
1.35
1.22
1.06
0.72
0.12
-0.75
-1.82
-3.00
-4.19
-5.34
-6.39
-7.30
-8.03
-8.60
-9.06
-9.50
-10.04
-10.73
-11.59
-12.54
-13.41
-13.99
-14.07
-13.47
-12.17
-10.24
-7.89
-5.38
-2.95
-0.79
1.03
2.53
3.77
4.89
5.96
7.06
8.15
9.17
9.99
10.53
10.74
10.68
10.41
10.00
9.52
9.02
8.54
8.14
7.90
7.85
7.95
8.06
8.02
7.73
7.18
6.49
5.82
5.28
4.89
4.58
4.21
3.66
2.84
1.77
0.54
-0.69
-1.73
-2.49
-2.96
-3.33
-3.86
-4.77
-6.12
-7.76
-9.40
-10.74
-11.58
-11.82
-11.49
-10.60
-9.18
-7.33
-5.18
-2.93
-0.78
1.11
2.68
3.96
4.99
5.80
6.40
6.77
6.97
7.06
7.14
7.34
7.68
8.15
8.67
9.14
9.52
9.82
10.08
10.31
10.47
10.44
10.08
9.37
8.38
7.32
6.36
5.61
5.00
4.38
3.60
2.58
1.39
0.21
-0.83
-1.67
-2.33
-2.90
-3.46
-4.04
-4.72
-5.51
-6.49
-7.69
-9.09
-10.58
-11.97
-13.03
-13.54
-13.40
-12.59
-11.18
-9.36
-7.33
-5.34
-3.58
-2.15
-1.03
-0.08
0.88
1.97
3.21
4.51
5.67
6.56
7.10
7.36
7.44
7.43
7.36
7.20
6.97
6.69
6.46
6.34
6.30
6.25
6.11
5.82
5.40
4.86
4.24
3.52
2.76
2.03
1.46
1.11
0.94
0.80
0.54
0.05
-0.67
-1.49
-2.29
-2.95
-3.47
-3.90
-4.35
-4.93
-5.72
-6.73
-7.94
-9.22
-10.36
-11.15
-11.40
-11.03
-10.09
-8.72
-7.09
-5.43
-3.92
-2.63
-1.54
-0.48
0.70
2.10
3.62
5.05
6.14
6.75
6.95
6.96
7.02
7.28
7.65
7.88
7.76
7.20
6.37
5.55
4.94
4.63
4.52
4.46
4.32
4.07
3.69
3.19
2.56
1.79
0.90
-0.01
-0.79
-1.35
-1.63
-1.70
-1.65
-1.63
-1.82
-2.35
-3.33
-4.74
-6.40
-8.04
-9.33
-10.05
-10.10
-9.56
-8.55
-7.22
-5.71
-4.11
-2.49
-0.94
0.52
1.89
3.23
4.58
5.91
7.08
7.90
8.18
7.88
7.16
6.28
5.56
5.24
5.33
5.72
6.18
6.49
6.51
6.23
5.70
5.02
4.23
3.34
2.31
1.14
-0.13
-1.36
-2.40
-3.17
-3.70
-4.14
-4.76
-5.79
-7.29
-9.17
-11.13
-12.85
-14.04
-14.60
-14.62
-14.37
-14.23
-14.51
-15.39
-16.83
-18.58
-20.21
-21.32
-21.59
-20.91
-19.38
-17.20
-14.63
-11.88
-9.05
-6.19
-3.29
-0.45
2.18
4.45
6.20
7.46
8.38
9.21
10.19
11.47
13.05
14.78
16.51
18.11
19.59
21.08
22.71
24.56
26.52
28.35
29.73
30.43
30.33
29.53
28.24
26.72
25.22
23.84
22.51
21.03
19.13
16.61
13.43
9.78
6.09
2.83
0.35
-1.27
-2.24
-2.97
-3.83
-5.01
-6.46
-7.92
-9.08
-9.71
-9.72
-9.20
-8.34
-7.35
-6.34
-5.31
-4.16
-2.78
-1.14
0.65
2.38
3.76
4.63
4.90
4.66
4.03
3.17
2.19
1.14
0.08
-0.93
-1.83
-2.61
-3.27
-3.86
-4.44
-5.07
-5.77
-6.58
-7.52
-8.67
-10.03
-11.57
-13.19
-14.71
-15.99
-16.93
-17.47
-17.66
-17.57
-17.31
-17.08
-17.03
-17.26
-17.73
-18.30
-18.79
-19.11
-19.26
-19.33
-19.36
-19.27
-18.86
-17.90
-16.30
-14.17
-11.78
-9.43
-7.26
-5.25
-3.23
-1.08
1.20
3.45
5.48
7.10
8.33
9.22
9.94
10.58
11.26
11.96
12.69
13.34
13.80
13.92
13.65
13.06
12.26
11.40
10.48
9.39
7.97
6.16
4.13
2.22
0.77
-0.10
-0.60
-1.16
-2.23
-4.01
-6.33
-8.76
-10.78
-12.04
-12.54
-12.59
-12.70
-13.30
-14.63
-16.59
-18.76
-20.57
-21.49
-21.17
-19.60
-17.12
-14.22
-11.43
-9.13
-7.41
-6.18
-5.18
-4.19
-3.10
-1.95
-0.84
0.13
0.94
1.67
2.40
3.18
3.93
4.51
4.80
4.73
4.40
3.99
3.71
3.70
3.97
4.37
4.71
4.82
4.65
4.26
3.75
3.23
2.69
2.08
1.33
0.48
-0.38
-1.10
-1.66
-2.17
-2.82
-3.80
-5.14
-6.68
-8.12
-9.16
-9.58
-9.34
-8.46
-6.99
-5.03
-2.69
-0.21
2.13
4.07
5.47
6.41
7.11
7.78
8.56
9.43
10.26
10.88
11.19
11.14
10.80
10.25
9.59
8.92
8.33
7.86
7.53
7.28
7.03
6.69
6.23
5.66
5.06
4.48
3.93
3.34
2.68
1.91
1.08
0.32
-0.25
-0.59
-0.73
-0.85
-1.15
-1.78
-2.80
-4.14
-5.64
-7.09
-8.28
-9.07
-9.31
-8.90
-7.80
-6.06
-3.86
-1.48
0.73
2.52
3.78
4.60
5.15
5.65
6.22
6.87
7.56
8.22
8.84
9.39
9.85
10.16
10.24
10.02
9.53
8.88
8.23
7.72
7.43
7.31
7.19
6.88
6.21
5.10
3.69
2.23
0.99
0.18
-0.20
-0.35
-0.54
-1.03
-1.93
-3.15
-4.49
-5.71
-6.67
-7.30
-7.71
-7.99
-8.30
-8.73
-9.31
-9.99
-10.62
-11.00
-10.92
-10.17
-8.72
-6.64
-4.16
-1.59
0.73
2.59
3.90
4.77
5.40
5.98
6.63
7.35
8.00
8.48
8.70
8.67
8.44
8.05
7.52
6.87
6.18
5.60
5.30
5.37
5.77
6.36
6.91
7.27
7.35
7.17
6.79
6.24
5.56
4.82
4.05
3.29
2.51
1.63
0.55
-0.78
-2.33
-3.98
-5.59
-7.05
-8.28
-9.23
-9.86
-10.13
-10.00
-9.50
-8.71
-7.74
-6.68
-5.56
-4.32
-2.90
-1.22
0.74
2.90
5.07
6.98
8.39
9.16
9.30
9.04
8.68
8.51
8.73
9.30
10.09
10.84
11.36
11.56
11.47
11.23
11.00
10.86
10.79
10.65
10.27
9.48
8.23
6.60
4.80
3.11
1.74
0.83
0.37
0.25
0.37
0.68
1.10
1.47
1.56
1.00
-0.48
-2.97
-6.31
-10.03
-13.54
-16.19
-17.45
-16.93
-14.51
-10.39
-5.14
0.29
4.87
7.69
8.37
7.13
4.72
2.10
0.10
-0.80
-0.56
0.46
1.80
2.99
3.72
3.86
3.44
2.65
1.72
0.86
0.21
-0.27
-0.65
-1.12
-1.77
-2.60
-3.49
-4.29
-4.82
-5.05
-5.01
-4.79
-4.48
-4.16
-3.93
-3.96
-4.42
-5.44
-6.96
-8.74
-10.37
-11.51
-12.01
-12.01
-11.83
-11.85
-12.23
-12.90
-13.53
-13.69
-13.06
-11.52
-9.17
-6.29
-3.23
-0.35
2.02
3.65
4.43
4.42
3.97
3.59
3.85
5.15
7.49
10.48
13.38
15.46
16.22
15.58
13.88
11.66
9.48
7.76
6.68
6.25
6.33
6.74
7.29
7.80
8.15
8.21
7.90
7.16
5.99
4.48
2.81
1.18
-0.25
-1.50
-2.73
-4.21
-6.10
-8.43
-10.95
-13.27
-14.93
-15.60
-15.19
-13.86
-11.94
-9.84
-7.94
-6.45
-5.38
-4.61
-3.85
-2.93
-1.85
-0.79
-0.06
0.06
-0.52
-1.63
-2.87
-3.81
-4.13
-3.82
-3.11
-2.42
-2.11
-2.33
-2.99
-3.88
-4.85
-5.88
-7.06
-8.43
-9.90
-11.34
-12.69
-14.10
-15.76
-17.53
-18.65
-17.83
-13.79
-6.15
4.11
14.66
22.76
26.34
24.91
19.59
12.51
5.72
0.53
-2.71
-4.26
-4.45
-3.49
-1.50
1.20
3.92
5.74
5.91
4.24
1.23
-2.05
-4.44
-5.20
-4.25
-2.17
0.14
1.91
2.74
2.75
2.44
2.43
3.11
4.50
6.18
7.51
7.90
7.07
5.17
2.73
0.44
-1.14
-1.75
-1.51
-0.76
0.06
0.60
0.69
0.27
-0.68
-2.17
-4.18
-6.62
-9.19
-11.51
-13.10
-13.61
-12.90
-11.11
-8.63
-5.90
-3.32
-1.15
0.51
1.70
2.55
3.21
3.76
4.18
4.41
4.38
4.16
3.92
3.88
4.17
4.78
5.56
6.25
6.64
6.65
6.27
5.60
4.77
3.93
3.24
2.85
2.79
3.00
3.23
3.23
2.86
2.14
1.25
0.46
-0.10
-0.41
-0.63
-1.01
-1.72
-2.84
-4.25
-5.69
-6.83
-7.41
-7.29
-6.49
-5.10
-3.30
-1.20
1.03
3.18
5.03
6.33
6.92
6.86
6.39
5.85
5.51
5.47
5.67
5.93
6.10
6.16
6.20
6.34
6.64
7.02
7.31
7.33
6.97
6.27
5.36
4.43
3.66
3.15
2.95
2.98
3.12
3.21
3.07
2.54
1.41
-0.50
-3.25
-6.68
-10.29
-13.24
-14.57
-13.54
-10.00
-4.63
1.22
5.93
8.17
7.33
3.68
-1.82
-7.80
-12.86
-15.80
-15.75
-12.34
-5.80
2.90
12.14
20.07
25.03
26.19
23.75
18.82
12.88
7.14
2.11
-2.42
-6.90
-11.42
-15.28
-17.06
-15.19
-8.88
1.22
13.04
23.60
30.03
30.52
24.76
13.87
-0.01
-14.23
-26.08
-33.13
-33.71
-27.47
-15.76
-1.60
11.06
18.49
18.43
10.91
-1.87
-16.27
-28.51
-35.76
-36.92
-32.61
-24.73
-15.73
-7.79
-2.33
0.23
0.32
-1.16
-3.16
-4.77
-5.38
-4.68
-2.66
0.33
3.69
6.66
8.62
9.25
8.68
7.46
6.25
5.58
5.65
6.33
7.28
8.14
8.63
8.61
8.08
7.12
5.92
4.73
3.77
3.17
2.92
2.87
2.83
2.64
2.23
1.57
0.67
-0.47
-1.88
-3.53
-5.24
-6.77
-7.82
-8.24
-8.01
-7.26
-6.18
-4.93
-3.59
-2.18
-0.73
0.75
2.15
3.34
4.19
4.63
4.68
4.48
4.22
4.13
4.33
4.75
5.18
5.32
4.98
4.20
3.25
2.51
2.21
2.38
2.77
3.05
2.97
2.51
1.82
1.15
0.66
0.39
0.21
-0.07
-0.55
-1.21
-1.90
-2.45
-2.75
-2.91
-3.16
-3.78
-4.97
-6.66
-8.58
-10.36
-11.66
-12.28
-12.25
-11.69
-10.76
-9.58
-8.19
-6.55
-4.66
-2.57
-0.42
1.54
3.05
4.00
4.41
4.54
4.69
5.09
5.82
6.79
7.90
9.10
10.43
11.90
13.35
14.48
14.95
14.60
13.55
12.18
10.89
9.96
9.35
8.86
8.26
7.39
6.21
4.76
3.08
1.21
-0.80
-2.83
-4.70
-6.29
-7.55
-8.58
-9.58
-10.78
-12.26
-13.98
-15.70
-17.05
-17.66
-17.30
-15.95
-13.84
-11.36
-8.92
-6.79
-5.08
-3.72
-2.55
-1.41
-0.26
0.85
1.81
2.48
2.84
2.97
3.02
3.17
3.48
3.92
4.39
4.79
5.07
5.26
5.40
5.50
5.51
5.38
5.09
4.72
4.36
4.11
3.95
3.77
3.35
2.53
1.29
-0.21
-1.69
-2.89
-3.73
-4.38
-5.12
-6.26
-7.89
-9.84
-11.71
-13.03
-13.49
-12.98
-11.61
-9.61
-7.24
-4.74
-2.31
-0.18
1.48
2.61
3.34
3.90
4.57
5.49
6.61
7.71
8.53
8.93
9.00
8.93
8.94
9.10
9.36
9.56
9.60
9.42
9.05
8.52
7.82
6.93
5.89
4.81
3.80
2.94
2.17
1.39
0.54
-0.40
-1.34
-2.20
-2.98
-3.78
-4.74
-5.93
-7.32
-8.82
-10.31
-11.66
-12.75
-13.41
-13.46
-12.77
-11.32
-9.22
-6.72
-4.08
-1.55
0.77
2.85
4.70
6.35
7.74
8.86
9.65
10.16
10.44
10.57
10.61
10.58
10.43
10.09
9.51
8.71
7.82
6.97
6.27
5.80
5.54
5.41
5.28
5.03
4.58
3.92
3.12
2.36
1.79
1.51
1.46
1.46
1.23
0.57
-0.57
-2.06
-3.71
-5.32
-6.84
-8.29
-9.73
-11.14
-12.41
-13.31
-13.58
-13.07
-11.76
-9.81
-7.51
-5.20
-3.18
-1.63
-0.56
0.15
0.68
1.18
1.70
2.21
2.65
2.97
3.21
3.43
3.69
3.98
4.24
4.38
4.32
4.10
3.78
3.49
3.28
3.15
3.06
2.95
2.83
2.72
2.64
2.48
2.10
1.37
0.27
-1.04
-2.27
-3.15
-3.60
-3.76
-3.98
-4.58
-5.75
-7.45
-9.43
-11.41
-13.08
-14.23
-14.70
-14.39
-13.23
-11.23
-8.57
-5.51
-2.47
0.20
2.31
3.89
5.17
6.44
7.88
9.46
10.96
12.05
12.55
12.49
12.09
11.72
11.64
11.93
12.43
12.91
13.10
12.91
12.38
11.62
10.76
9.82
8.75
7.48
6.05
4.59
3.43
2.82
2.90
3.56
4.49
5.25
5.49
5.02
3.84
2.08
-0.16
-2.79
-5.75
-8.86
-11.80
-14.15
-15.55
-15.85
-15.17
-13.88
-12.37
-10.84
-9.28
-7.47
-5.19
-2.34
0.94
4.32
7.41
9.86
11.43
12.01
11.65
10.51
8.91
7.26
5.99
5.38
5.50
6.13
6.91
7.41
7.36
6.71
5.65
4.49
3.54
2.95
2.69
2.59
2.45
2.13
1.60
0.95
0.28
-0.37
-0.97
-1.57
-2.18
-2.82
-3.51
-4.31
-5.35
-6.78
-8.68
-10.96
-13.35
-15.41
-16.70
-16.92
-15.99
-14.15
-11.80
-9.38
-7.21
-5.40
-3.83
-2.25
-0.38
1.93
4.67
7.59
10.30
12.30
13.16
12.68
10.97
8.42
5.68
3.35
1.83
1.24
1.39
1.92
2.46
2.71
2.54
1.94
0.97
-0.23
-1.50
-2.65
-3.46
-3.76
-3.43
-2.51
-1.21
0.13
1.10
1.38
0.84
-0.45
-2.27
-4.34
-6.43
-8.40
-10.20
-11.80
-13.16
-14.18
-14.73
-14.71
-14.06
-12.79
-11.01
-8.82
-6.38
-3.78
-1.14
1.45
3.81
5.77
7.17
7.93
8.11
7.85
7.41
6.98
6.72
6.68
6.93
7.43
8.09
8.78
9.32
9.52
9.26
8.55
7.54
6.47
5.59
5.07
4.90
4.94
4.99
4.82
4.33
3.47
2.30
0.87
-0.73
-2.42
-4.11
-5.75
-7.31
-8.79
-10.25
-11.71
-13.14
-14.42
-15.37
-15.82
-15.58
-14.59
-12.84
-10.45
-7.60
-4.54
-1.52
1.29
3.71
5.59
6.82
7.28
6.97
6.03
4.76
3.58
2.84
2.76
3.36
4.40
5.56
6.42
6.65
6.02
4.49
2.24
-0.37
-2.85
-4.70
-5.60
-5.43
-4.40
-2.93
-1.62
-0.98
-1.36
-2.81
-5.08
-7.69
-10.12
-11.93
-12.85
-12.86
-12.14
-11.00
-9.83
-8.98
-8.65
-8.84
-9.26
-9.48
-8.97
-7.36
-4.51
-0.61
3.88
8.37
12.28
15.18
16.83
17.23
16.57
15.18
13.51
12.00
10.98
10.63
10.92
11.60
12.26
12.52
12.16
11.26
10.12
9.20
8.85
9.10
9.74
10.29
10.38
9.78
8.59
7.05
5.48
4.10
3.02
2.27
1.81
1.55
1.33
0.93
0.13
-1.16
-2.84
-4.64
-6.29
-7.59
-8.56
-9.27
-9.78
-10.02
-9.79
-8.94
-7.48
-5.62
-3.64
-1.75
0.05
1.88
3.89
6.09
8.29
10.18
11.38
11.58
10.52
8.07
4.36
-0.09
-4.32
-7.09
-7.24
-4.20
1.74
9.31
16.66
21.85
23.42
20.79
14.38
5.58
-3.59
-10.93
-14.60
-13.64
-8.32
-0.19
8.38
14.85
17.33
15.12
8.91
0.45
-8.08
-14.71
-18.21
-18.38
-15.90
-12.11
-8.52
-6.43
-6.57
-9.02
-13.20
-18.03
-22.28
-24.86
-25.09
-22.88
-18.76
-13.74
-8.99
-5.51
-3.82
-3.84
-4.97
-6.31
-6.97
-6.43
-4.63
-1.96
0.87
3.18
4.49
4.69
4.05
3.11
2.45
2.57
3.66
5.58
7.87
9.91
11.09
11.04
9.84
7.91
5.95
4.56
4.06
4.34
4.92
5.22
4.75
3.35
1.21
-1.22
-3.50
-5.32
-6.60
-7.48
-8.09
-8.48
-8.55
-8.16
-7.26
-5.95
-4.48
-3.03
-1.69
-0.31
1.25
3.09
5.09
6.91
8.20
8.67
8.28
7.27
6.04
4.99
4.47
4.57
5.20
6.10
6.97
7.60
7.92
7.96
7.77
7.37
6.71
5.74
4.51
3.17
1.91
0.89
0.06
-0.71
-1.63
-2.79
-4.11
-5.33
-6.18
-6.55
-6.55
-6.52
-6.74
-7.35
-8.18
-8.93
-9.26
-9.03
-8.29
-7.22
-5.98
-4.58
-3.04
-1.42
0.05
1.02
1.20
0.57
-0.58
-1.77
-2.54
-2.76
-2.60
-2.42
-2.53
-3.01
-3.68
-4.23
-4.43
-4.22
-3.69
-3.04
-2.42
-1.97
-1.74
-1.76
-2.02
-2.41
-2.75
-2.84
-2.50
-1.71
-0.59
0.56
1.48
1.93
1.82
1.16
0.05
-1.38
-2.98
-4.55
-5.90
-6.82
-7.16
-6.84
-5.92
-4.55
-2.95
-1.32
0.25
1.75
3.26
4.86
6.55
8.20
9.55
10.36
10.42
9.73
8.52
7.17
6.14
5.77
6.15
7.11
8.23
9.07
9.28
8.83
7.97
7.13
6.75
7.07
8.00
9.21
10.24
10.68
10.34
9.21
7.43
5.22
2.78
0.31
-1.98
-3.96
-5.57
-6.95
-8.32
-9.92
-11.82
-13.86
-15.65
-16.80
-17.07
-16.46
-15.17
-13.48
-11.56
-9.46
-7.20
-4.82
-2.54
-0.65
0.57
1.03
0.93
0.65
0.61
1.07
2.01
3.14
4.08
4.56
4.57
4.39
4.38
4.79
5.55
6.32
6.64
6.25
5.19
3.79
2.46
1.45
0.82
0.45
0.23
0.09
-0.02
-0.29
-1.08
-2.80
-5.61
-9.20
-12.80
-15.53
-16.71
-16.23
-14.47
-12.08
-9.53
-6.93
-4.08
-0.77
3.01
6.92
10.43
13.06
14.59
15.13
14.99
14.52
13.99
13.53
13.11
12.62
11.95
10.99
9.76
8.36
6.95
5.72
4.79
4.12
3.52
2.75
1.59
0.04
-1.75
-3.53
-5.10
-6.45
-7.74
-9.24
-11.13
-13.38
-15.77
-17.98
-19.75
-21.04
-22.04
-23.12
-24.65
-26.86
-29.79
-33.27
-37.01
-40.59
-43.56
-45.45
-45.94
-45.01
-43.10
-41.11
-40.22
-41.41
-44.96
-50.07
-54.81
-56.52
-52.42
-40.48
-19.99
8.13
41.52
76.89
110.76
140.05
162.58
177.27
184.11
184.01
178.55
169.61
159.00
148.11
137.69
127.83
118.16
108.18
97.71
86.89
76.20
66.12
56.99
48.92
41.92
36.10
31.68
28.99
28.19
29.06
30.95
32.92
33.99
33.34
30.57
25.69
19.16
11.74
4.42
-1.76
-6.01
-7.95
-7.74
-5.95
-3.36
-0.74
1.35
2.57
2.73
1.70
-0.58
-4.15
-8.86
-14.44
-20.51
-26.67
-32.60
-38.09
-43.05
-47.40
-50.99
-53.55
-54.83
-54.65
-53.14
-50.75
-48.20
-46.24
-45.27
-45.19
-45.42
-45.15
-43.71
-40.85
-36.85
-32.43
-28.53
-25.90
-24.88
-25.31
-26.49
-27.47
-27.35
-25.65
-22.56
-18.96
-16.22
-15.73
-18.41
-24.41
-32.96
-42.61
-51.59
-58.24
-61.36
-60.47
-55.77
-48.14
-38.87
-29.48
-21.37
-15.52
-12.25
-11.09
-11.06
-11.01
-10.14
-8.19
-5.49
-2.68
-0.38
0.92
0.97
-0.29
-2.78
-6.27
-10.28
-14.22
-17.57
-20.05
-21.77
-22.99
-23.91
-24.50
-24.47
-23.56
-21.72
-19.32
-17.01
-15.45
-15.04
-15.84
-17.59
-19.86
-22.21
-24.19
-25.45
-25.77
-25.11
-23.62
-21.63
-19.53
-17.60
-15.98
-14.65
-13.45
-12.25
-11.03
-9.84
-8.76
-7.83
-6.93
-5.97
-4.87
-3.72
-2.72
-2.07
-1.89
-2.12
-2.58
-3.03
-3.35
-3.54
-3.67
-3.79
-3.91
-4.03
-4.17
-4.39
-4.77
-5.32
-5.97
-6.66
-7.32
-8.00
-8.78
-9.67
-10.59
-11.43
-12.13
-12.74
-13.37
-14.05
-14.61
-14.68
-13.90
-12.05
-9.26
-5.96
-2.69
0.14
2.35
4.06
5.51
6.92
8.30
9.54
10.38
10.67
10.41
9.84
9.32
9.14
9.38
9.85
10.23
10.17
9.52
8.31
6.69
4.90
3.08
1.33
-0.27
-1.62
-2.66
-3.41
-4.03
-4.77
-6.00
-7.99
-10.87
-14.53
-18.68
-22.94
-26.93
-30.37
-33.14
-35.22
-36.69
-37.64
-38.21
-38.54
-38.76
-39.01
-39.37
-39.90
-40.59
-41.48
-42.63
-44.18
-46.32
-49.23
-52.92
-57.11
-61.21
-64.35
-65.62
-64.18
-59.43
-50.97
-38.69
-22.76
-3.70
17.59
39.82
61.45
80.87
96.66
107.76
113.63
114.28
110.28
102.72
93.06
82.84
73.56
66.46
62.33
61.50
63.67
67.88
72.68
76.43
77.78
76.02
71.31
64.57
57.22
50.82
46.74
45.89
48.32
52.94
57.42
58.82
54.81
44.73
30.07
13.89
-0.61
-11.44
-18.46
-22.97
-26.64
-30.48
-34.59
-38.66
-42.59
-46.83
-52.07
-58.68
-66.31
-73.95
-80.33
-84.25
-84.81
-81.55
-74.47
-64.19
-51.82
-38.77
-26.18
-14.65
-4.13
5.64
14.60
22.01
26.70
27.70
24.97
19.72
14.10
10.44
10.51
15.03
23.65
35.06
47.38
58.37
65.75
67.70
63.33
53.07
38.68
22.72
7.76
-4.28
-12.48
-16.78
-17.66
-15.79
-11.98
-7.31
-3.11
-0.74
-1.10
-4.34
-9.76
-16.11
-22.16
-27.17
-30.99
-33.86
-36.08
-37.65
-38.34
-37.95
-36.70
-35.39
-35.17
-37.17
-41.95
-49.28
-58.16
-67.19
-75.03
-80.74
-84.03
-85.22
-85.00
-84.11
-83.05
-81.96
-80.71
-79.16
-77.44
-76.04
-75.62
-76.71
-79.43
-83.30
-87.27
-89.82
-89.04
-82.97
-70.02
-49.60
-22.48
9.23
42.71
75.45
106.04
134.48
161.62
188.10
213.40
235.81
252.95
263.07
265.85
262.68
256.06
248.52
241.68
235.70
229.27
220.23
206.20
184.97
154.90
115.35
67.33
14.03
-39.28
-86.32
-121.58
-142.05
-148.16
-143.27
-132.12
-119.06
-106.80
-96.25
-87.30
-79.73
-73.66
-69.39
-66.79
-64.98
-62.59
-58.50
-52.55
-45.74
-39.63
-35.70
-34.40
-34.95
-35.73
-35.15
-32.36
-27.71
-22.46
-18.27
-16.45
-17.52
-21.08
-26.04
-30.95
-34.55
-36.10
-35.60
-33.75
-31.60
-30.22
-30.36
-32.31
-35.77
-39.76
-42.71
-42.81
-38.68
-30.11
-18.41
-6.17
3.70
9.16
9.84
7.01
2.78
-0.99
-3.40
-4.54
-4.98
-5.09
-4.86
-4.03
-2.51
-0.68
0.78
1.21
0.33
-1.60
-3.87
-5.64
-6.28
-5.53
-3.64
-1.29
0.65
1.39
0.52
-1.88
-5.23
-8.80
-11.92
-14.35
-16.31
-18.32
-20.93
-24.44
-28.70
-33.15
-37.09
-39.74
-40.62
-39.57
-36.74
-32.56
-27.51
-22.04
-16.44
-10.86
-5.35
0.06
5.34
10.42
15.14
19.39
23.03
26.00
28.23
29.71
30.42
30.43
29.85
28.90
27.85
26.91
26.20
25.66
25.08
24.14
22.53
20.07
16.75
12.77
8.42
4.04
-0.02
-3.60
-6.65
-9.28
-11.73
-14.29
-17.21
-20.64
-24.54
-28.54
-32.07
-34.41
-34.98
-33.49
-30.08
-25.20
-19.43
-13.29
-7.07
-0.88
5.20
11.02
16.32
20.80
24.25
26.62
28.05
28.84
29.25
29.51
29.64
29.55
29.12
28.25
26.94
25.35
23.71
22.26
21.07
20.09
19.09
17.77
15.85
13.16
9.71
5.65
1.29
-3.01
-6.91
-10.24
-13.10
-15.78
-18.68
-22.04
-25.83
-29.59
-32.66
-34.32
-34.10
-31.83
-27.72
-22.23
-15.87
-9.15
-2.48
3.87
9.75
15.13
19.97
24.23
27.73
30.33
31.98
32.81
33.13
33.32
33.56
33.87
34.04
33.83
33.10
31.94
30.54
29.13
27.84
26.64
25.30
23.54
21.15
18.04
14.40
10.57
6.98
3.90
1.40
-0.76
-2.99
-5.66
-8.99
-12.93
-17.26
-21.64
-25.69
-28.93
-30.81
-30.83
-28.68
-24.38
-18.39
-11.47
-4.43
2.07
7.79
12.78
17.32
21.57
25.53
28.91
31.31
32.42
32.19
30.84
28.90
26.91
25.32
24.31
23.84
23.63
23.40
22.91
22.07
20.90
19.42
17.66
15.59
13.16
10.38
7.33
4.23
1.28
-1.33
-3.63
-5.76
-8.00
-10.54
-13.48
-16.84
-20.53
-24.46
-28.43
-32.14
-35.15
-36.92
-36.99
-35.11
-31.37
-26.16
-20.10
-13.83
-7.86
-2.43
2.40
6.71
10.56
13.93
16.70
18.71
19.90
20.30
20.13
19.65
19.09
18.59
18.15
17.71
17.25
16.76
16.22
15.59
14.71
13.36
11.35
8.59
5.20
1.49
-2.10
-5.17
-7.40
-8.75
-9.44
-9.88
-10.60
-12.06
-14.50
-17.78
-21.38
-24.55
-26.47
-26.59
-24.70
-21.02
-16.05
-10.36
-4.43
1.39
6.95
12.12
16.81
20.86
24.06
26.26
27.44
27.76
27.55
27.22
27.05
27.11
27.26
27.19
26.66
25.57
24.05
22.32
20.61
18.99
17.37
15.59
13.55
11.27
8.88
6.62
4.61
2.86
1.19
-0.61
-2.70
-5.11
-7.78
-10.58
-13.48
-16.46
-19.52
-22.55
-25.27
-27.22
-27.90
-26.91
-24.17
-19.97
-14.89
-9.59
-4.62
-0.21
3.62
6.98
9.91
12.38
14.31
15.72
16.78
17.78
18.90
20.13
21.21
21.81
21.68
20.84
19.51
18.03
16.70
15.65
14.85
14.14
13.29
12.07
10.35
8.14
5.56
2.88
0.33
-1.90
-3.84
-5.62
-7.47
-9.57
-12.02
-14.74
-17.47
-19.87
-21.51
-22.01
-21.10
-18.76
-15.19
-10.76
-5.95
-1.16
3.28
7.25
10.71
13.64
16.02
17.80
18.94
19.45
19.42
18.96
18.23
17.36
16.46
15.59
14.74
13.84
12.82
11.65
10.41
9.24
8.29
7.61
7.00
6.13
4.64
2.37
-0.54
-3.60
-6.28
-8.26
-9.58
-10.60
-11.83
-13.61
-15.98
-18.73
-21.51
-24.01
-25.97
-27.18
-27.40
-26.39
-24.00
-20.33
-15.73
-10.76
-5.94
-1.59
2.20
5.58
8.68
11.51
13.91
15.69
16.68
16.91
16.58
15.91
15.15
14.38
13.64
12.91
12.25
11.75
11.47
11.39
11.29
10.88
9.89
8.18
5.88
3.25
0.66
-1.58
-3.29
-4.54
-5.52
-6.54
-7.85
-9.56
-11.71
-14.21
-16.90
-19.56
-21.89
-23.55
-24.21
-23.63
-21.75
-18.78
-15.06
-11.00
-6.95
-3.05
0.61
4.02
7.11
9.70
11.57
12.55
12.61
11.89
10.72
9.47
8.46
7.83
7.60
7.71
8.10
8.73
9.54
10.42
11.14
11.39
10.92
9.62
7.60
5.11
2.49
0.04
-2.03
-3.64
-4.86
-5.85
-6.85
-8.06
-9.59
-11.41
-13.36
-15.17
-16.54
-17.19
-16.87
-15.49
-13.08
-9.86
-6.07
-1.99
2.25
6.57
10.98
15.37
19.48
22.95
25.43
26.75
26.99
26.49
25.69
24.99
24.62
24.72
25.32
26.40
27.87
29.44
30.70
31.15
30.37
28.18
24.71
20.23
15.02
9.32
3.36
-2.46
-7.57
-11.39
-13.63
-14.56
-14.98
-15.99
-18.49
-22.85
-28.76
-35.33
-41.43
-46.04
-48.47
-48.53
-46.47
-42.94
-38.78
-34.84
-31.81
-30.09
-29.80
-30.77
-32.63
-34.85
-36.91
-38.37
-39.09
-39.23
-39.21
-39.47
-40.20
-41.20
-41.88
-41.40
-39.01
-34.38
-27.75
-19.88
-11.81
-4.51
1.32
5.44
7.95
9.14
9.39
9.04
8.42
7.82
7.45
7.34
7.33
7.13
6.49
5.43
4.23
3.41
3.45
4.58
6.71
9.45
12.30
14.82
16.73
17.93
18.44
18.34
17.79
16.93
15.97
15.12
14.58
14.52
15.02
15.98
17.21
18.40
19.27
19.61
19.39
18.71
17.78
16.77
15.77
14.71
13.48
11.86
9.71
6.99
3.86
0.71
-1.93
-3.58
-4.04
-3.51
-2.61
-2.09
-2.51
-3.95
-5.83
-7.17
-6.89
-4.22
1.17
9.03
18.67
28.95
38.47
45.84
50.25
51.88
52.00
52.82
56.62
64.65
76.07
87.88
95.95
96.96
90.09
77.49
63.26
51.49
44.48
42.12
42.72
44.42
46.29
48.39
50.86
52.88
52.47
47.32
36.20
19.91
1.19
-16.52
-30.34
-38.97
-42.76
-43.22
-42.13
-40.91
-40.30
-40.53
-41.57
-43.27
-45.43
-47.68
-49.48
-50.21
-49.35
-46.73
-42.55
-37.35
-31.79
-26.45
-21.78
-18.05
-15.37
-13.81
-13.35
-13.90
-15.24
-17.07
-19.08
-20.98
-22.61
-23.79
-24.43
-24.45
-23.94
-23.16
-22.52
-22.49
-23.40
-25.32
-27.99
-30.98
-33.72
-35.75
-36.71
-36.34
-34.54
-31.36
-27.06
-22.08
-16.94
-12.11
-7.85
-4.25
-1.25
1.20
3.13
4.48
5.21
5.32
4.87
3.92
2.54
0.82
-1.13
-3.10
-4.86
-6.18
-6.97
-7.23
-7.09
-6.72
-6.21
-5.63
-5.03
-4.53
-4.27
-4.47
-5.32
-6.88
-9.08
-11.59
-14.04
-16.06
-17.34
-17.75
-17.23
-15.77
-13.34
-9.99
-5.84
-1.22
3.44
7.73
11.34
14.16
16.27
17.88
19.13
20.13
20.85
21.18
21.05
20.33
19.00
17.11
14.79
12.22
9.64
7.28
5.25
3.56
2.10
0.72
-0.69
-2.11
-3.39
-4.35
-4.89
-5.12
-5.33
-5.92
-7.25
-9.49
-12.53
-16.08
-19.66
-22.75
-24.84
-25.55
-24.72
-22.45
-19.16
-15.41
-11.76
-8.57
-5.90
-3.61
-1.49
0.58
2.57
4.36
5.82
6.87
7.54
7.86
7.86
7.60
7.14
6.57
6.04
5.63
5.38
5.20
4.94
4.42
3.53
2.24
0.59
-1.28
-3.24
-5.17
-7.01
-8.79
-10.62
-12.63
-14.92
-17.53
-20.30
-22.95
-25.02
-25.93
-25.24
-22.71
-18.50
-13.26
-7.85
-3.13
0.40
2.69
4.19
5.48
7.05
9.09
11.45
13.85
15.98
17.61
18.55
18.67
17.83
16.03
13.52
10.77
8.38
6.87
6.42
6.79
7.41
7.65
7.06
5.56
3.45
1.28
-0.47
-1.58
-2.25
-2.99
-4.40
-6.87
-10.35
-14.32
-17.97
-20.61
-21.89
-21.92
-21.17
-20.18
-19.37
-18.88
-18.58
-18.09
-16.80
-13.87
-8.59
-0.75
9.01
19.10
27.43
32.20
32.63
29.31
23.98
18.65
14.87
13.14
12.99
13.40
13.37
12.31
10.12
7.08
3.65
0.25
-2.83
-5.50
-7.75
-9.53
-10.73
-11.19
-10.94
-10.28
-9.77
-10.13
-11.89
-15.12
-19.33
-23.66
-27.09
-28.89
-28.81
-27.02
-24.04
-20.41
-16.54
-12.57
-8.49
-4.26
0.12
4.47
8.53
12.03
14.76
16.65
17.81
18.37
18.54
18.40
17.93
16.99
15.41
13.13
10.29
7.25
4.48
2.39
1.17
0.69
0.60
0.46
-0.06
-1.07
-2.54
-4.30
-6.22
-8.20
-10.20
-12.24
-14.35
-16.57
-18.87
-21.15
-23.13
-24.41
-24.58
-23.37
-20.74
-16.91
-12.34
-7.53
-2.95
1.08
4.46
7.22
9.52
11.56
13.48
15.30
16.94
18.25
19.13
19.61
19.78
19.74
19.57
19.20
18.58
17.65
16.46
15.06
13.51
11.81
9.94
7.93
5.95
4.22
2.96
2.23
1.91
1.68
1.20
0.22
-1.29
-3.18
-5.17
-7.00
-8.49
-9.58
-10.20
-10.24
-9.52
-7.82
-5.07
-1.40
2.82
7.08
10.87
13.85
15.86
16.92
17.14
16.59
15.28
13.20
10.39
7.05
3.53
0.26
-2.38
-4.14
-5.02
-5.18
-4.90
-4.41
-3.83
-3.20
-2.52
-1.91
-1.55
-1.66
-2.35
-3.54
-4.92
-6.17
-6.99
-7.31
-7.27
-7.17
-7.32
-7.97
-9.23
-11.08
-13.36
-15.79
-17.93
-19.33
-19.56
-18.42
-15.96
-12.54
-8.63
-4.71
-1.16
1.85
4.28
6.21
7.71
8.87
9.75
10.36
10.71
10.79
10.64
10.34
9.99
9.64
9.30
8.93
8.45
7.81
7.02
6.11
5.14
4.20
3.31
2.45
1.52
0.37
-1.10
-2.91
-4.94
-6.91
-8.52
-9.59
-10.04
-9.98
-9.65
-9.36
-9.38
-9.92
-11.01
-12.46
-13.91
-14.84
-14.80
-13.52
-11.03
-7.61
-3.72
0.17
3.65
6.47
8.53
9.90
10.74
11.24
11.56
11.75
11.78
11.56
11.10
10.49
9.81
9.15
8.44
7.62
6.64
5.57
4.62
3.95
3.59
3.38
3.04
2.31
1.09
-0.52
-2.32
-4.08
-5.62
-6.91
-7.95
-8.84
-9.73
-10.76
-12.05
-13.63
-15.39
-17.09
-18.40
-19.00
-18.65
-17.27
-14.92
-11.85
-8.35
-4.79
-1.40
1.67
4.42
6.90
9.11
11.00
12.40
13.19
13.33
12.97
12.33
11.60
10.93
10.33
9.80
9.32
8.91
8.58
8.30
7.94
7.40
6.60
5.51
4.19
2.73
1.21
-0.27
-1.64
-2.85
-3.84
-4.66
-5.41
-6.30
-7.53
-9.22
-11.31
-13.59
-15.68
-17.19
-17.80
-17.33
-15.77
-13.31
-10.26
-6.98
-3.81
-0.98
1.44
3.50
5.31
7.00
8.62
10.14
11.47
12.49
13.13
13.39
13.34
13.14
12.92
12.81
12.85
12.96
13.01
12.89
12.45
11.65
10.50
9.04
7.34
5.53
3.76
2.18
0.89
-0.07
-0.79
-1.42
-2.12
-3.03
-4.24
-5.84
-7.89
-10.38
-13.21
-16.06
-18.50
-20.04
-20.31
-19.20
-16.88
-13.72
-10.14
-6.47
-2.88
0.52
3.64
6.33
8.44
9.83
10.55
10.74
10.63
10.38
10.02
9.52
8.79
7.76
6.49
5.15
3.96
3.07
2.53
2.28
2.17
2.02
1.75
1.32
0.77
0.16
-0.44
-0.98
-1.48
-1.92
-2.32
-2.72
-3.12
-3.53
-3.94
-4.35
-4.77
-5.33
-6.14
-7.24
-8.53
-9.67
-10.29
-10.06
-8.91
-6.98
-4.61
-2.05
0.50
3.03
5.55
8.01
10.25
12.04
13.23
13.74
13.70
13.28
12.68
12.02
11.31
10.58
9.86
9.20
8.73
8.51
8.53
8.68
8.72
8.36
7.38
5.70
3.39
0.73
-1.91
-4.17
-5.75
-6.50
-6.39
-5.55
-4.24
-2.88
-1.99
-2.08
-3.45
-6.00
-9.17
-12.10
-13.84
-13.72
-11.54
-7.67
-2.87
1.93
5.98
8.84
10.53
11.37
11.83
12.27
12.89
13.63
14.27
14.61
14.55
14.08
13.30
12.33
11.24
10.03
8.68
7.16
5.44
3.56
1.57
-0.42
-2.40
-4.41
-6.52
-8.79
-11.19
-13.57
-15.78
-17.73
-19.47
-21.14
-22.90
-24.94
-27.34
-30.17
-33.39
-36.87
-40.35
-43.40
-45.55
-46.39
-45.70
-43.47
-39.84
-35.05
-29.31
-22.85
-15.98
-9.03
-2.39
3.66
8.97
13.51
17.37
20.65
23.40
25.65
27.44
28.85
30.02
31.15
32.33
33.58
34.73
35.55
35.81
35.35
34.20
32.49
30.46
28.33
26.31
24.52
23.08
22.07
21.50
21.29
21.22
20.94
20.02
18.18
15.30
11.62
7.66
4.10
1.55
0.34
0.45
1.57
3.25
5.12
7.02
8.98
11.06
13.20
15.18
16.67
17.34
17.10
16.07
14.56
12.94
11.50
10.37
9.56
8.97
8.48
7.99
7.37
6.45
5.07
3.05
0.36
-2.90
-6.46
-9.87
-12.69
-14.58
-15.41
-15.28
-14.48
-13.36
-12.28
-11.55
-11.44
-12.06
-13.31
-14.81
-15.91
-15.85
-14.04
-10.17
-4.39
2.84
10.91
19.22
27.23
34.43
40.30
44.33
46.10
45.42
42.40
37.46
31.33
24.74
18.41
12.79
8.01
4.00
0.56
-2.46
-5.12
-7.40
-9.36
-11.18
-13.21
-15.77
-18.98
-22.64
-26.26
-29.29
-31.33
-32.34
-32.55
-32.36
-32.16
-32.23
-32.76
-33.88
-35.71
-38.23
-41.25
-44.27
-46.57
-47.31
-45.82
-41.82
-35.54
-27.67
-19.18
-11.02
-3.90
1.87
6.36
9.94
13.05
16.11
19.37
22.93
26.68
30.35
33.53
35.81
36.92
36.83
35.79
34.23
32.63
31.30
30.25
29.14
27.38
24.35
19.60
13.16
5.52
-2.43
-9.63
-15.22
-18.77
-20.36
-20.46
-19.76
-18.95
-18.55
-18.84
-19.81
-21.21
-22.55
-23.32
-23.12
-21.85
-19.75
-17.25
-14.78
-12.58
-10.64
-8.80
-6.98
-5.22
-3.68
-2.49
-1.63
-0.96
-0.31
0.33
0.82
0.93
0.54
-0.22
-0.95
-1.19
-0.62
0.78
2.71
4.75
6.53
7.93
8.97
9.68
10.03
9.88
9.09
7.74
6.11
4.58
3.43
2.61
1.75
0.38
-1.86
-4.95
-8.46
-11.76
-14.23
-15.50
-15.47
-14.33
-12.41
-10.07
-7.62
-5.25
-3.06
-1.06
0.79
2.46
3.89
4.97
5.61
5.81
5.67
5.31
4.86
4.36
3.78
3.06
2.22
1.34
0.60
0.16
0.04
0.09
0.07
-0.24
-0.95
-1.95
-3.04
-4.04
-4.84
-5.50
-6.15
-6.92
-7.89
-9.04
-10.36
-11.86
-13.56
-15.48
-17.53
-19.42
-20.78
-21.15
-20.29
-18.15
-15.05
-11.48
-7.90
-4.64
-1.79
0.72
3.02
5.14
7.09
8.76
10.05
10.89
11.25
11.16
10.72
10.12
9.53
9.12
8.86
8.69
8.47
8.12
7.67
7.13
6.46
5.52
4.14
2.25
0.06
-1.99
-3.45
-4.05
-3.82
-3.11
-2.39
-2.01
-2.13
-2.69
-3.59
-4.76
-6.14
-7.67
-9.14
-10.23
-10.61
-10.06
-8.64
-6.61
-4.35
-2.20
-0.27
1.50
3.30
5.26
7.36
9.37
11.01
11.99
12.18
11.64
10.65
9.56
8.71
8.28
8.26
8.45
8.62
8.59
8.29
7.78
7.10
6.28
5.26
3.98
2.45
0.80
-0.73
-1.93
-2.73
-3.24
-3.68
-4.32
-5.30
-6.61
-8.10
-9.57
-10.83
-11.73
-12.17
-12.10
-11.44
-10.14
-8.19
-5.63
-2.61
0.65
3.92
7.01
9.78
12.17
14.09
15.48
16.23
16.30
15.74
14.74
13.55
12.44
11.60
11.04
10.63
10.13
9.33
8.12
6.54
4.77
3.03
1.46
0.09
-1.18
-2.46
-3.80
-5.14
-6.32
-7.18
-7.66
-7.86
-7.98
-8.28
-8.94
-10.02
-11.48
-13.19
-14.98
-16.66
-17.96
-18.64
-18.46
-17.34
-15.39
-12.89
-10.16
-7.50
-5.04
-2.82
-0.85
0.84
2.19
3.19
3.88
4.40
4.87
5.27
5.50
5.36
4.76
3.72
2.40
0.99
-0.34
-1.55
-2.68
-3.85
-5.20
-6.84
-8.82
-11.11
-13.55
-15.91
-17.90
-19.29
-19.96
-19.95
-19.43
-18.69
-17.91
-17.09
-15.84
-13.54
-9.48
-3.36
4.34
12.29
18.70
22.06
21.88
18.97
15.12
12.23
11.47
12.80
15.17
17.15
17.67
16.36
13.53
9.87
6.25
3.68
3.18
5.55
10.84
18.04
25.15
29.98
31.00
28.08
22.53
16.36
11.31
8.13
6.57
5.86
5.38
4.95
4.82
5.18
5.94
6.67
6.95
6.68
6.26
6.39
7.70
10.34
13.87
17.40
20.08
21.47
21.68
21.16
20.38
19.63
18.93
18.29
17.82
17.72
18.12
18.94
19.91
20.77
21.55
22.54
24.12
26.40
29.08
31.62
33.59
35.08
36.49
38.22
40.12
41.43
41.20
38.99
35.30
31.40
28.62
27.50
27.57
27.67
26.81
24.86
22.49
20.64
19.77
19.66
19.57
18.95
17.63
15.98
14.65
14.23
14.98
16.83
19.31
21.65
23.04
22.62
19.81
14.64
7.66
-0.64
-9.89
-20.13
-31.40
-43.11
-54.50
-64.69
-72.88
-78.74
-82.66
-85.30
-87.31
-89.18
-90.72
-92.36
-94.77
-97.93
-100.63
-100.40
-94.14
-79.91
-58.54
-33.37
-10.32
5.04
10.28
10.11
11.25
19.74
37.19
55.79
70.30
78.17
79.64
78.94
79.59
83.36
90.15
98.33
105.67
110.83
112.27
108.70
99.89
86.72
71.16
56.08
44.16
36.89
34.39
34.08
31.01
19.33
-5.90
-46.27
-98.11
-152.83
-199.36
-227.78
-233.75
-219.93
-194.18
-165.93
-142.25
-125.70
-114.98
-107.24
-100.13
-93.21
-87.40
-83.52
-81.39
-79.63
-76.40
-70.41
-61.48
-50.48
-39.01
-28.76
-20.81
-15.41
-11.87
-8.60
-3.61
4.83
17.31
32.69
48.29
60.69
67.03
66.27
59.51
49.42
39.07
30.98
26.70
26.66
29.93
34.07
35.21
29.30
14.13
-8.84
-34.02
-53.12
-58.28
-45.22
-14.92
26.78
71.46
110.84
138.76
151.92
149.66
133.63
107.42
76.30
46.34
23.08
10.25
8.72
16.42
29.10
41.62
49.56
50.30
43.52
30.92
15.37
-0.04
-12.72
-21.12
-24.86
-24.58
-21.59
-17.50
-13.72
-11.15
-10.13
-10.45
-11.60
-12.96
-13.95
-14.23
-13.68
-12.49
-11.06
-9.90
-9.43
-9.84
-11.03
-12.70
-14.53
-16.32
-18.06
-19.86
-21.86
-24.07
-26.42
-28.80
-31.07
-33.09
-34.64
-35.40
-35.05
-33.43
-30.54
-26.66
-22.21
-17.66
-13.38
-9.61
-6.40
-3.70
-1.42
0.56
2.25
3.62
4.53
4.91
4.83
4.49
4.20
4.20
4.54
5.05
5.41
5.38
4.88
4.03
3.00
1.86
0.59
-0.87
-2.53
-4.26
-5.84
-7.15
-8.23
-9.37
-10.87
-12.98
-15.68
-18.73
-21.72
-24.23
-25.93
-26.61
-26.22
-24.76
-22.41
-19.41
-16.07
-12.71
-9.59
-6.86
-4.54
-2.56
-0.82
0.75
2.12
3.18
3.79
3.88
3.41
2.51
1.28
-0.17
-1.79
-3.55
-5.47
-7.53
-9.78
-12.33
-15.26
-18.67
-22.54
-26.72
-30.94
-34.95
-38.57
-41.78
-44.70
-47.55
-50.54
-53.83
-57.43
-61.13
-64.51
-66.97
-67.91
-66.89
-63.75
-58.65
-51.99
-44.25
-35.85
-27.11
-18.31
-9.70
-1.66
5.49
11.50
16.38
20.33
23.64
26.54
29.03
30.93
32.00
32.16
31.50
30.32
28.90
27.44
25.95
24.43
23.01
21.94
21.52
21.90
22.90
24.00
24.51
23.87
21.80
18.42
14.15
9.53
5.09
1.32
-1.29
-2.30
-1.35
1.64
6.36
12.00
17.41
21.30
22.69
21.14
16.97
11.18
5.12
0.16
-2.67
-2.88
-0.63
3.34
7.93
12.04
14.91
16.39
16.93
17.35
18.44
20.62
23.83
27.61
31.34
34.35
35.99
35.64
32.74
27.13
19.29
10.45
2.21
-4.06
-7.82
-9.58
-10.55
-11.88
-14.06
-16.60
-18.47
-18.64
-16.74
-13.20
-8.97
-4.97
-1.69
1.03
3.67
6.71
10.25
14.02
17.58
20.67
23.36
25.94
28.61
31.17
32.97
33.19
31.24
27.25
22.04
16.90
12.98
10.87
10.36
10.63
10.52
8.97
5.29
-0.54
-7.85
-15.37
-21.56
-25.06
-25.15
-22.03
-16.79
-10.99
-6.22
-3.55
-3.21
-4.57
-6.43
-7.43
-6.69
-4.12
-0.42
3.25
5.85
6.92
6.78
6.30
6.45
7.88
10.78
14.93
19.90
25.23
30.41
34.83
37.73
38.43
36.52
32.21
26.37
20.44
16.03
14.40
16.04
20.38
26.00
31.09
34.06
34.10
31.36
26.76
21.46
16.27
11.41
6.48
0.92
-5.57
-12.72
-19.66
-25.28
-28.69
-29.55
-28.13
-25.15
-21.39
-17.44
-13.53
-9.61
-5.57
-1.42
2.63
6.20
8.92
10.57
11.18
10.97
10.23
9.23
8.14
7.05
6.04
5.21
4.74
4.74
5.21
5.88
6.34
6.12
4.87
2.55
-0.59
-4.08
-7.41
-10.20
-12.31
-13.90
-15.40
-17.33
-20.16
-24.05
-28.71
-33.39
-37.12
-39.01
-38.54
-35.73
-30.99
-24.87
-17.91
-10.45
-2.82
4.61
11.39
17.06
21.33
24.14
25.75
26.56
26.97
27.26
27.59
27.94
28.20
28.21
27.81
26.90
25.51
23.78
21.89
19.97
18.09
16.24
14.40
12.59
10.84
9.15
7.46
5.62
3.42
0.71
-2.64
-6.56
-10.90
-15.35
-19.47
-22.74
-24.65
-24.82
-23.14
-19.78
-15.23
-10.07
-4.88
-0.07
4.18
7.88
11.12
13.94
16.26
17.89
18.67
18.59
17.89
16.95
16.18
15.77
15.68
15.64
15.37
14.74
13.86
12.94
12.21
11.79
11.59
11.49
11.33
11.00
10.43
9.58
8.40
6.87
4.94
2.59
-0.24
-3.57
-7.37
-11.46
-15.49
-18.94
-21.25
-22.00
-21.07
-18.65
-15.12
-10.89
-6.31
-1.56
3.16
7.65
11.60
14.65
16.49
16.97
16.19
14.45
12.19
9.90
7.96
6.58
5.79
5.40
5.13
4.67
3.85
2.63
1.17
-0.29
-1.53
-2.38
-2.80
-2.84
-2.67
-2.48
-2.51
-2.99
-4.03
-5.66
-7.85
-10.41
-13.08
-15.51
-17.20
-17.71
-16.70
-14.14
-10.32
-5.84
-1.36
2.64
5.95
8.69
11.11
13.41
15.58
17.43
18.75
19.37
19.28
18.65
17.65
16.45
15.14
13.80
12.46
11.20
10.07
9.08
8.15
7.14
5.91
4.38
2.59
0.66
-1.24
-2.95
-4.36
-5.50
-6.47
-7.47
-8.73
-10.40
-12.51
-14.93
-17.34
-19.36
-20.64
-20.92
-20.04
-17.95
-14.75
-10.70
-6.22
-1.82
2.07
5.15
7.33
8.70
9.41
9.66
9.63
9.49
9.39
9.41
9.52
9.56
9.34
8.73
7.74
6.52
5.30
4.30
3.63
3.32
3.25
3.26
3.15
2.78
2.05
1.04
-0.09
-1.13
-1.96
-2.60
-3.20
-4.00
-5.21
-6.91
-9.00
-11.19
-13.08
-14.20
-14.11
-12.53
-9.39
-4.87
0.64
6.56
12.29
17.25
21.02
23.43
24.55
24.64
24.03
22.94
21.49
19.72
17.64
15.38
13.08
10.94
9.01
7.21
5.36
3.32
1.08
-1.21
-3.27
-4.91
-6.04
-6.82
-7.54
-8.51
-10.00
-12.11
-14.77
-17.76
-20.73
-23.31
-25.15
-25.95
-25.55
-23.94
-21.32
-18.02
-14.49
-11.14
-8.24
-5.88
-3.99
-2.39
-0.92
0.49
1.88
3.16
4.25
5.07
5.53
5.64
5.44
5.04
4.52
3.97
3.39
2.74
1.96
1.03
-0.05
-1.19
-2.35
-3.49
-4.58
-5.66
-6.72
-7.77
-8.83
-9.89
-11.03
-12.31
-13.77
-15.29
-16.59
-17.22
-16.69
-14.69
-11.23
-6.66
-1.65
3.09
7.02
9.86
11.73
12.93
13.81
14.59
15.30
15.86
16.15
16.13
15.81
15.25
14.43
13.30
11.83
10.11
8.49
7.37
7.02
7.38
8.03
8.39
8.09
7.16
6.03
5.18
4.90
5.03
5.07
4.43
2.67
-0.33
-4.31
-8.81
-13.15
-16.61
-18.53
-18.43
-16.29
-12.55
-8.02
-3.59
0.05
2.58
4.07
4.78
5.12
5.45
6.09
7.27
9.06
11.40
14.16
17.28
20.84
25.01
29.89
35.31
40.76
45.50
48.89
50.61
50.77
49.73
47.94
45.65
42.95
39.85
36.40
32.71
28.80
24.49
19.34
12.85
4.66
-5.09
-15.70
-25.94
-34.31
-39.44
-40.49
-37.46
-31.12
-22.79
-13.88
-5.43
2.07
8.59
14.24
18.89
22.10
23.35
22.32
19.21
14.68
9.57
4.59
0.07
-3.95
-7.52
-10.63
-13.22
-15.30
-17.08
-19.00
-21.44
-24.55
-28.06
-31.39
-33.87
-35.06
-34.95
-33.87
-32.47
-31.36
-31.01
-31.60
-32.92
-34.53
-35.77
-36.04
-34.93
-32.35
-28.55
-23.99
-19.15
-14.38
-9.94
-5.93
-2.45
0.44
2.68
4.26
5.19
5.51
5.20
4.31
2.98
1.43
-0.05
-1.22
-2.02
-2.59
-3.21
-4.18
-5.69
-7.80
-10.41
-13.34
-16.41
-19.40
-22.20
-24.72
-26.94
-28.78
-30.19
-31.09
-31.52
-31.59
-31.45
-31.13
-30.40
-28.84
-26.04
-21.80
-16.38
-10.41
-4.67
0.29
4.31
7.57
10.40
12.99
15.25
16.91
17.72
17.62
16.83
15.67
14.47
13.41
12.48
11.60
10.62
9.41
7.90
6.08
4.02
1.84
-0.30
-2.25
-3.94
-5.41
-6.77
-8.19
-9.80
-11.65
-13.69
-15.81
-17.82
-19.61
-21.06
-21.99
-22.16
-21.23
-18.88
-15.02
-10.01
-4.60
0.16
3.39
4.68
4.24
2.78
1.07
-0.35
-1.36
-2.19
-3.15
-4.48
-6.19
-8.12
-9.97
-11.42
-12.25
-12.35
-11.75
-10.65
-9.31
-8.04
-7.07
-6.52
-6.40
-6.65
-7.24
-8.19
-9.55
-11.39
-13.66
-16.19
-18.61
-20.43
-21.13
-20.35
-17.93
-14.01
-8.89
-2.99
3.25
9.37
14.88
19.37
22.57
24.44
25.23
25.35
25.18
24.82
24.12
22.79
20.61
17.67
14.36
11.22
8.74
7.15
6.38
6.12
5.97
5.46
4.18
1.76
-1.96
-6.88
-12.44
-17.71
-21.56
-23.08
-21.99
-18.80
-14.67
-10.94
-8.47
-7.30
-6.61
-5.27
-2.38
2.37
8.72
16.00
23.48
30.47
36.33
40.55
42.88
43.60
43.45
43.27
43.35
43.03
40.81
35.17
25.44
12.40
-1.89
-14.92
-24.73
-30.47
-32.40
-31.47
-28.76
-25.16
-21.33
-17.88
-15.42
-14.60
-15.87
-19.40
-24.99
-32.12
-40.05
-47.94
-54.81
-59.63
-61.38
-59.41
-53.58
-44.39
-32.83
-20.06
-7.03
5.72
17.95
29.58
40.51
50.57
59.63
67.71
75.04
81.88
88.40
94.49
99.91
104.41
107.91
110.56
112.76
114.96
117.39
119.81
121.15
119.64
113.20
100.15
80.04
53.97
24.49
-5.15
-31.89
-53.66
-69.52
-79.51
-84.18
-84.25
-80.60
-74.26
-66.64
-59.24
-53.37
-49.80
-48.56
-48.99
-50.09
-50.92
-50.93
-50.12
-48.93
-47.90
-47.28
-46.86
-46.06
-44.32
-41.52
-38.16
-35.08
-33.05
-32.23
-32.11
-31.81
-30.63
-28.39
-25.40
-22.15
-18.90
-15.64
-12.30
-9.04
-6.28
-4.50
-3.84
-3.92
-4.03
-3.53
-2.16
-0.18
1.93
3.85
5.65
7.65
10.12
13.02
15.90
18.17
19.39
19.46
18.70
17.58
16.54
15.85
15.59
15.77
16.38
17.37
18.51
19.36
19.42
18.33
16.14
13.28
10.37
7.81
5.56
3.19
0.30
-3.08
-6.27
-8.12
-7.52
-3.94
2.39
10.67
19.87
28.86
36.52
41.58
42.89
39.92
33.39
25.31
18.44
15.00
15.60
18.80
21.76
21.62
16.90
8.04
-2.88
-13.37
-21.63
-27.10
-30.38
-32.39
-33.75
-34.45
-34.11
-32.48
-30.02
-27.98
-28.00
-31.28
-37.95
-46.76
-55.42
-61.49
-63.33
-60.75
-54.94
-47.88
-41.48
-36.79
-33.82
-31.81
-29.90
-27.73
-25.60
-24.24
-24.22
-25.47
-27.15
-27.91
-26.45
-22.05
-14.87
-5.96
2.94
9.98
13.71
13.61
10.26
5.15
0.04
-3.73
-5.79
-6.69
-7.45
-8.89
-11.23
-14.08
-16.88
-19.42
-22.04
-25.44
-30.17
-36.16
-42.55
-47.94
-50.99
-50.91
-47.78
-42.43
-35.95
-29.02
-21.60
-13.00
-2.50
9.89
23.02
34.79
42.99
46.31
45.02
40.82
36.05
32.67
31.52
32.30
34.16
36.43
39.05
42.38
46.55
51.02
54.45
55.28
52.51
46.18
37.45
28.07
19.69
13.38
9.50
7.95
8.40
10.28
12.80
14.92
15.70
14.78
12.71
10.83
10.50
12.34
15.73
19.11
20.77
19.71
16.17
11.38
6.89
3.84
2.57
2.66
3.38
4.08
4.43
4.32
3.66
2.30
0.02
-3.25
-7.28
-11.61
-15.63
-18.90
-21.24
-22.82
-23.92
-24.82
-25.60
-26.10
-25.94
-24.57
-21.31
-15.61
-7.39
2.74
13.27
22.24
27.79
28.94
25.91
20.08
13.35
7.40
3.23
1.01
0.34
0.62
1.35
2.16
2.85
3.26
3.21
2.58
1.31
-0.56
-2.91
-5.54
-8.29
-11.02
-13.69
-16.34
-18.92
-21.24
-22.94
-23.56
-22.73
-20.30
-16.45
-11.61
-6.34
-1.16
3.53
7.49
10.72
13.30
15.42
17.18
18.60
19.57
19.95
19.64
18.72
17.47
16.16
15.01
13.99
12.91
11.51
9.67
7.41
4.88
2.28
-0.22
-2.51
-4.57
-6.48
-8.36
-10.31
-12.37
-14.41
-16.17
-17.32
-17.55
-16.69
-14.72
-11.77
-8.04
-3.70
0.97
5.64
9.85
13.08
14.92
15.17
14.03
11.98
9.69
7.81
6.73
6.55
6.99
7.64
8.04
7.87
7.00
5.45
3.38
0.97
-1.58
-4.11
-6.47
-8.65
-10.69
-12.75
-14.93
-17.28
-19.62
-21.64
-22.91
-23.07
-21.89
-19.36
-15.64
-11.05
-6.02
-1.05
3.41
6.97
9.45
10.88
11.44
11.40
10.94
10.13
9.02
7.69
6.28
5.00
4.01
3.27
2.59
1.74
0.59
-0.73
-1.92
-2.72
-3.07
-3.27
-3.88
-5.41
-8.05
-11.54
-15.23
-18.30
-20.07
-20.23
-18.79
-16.05
-12.42
-8.27
-3.92
0.36
4.37
7.87
10.67
12.64
13.76
14.11
13.89
13.31
12.55
11.65
10.56
9.20
7.52
5.61
3.70
2.04
0.82
-0.00
-0.64
-1.45
-2.68
-4.46
-6.71
-9.27
-12.03
-14.90
-17.76
-20.30
-22.01
-22.30
-20.76
-17.43
-12.82
-7.70
-2.78
1.60
5.43
8.97
12.36
15.56
18.25
20.10
20.93
20.90
20.34
19.66
19.10
18.65
18.11
17.24
15.95
14.36
12.75
11.43
10.62
10.33
10.35
10.30
9.76
8.36
5.93
2.53
-1.53
-5.73
-9.46
-12.11
-13.28
-12.85
-10.98
-8.05
-4.52
-0.78
2.85
6.13
8.89
10.94
12.12
12.37
11.70
10.33
8.56
6.70
5.04
3.71
2.72
2.02
1.49
0.99
0.37
-0.50
-1.70
-3.19
-4.82
-6.31
-7.37
-7.85
-7.76
-7.30
-6.69
-6.11
-5.61
-5.16
-4.70
-4.20
-3.68
-3.12
-2.50
-1.74
-0.79
0.35
1.62
2.92
4.18
5.33
6.34
7.09
7.45
7.26
6.44
4.98
3.05
0.99
-0.81
-1.97
-2.35
-2.05
-1.48
-1.15
-1.50
-2.75
-4.74
-7.14
-9.53
-11.55
-12.97
-13.66
-13.49
-12.38
-10.35
-7.55
-4.28
-0.92
2.26
5.09
7.54
9.63
11.32
12.55
13.28
13.57
13.61
13.61
13.68
13.82
13.88
13.71
13.18
12.23
10.76
8.64
5.84
2.44
-1.17
-4.36
-6.48
-7.16
-6.54
-5.30
-4.50
-5.12
-7.70
-12.08
-17.39
-22.43
-26.02
-27.43
-26.50
-23.63
-19.44
-14.62
-9.70
-5.14
-1.28
1.63
3.56
4.89
6.32
8.70
12.70
18.50
25.80
33.87
41.92
49.22
55.24
59.55
61.79
61.65
59.09
54.33
47.94
40.59
32.89
25.19
17.59
10.08
2.74
-4.09
-9.85
-13.85
-15.56
-14.82
-11.90
-7.46
-2.36
2.60
6.77
9.73
11.39
11.93
11.77
11.52
11.66
12.39
13.46
14.29
14.20
12.84
10.33
7.21
4.18
1.75
0.12
-0.76
-1.01
-0.71
0.11
1.35
2.69
3.67
3.82
2.93
1.15
-0.98
-2.78
-3.67
-3.41
-2.10
-0.13
2.03
3.91
5.17
5.62
5.21
4.01
2.26
0.36
-1.25
-2.15
-2.13
-1.23
0.25
1.94
3.45
4.52
5.05
5.08
4.78
4.39
4.20
4.43
5.20
6.41
7.77
8.70
8.48
6.46
2.46
-2.93
-8.28
-11.76
-11.82
-7.95
-0.93
7.58
15.85
22.80
28.31
32.81
36.62
39.56
40.91
40.04
36.82
31.83
26.03
20.11
14.24
8.06
1.18
-6.34
-13.76
-19.86
-23.48
-24.11
-22.18
-18.89
-15.85
-14.42
-15.35
-18.66
-23.75
-29.82
-36.06
-41.78
-46.39
-49.29
-49.92
-47.97
-43.53
-37.32
-30.39
-23.74
-17.90
-12.74
-7.67
-2.22
3.61
9.14
13.36
15.51
15.57
14.27
12.71
11.71
11.39
11.23
10.55
9.04
7.05
5.28
4.20
3.47
1.93
-1.85
-8.65
-17.77
-26.93
-33.16
-34.15
-29.61
-21.45
-13.04
-7.51
-6.35
-8.97
-13.44
-17.80
-21.15
-23.79
-26.48
-29.50
-32.30
-33.77
-33.15
-30.64
-27.34
-24.52
-22.85
-22.08
-21.36
-19.89
-17.43
-14.22
-10.72
-7.17
-3.49
0.65
5.53
11.30
18.02
25.72
34.37
43.81
53.56
63.00
71.66
79.53
87.25
95.72
105.61
116.79
128.28
138.51
146.04
150.20
151.34
150.71
149.79
149.62
150.31
151.00
150.24
146.66
139.47
128.73
115.13
99.68
83.30
66.77
50.73
35.81
22.57
11.33
1.87
-6.75
-15.98
-27.37
-41.81
-59.10
-77.88
-96.06
-111.57
-123.05
-130.13
-133.32
-133.58
-131.83
-128.79
-124.91
-120.67
-116.57
-113.17
-110.81
-109.48
-108.82
-108.26
-107.29
-105.54
-102.86
-99.23
-94.67
-89.23
-82.95
-75.91
-68.26
-60.26
-52.26
-44.64
-37.75
-31.81
-26.89
-22.93
-19.77
-17.20
-14.95
-12.80
-10.65
-8.62
-7.03
-6.15
-5.90
-5.69
-4.50
-1.46
3.70
10.20
16.47
20.72
21.70
18.99
12.96
4.37
-6.00
-17.31
-28.57
-38.48
-45.62
-48.95
-48.32
-44.68
-39.72
-35.19
-32.21
-30.97
-30.77
-30.45
-28.85
-25.12
-18.93
-10.59
-1.08
8.01
14.70
17.12
14.07
5.37
-8.01
-24.37
-41.91
-59.21
-75.55
-90.82
-105.16
-118.49
-130.10
-138.46
-141.42
-136.61
-122.34
-98.39
-66.74
-31.50
1.92
28.51
45.34
52.52
53.02
51.18
50.90
54.12
60.48
67.96
74.07
76.76
74.92
68.38
57.80
44.65
31.22
20.25
14.20
14.40
20.46
30.39
41.31
50.51
56.21
57.96
56.35
52.66
48.56
45.84
46.19
50.59
58.72
68.54
76.66
79.37
74.22
61.20
42.99
24.05
8.84
0.15
-1.76
1.16
5.85
9.54
10.75
9.36
6.24
2.50
-0.93
-3.59
-5.40
-6.50
-7.10
-7.40
-7.45
-7.19
-6.34
-4.48
-1.28
3.29
8.68
13.88
17.67
19.13
17.95
14.55
9.83
4.70
-0.16
-4.39
-7.96
-10.89
-13.31
-15.43
-17.56
-20.05
-23.10
-26.65
-30.39
-33.99
-37.18
-39.91
-42.21
-44.10
-45.48
-46.27
-46.48
-46.23
-45.71
-45.01
-44.02
-42.58
-40.50
-37.75
-34.33
-30.22
-25.24
-19.15
-11.91
-3.90
3.92
10.25
14.01
14.76
13.02
10.04
7.27
5.87
6.30
8.37
11.48
14.85
17.83
19.91
20.78
20.29
18.48
15.57
12.00
8.32
5.06
2.64
1.21
0.62
0.45
0.16
-0.76
-2.51
-4.92
-7.51
-9.68
-10.97
-11.29
-10.93
-10.43
-10.39
-11.29
-13.26
-16.00
-18.89
-21.10
-21.91
-20.99
-18.43
-14.71
-10.51
-6.44
-2.89
0.04
2.51
4.86
7.49
10.71
14.58
18.77
22.64
25.39
26.44
25.68
23.62
21.22
19.52
19.29
20.80
23.89
28.07
32.72
37.22
40.98
43.40
43.99
42.50
39.07
34.23
28.78
23.46
18.74
14.64
10.80
6.67
1.88
-3.67
-9.70
-15.67
-20.98
-25.28
-28.55
-31.15
-33.78
-37.22
-42.12
-48.77
-56.88
-65.55
-73.27
-78.12
-78.19
-72.15
-59.79
-42.32
-22.17
-2.31
14.68
27.31
35.49
40.11
42.32
42.88
41.95
39.26
34.68
28.56
21.80
15.42
10.01
5.33
0.42
-6.08
-15.17
-27.06
-40.97
-55.49
-69.06
-80.48
-89.16
-95.06
-98.51
-99.82
-99.18
-96.51
-91.61
-84.21
-74.22
-61.85
-47.68
-32.55
-17.27
-2.27
12.39
26.86
41.01
54.11
64.92
72.18
75.37
75.23
73.62
73.01
75.65
82.82
94.54
109.34
124.33
135.61
139.07
131.73
113.07
85.78
55.10
27.17
6.76
-4.30
-7.44
-6.15
-4.27
-4.35
-7.07
-11.53
-16.18
-19.58
-20.83
-19.58
-15.89
-10.08
-2.65
5.64
13.83
20.77
25.33
26.64
24.26
18.43
9.89
-0.18
-10.43
-19.59
-26.74
-31.60
-34.69
-37.24
-40.61
-45.65
-51.95
-57.89
-61.20
-60.10
-54.21
-44.89
-34.54
-25.44
-18.66
-13.67
-8.92
-2.99
4.57
12.92
20.52
25.97
28.71
29.05
27.64
24.93
20.83
15.00
7.44
-1.06
-9.10
-15.26
-18.94
-20.69
-22.01
-24.46
-28.72
-34.32
-39.81
-43.67
-45.18
-44.73
-43.63
-43.28
-44.54
-47.39
-51.01
-54.32
-56.43
-56.81
-55.33
-52.10
-47.41
-41.57
-34.87
-27.48
-19.46
-10.87
-1.92
6.87
14.68
20.75
24.75
27.04
28.60
30.60
33.81
38.16
42.75
46.25
47.51
46.06
42.21
36.87
31.04
25.52
20.70
16.58
12.98
9.65
6.22
2.22
-2.87
-9.39
-17.15
-25.21
-32.10
-36.19
-36.37
-32.46
-25.27
-16.25
-6.94
1.40
8.10
12.98
16.07
17.53
17.50
16.22
14.08
11.65
9.45
7.84
6.78
5.95
4.94
3.52
1.68
-0.47
-2.91
-5.90
-9.87
-15.09
-21.40
-28.14
-34.36
-39.12
-41.79
-42.11
-40.04
-35.67
-29.22
-21.12
-12.04
-2.72
6.31
15.03
23.86
33.26
43.19
52.74
60.29
64.09
63.02
57.11
47.69
36.92
27.11
20.03
16.46
16.04
17.55
19.42
20.18
18.97
15.56
10.29
3.78
-3.30
-10.39
-16.91
-22.20
-25.52
-26.09
-23.45
-17.64
-9.27
0.57
10.66
19.92
27.69
33.76
38.30
41.67
44.15
45.86
46.74
46.64
45.48
43.37
40.59
37.53
34.61
32.16
30.51
29.85
30.29
31.65
33.39
34.56
33.86
29.94
21.72
8.78
-8.36
-28.19
-48.38
-66.35
-79.84
-87.42
-88.63
-83.92
-74.32
-61.15
-45.91
-30.08
-14.99
-1.76
9.03
17.23
23.20
27.47
30.48
32.42
33.17
32.50
30.30
26.79
22.45
18.00
14.12
11.29
9.61
8.78
8.27
7.43
5.77
2.92
-1.30
-6.85
-13.36
-20.08
-25.91
-29.66
-30.47
-28.08
-22.98
-16.21
-8.99
-2.29
3.38
8.05
12.01
15.55
18.76
21.41
23.11
23.50
22.53
20.48
17.95
15.57
13.77
12.59
11.73
10.72
9.25
7.24
4.91
2.61
0.65
-0.98
-2.60
-4.85
-8.50
-14.08
-21.51
-29.91
-37.70
-43.08
-44.52
-41.27
-33.42
-21.79
-7.75
7.04
20.85
32.28
40.70
46.68
52.03
59.21
70.23
85.58
103.73
121.61
135.81
143.92
145.34
141.21
133.62
124.72
116.11
108.71
103.04
99.43
98.01
98.75
101.17
104.34
107.11
108.34
107.06
102.66
94.84
83.79
70.43
56.50
44.55
37.39
37.38
45.50
60.94
81.14
102.50
121.35
134.75
141.04
139.84
131.83
118.43
101.53
83.18
65.30
49.16
35.02
22.10
8.91
-5.93
-22.67
-39.87
-54.53
-63.10
-62.94
-53.64
-37.52
-18.98
-3.08
6.14
6.75
-0.87
-14.68
-31.83
-49.60
-65.82
-79.09
-88.88
-95.59
-100.56
-105.85
-113.73
-126.08
-143.80
-166.52
-192.39
-218.38
-240.78
-256.11
-261.92
-257.50
-243.89
-223.52
-199.39
-174.47
-151.30
-131.87
-117.71
-109.78
-108.24
-112.34
-120.54
-130.91
-141.54
-150.94
-157.99
-161.77
-161.34
-155.71
-143.88
-125.15
-99.51
-68.04
-33.14
1.66
32.46
56.04
70.86
77.49
78.32
76.66
75.71
77.77
83.86
93.85
106.66
120.55
133.40
143.06
147.74
146.38
138.93
126.17
109.49
90.48
70.56
50.84
32.03
14.69
-0.60
-13.07
-21.81
-26.15
-26.08
-22.45
-16.84
-10.95
-6.03
-2.46
0.14
2.55
5.43
8.88
12.56
15.97
18.72
20.73
22.21
23.33
24.20
24.71
24.71
24.10
22.96
21.49
19.87
18.18
16.29
14.03
11.37
8.60
6.24
4.84
4.57
4.97
5.04
3.66
0.08
-5.61
-12.45
-18.88
-23.28
-24.56
-22.38
-17.18
-9.87
-1.45
7.34
16.19
25.09
34.10
42.98
50.99
56.88
59.26
57.10
50.09
38.90
25.04
10.60
-2.20
-11.35
-15.62
-14.99
-10.82
-5.65
-2.29
-2.70
-6.97
-13.19
-18.33
-19.69
-16.24
-9.13
-1.10
4.76
6.37
3.27
-3.38
-11.46
-18.59
-22.73
-22.59
-17.82
-9.14
1.72
12.50
21.07
26.09
27.47
26.28
24.16
22.52
21.91
21.89
21.30
19.00
14.40
7.82
0.26
-7.10
-13.41
-18.46
-22.55
-26.24
-29.93
-33.60
-36.86
-39.12
-39.99
-39.44
-37.80
-35.61
-33.25
-30.67
-27.38
-22.54
-15.37
-5.52
6.77
20.58
34.41
46.42
54.51
56.59
50.99
37.13
16.09
-9.02
-33.58
-52.50
-61.86
-60.20
-48.96
-31.81
-13.16
3.45
16.26
25.31
31.50
35.53
37.27
35.85
30.30
20.29
6.64
-8.89
-24.03
-36.71
-45.53
-49.86
-49.76
-45.80
-38.99
-30.69
-22.53
-16.10
-12.59
-12.45
-15.18
-19.52
-23.83
-26.54
-26.58
-23.52
-17.68
-10.11
-2.49
3.16
5.01
2.05
-5.43
-15.72
-26.26
-34.44
-38.52
-38.11
-34.10
-28.19
-22.18
-17.45
-14.64
-13.62
-13.76
-14.10
-13.68
-11.75
-8.02
-2.73
3.47
9.78
15.51
20.27
24.03
26.86
28.82
29.74
29.47
28.00
25.66
22.98
20.54
18.67
17.25
15.86
13.94
11.18
7.66
3.89
0.54
-1.79
-2.91
-3.05
-2.87
-3.11
-4.24
-6.26
-8.61
-10.41
-10.81
-9.36
-6.13
-1.63
3.36
7.92
11.11
12.07
10.34
6.21
1.01
-3.07
-3.67
0.80
10.37
23.39
37.11
48.82
56.77
60.50
60.56
57.78
52.77
45.76
36.89
26.62
15.80
5.52
-3.29
-10.16
-15.15
-18.71
-21.38
-23.56
-25.55
-27.48
-29.44
-31.47
-33.49
-35.31
-36.56
-36.82
-35.72
-33.06
-28.87
-23.39
-16.99
-10.07
-2.96
4.03
10.55
16.24
20.67
23.47
24.48
23.77
21.62
18.31
14.00
8.76
2.77
-3.39
-8.71
-11.98
-12.41
-10.09
-6.05
-1.95
0.69
1.12
-0.52
-3.36
-6.38
-8.83
-10.39
-10.98
-10.58
-9.14
-6.53
-2.80
1.77
6.68
11.35
15.33
18.38
20.55
22.06
23.15
23.95
24.42
24.35
23.55
21.96
19.71
17.13
14.59
12.34
10.44
8.78
7.16
5.39
3.45
1.37
-0.74
-2.80
-4.80
-6.84
-9.05
-11.55
-14.36
-17.24
-19.84
-21.62
-22.18
-21.25
-18.91
-15.50
-11.48
-7.30
-3.23
0.63
4.26
7.55
10.29
12.19
13.01
12.82
11.91
10.80
9.94
9.60
9.71
9.97
10.02
9.61
8.76
7.67
6.60
5.68
4.83
3.79
2.28
0.06
-2.87
-6.28
-9.70
-12.45
-13.74
-12.90
-9.64
-4.27
2.28
8.68
13.65
16.37
16.64
14.83
11.53
7.32
2.66
-2.08
-6.53
-10.32
-13.27
-15.52
-17.49
-19.66
-22.27
-25.00
-27.03
-27.20
-24.40
-17.88
-7.52
6.06
21.64
37.49
51.75
62.79
69.59
71.86
70.10
65.41
59.18
52.89
47.88
45.22
45.46
48.56
53.71
59.40
63.71
64.77
61.38
53.56
42.78
31.58
22.75
18.20
18.31
21.97
27.16
31.83
34.56
34.61
31.62
25.34
15.66
2.97
-11.50
-25.82
-37.93
-46.66
-52.18
-55.92
-59.72
-64.66
-70.47
-75.58
-78.01
-76.37
-70.77
-62.80
-54.93
-49.31
-46.89
-46.98
-47.72
-46.99
-43.49
-37.19
-29.34
-21.66
-15.61
-11.81
-9.98
-9.33
-9.04
-8.63
-8.03
-7.39
-6.85
-6.42
-6.03
-5.64
-5.31
-5.18
-5.36
-5.88
-6.72
-7.99
-9.83
-12.39
-15.58
-18.90
-21.56
-22.67
-21.61
-18.32
-13.36
-7.64
-2.08
2.72
6.53
9.35
11.15
11.69
10.66
7.96
4.03
-0.12
-3.21
-4.21
-2.85
0.27
4.06
7.52
10.15
11.93
12.99
13.31
12.61
10.63
7.42
3.52
-0.32
-3.48
-5.72
-7.21
-8.24
-8.95
-9.31
-9.19
-8.55
-7.44
-5.93
-3.97
-1.50
1.47
4.63
7.43
9.19
9.44
8.09
5.58
2.77
0.73
0.40
2.33
6.40
11.79
17.19
21.27
23.15
22.74
20.66
17.95
15.55
13.94
13.05
12.49
11.78
10.64
9.05
7.10
4.89
2.48
-0.15
-2.95
-5.70
-8.00
-9.44
-9.75
-8.96
-7.42
-5.65
-4.13
-3.08
-2.48
-2.16
-1.98
-1.92
-2.18
-2.96
-4.39
-6.41
-8.72
-11.03
-13.15
-15.14
-17.21
-19.55
-22.21
-24.92
-27.30
-28.94
-29.68
-29.60
-28.99
-28.16
-27.35
-26.63
-26.00
-25.44
-24.91
-24.28
-23.26
-21.48
-18.59
-14.44
-9.21
-3.41
2.27
7.18
10.92
13.36
14.69
15.25
15.37
15.30
15.15
14.89
14.45
13.79
12.92
11.95
10.96
9.99
9.03
8.03
6.99
5.93
4.93
4.07
3.41
2.88
2.35
1.59
0.41
-1.32
-3.55
-6.06
-8.52
-10.47
-11.47
-11.22
-9.65
-7.00
-3.70
-0.30
2.79
5.40
7.59
9.50
11.20
12.58
13.41
13.49
12.80
11.64
10.42
9.56
9.26
9.47
9.94
10.38
10.63
10.72
10.72
10.72
10.72
10.55
10.01
8.92
7.21
4.98
2.47
-0.03
-2.25
-4.00
-5.14
-5.54
-5.08
-3.65
-1.23
2.02
5.72
9.40
12.60
15.02
16.63
17.59
18.16
18.55
18.78
18.73
18.24
17.18
15.56
13.48
11.09
8.49
5.74
2.91
0.06
-2.65
-5.08
-7.13
-8.77
-10.09
-11.24
-12.33
-13.46
-14.64
-15.89
-17.21
-18.59
-19.97
-21.13
-21.79
-21.59
-20.30
-17.89
-14.60
-10.88
-7.24
-4.08
-1.57
0.29
1.61
2.48
2.92
2.92
2.54
1.86
1.09
0.44
0.08
0.12
0.53
1.19
1.87
2.31
2.34
1.91
1.13
0.21
-0.59
-1.12
-1.42
-1.57
-1.76
-2.12
-2.67
-3.41
-4.25
-5.10
-5.86
-6.39
-6.48
-5.95
-4.64
-2.49
0.42
3.84
7.40
10.70
13.40
15.31
16.41
16.78
16.62
16.06
15.22
14.19
13.05
11.86
10.71
9.69
8.79
7.94
6.99
5.74
4.08
2.07
-0.13
-2.28
-4.16
-5.70
-6.90
-7.87
-8.72
-9.58
-10.54
-11.69
-13.03
-14.40
-15.48
-15.84
-15.10
-13.09
-9.95
-6.06
-1.88
2.17
5.86
9.07
11.77
13.94
15.56
16.57
16.96
16.74
16.02
14.97
13.83
12.79
11.96
11.26
10.55
9.61
8.35
6.79
5.12
3.55
2.24
1.23
0.43
-0.34
-1.20
-2.27
-3.53
-4.95
-6.40
-7.76
-8.91
-9.69
-9.90
-9.39
-8.04
-5.88
-3.13
-0.18
2.51
4.59
5.83
6.23
5.91
5.10
4.01
2.84
1.71
0.69
-0.24
-1.10
-1.99
-2.91
-3.85
-4.73
-5.39
-5.53
-4.70
-2.39
1.68
7.27
13.44
18.79
22.03
22.61
21.09
18.94
17.96
19.57
24.36
32.00
41.62
52.10
62.38
71.58
79.01
84.24
87.21
88.13
87.41
85.38
82.11
77.33
70.54
61.01
47.92
30.56
8.68
-17.00
-44.36
-70.00
-89.96
-100.93
-101.40
-92.14
-75.77
-55.58
-34.27
-13.45
6.18
24.00
38.79
48.54
51.17
45.35
31.26
10.69
-13.41
-37.66
-58.94
-74.93
-84.30
-86.86
-83.37
-75.36
-64.67
-53.04
-41.82
-31.93
-23.89
-18.02
-14.36
-12.76
-12.73
-13.53
-14.40
-14.77
-14.50
-13.76
-12.96
-12.41
-12.25
-12.34
-12.46
-12.42
-12.16
-11.72
-11.26
-10.88
-10.64
-10.60
-10.83
-11.43
-12.51
-14.12
-16.17
-18.30
-20.04
-20.87
-20.36
-18.43
-15.32
-11.53
-7.72
-4.40
-1.86
-0.09
1.11
1.97
2.60
2.98
2.98
2.52
1.65
0.57
-0.45
-1.20
-1.56
-1.58
-1.44
-1.33
-1.44
-1.87
-2.62
-3.61
-4.62
-5.43
-5.88
-6.01
-6.11
-6.64
-7.93
-9.88
-11.75
-12.29
-10.21
-4.80
3.64
13.69
23.22
30.17
33.25
32.19
27.82
21.47
14.41
7.52
1.18
-4.52
-9.69
-14.73
-20.36
-27.39
-36.20
-45.91
-54.01
-56.71
-50.28
-32.93
-6.09
25.54
55.70
79.00
93.12
99.11
100.14
99.25
97.56
93.95
86.22
72.81
53.95
31.74
9.23
-10.79
-26.34
-36.19
-39.49
-35.73
-25.00
-8.48
11.55
32.10
50.42
64.61
73.97
78.79
80.03
79.10
77.69
77.54
80.05
85.69
93.65
101.76
107.40
108.40
104.10
95.72
85.80
77.12
71.46
69.01
68.54
68.14
66.05
61.12
52.75
40.66
24.98
6.67
-12.09
-27.94
-37.30
-37.95
-30.37
-18.05
-6.40
-0.62
-3.58
-14.74
-30.54
-46.14
-57.31
-61.91
-60.35
-55.07
-49.33
-46.21
-47.74
-54.62
-66.29
-81.28
-97.47
-112.58
-124.34
-131.02
-131.87
-127.51
-119.90
-111.48
-103.81
-96.22
-85.52
-67.35
-38.89
-1.49
38.44
71.05
86.79
80.45
53.27
12.35
-32.38
-71.97
-101.02
-118.20
-124.93
-123.60
-116.13
-103.82
-87.91
-70.23
-53.37
-40.12
-32.54
-31.20
-34.77
-40.42
-44.86
-45.44
-41.05
-32.35
-21.30
-10.09
-0.12
8.54
16.94
26.29
37.07
48.38
58.20
64.14
64.43
58.59
47.58
33.40
18.53
5.47
-3.77
-7.90
-6.53
-0.21
9.97
22.74
36.94
51.50
65.15
76.25
83.08
84.46
80.45
72.55
63.24
55.06
49.66
47.39
47.46
48.62
49.73
49.94
48.68
45.37
39.48
30.70
19.24
5.94
-7.92
-20.98
-32.16
-40.91
-47.24
-51.61
-54.69
-57.19
-59.62
-62.24
-64.90
-67.13
-68.25
-67.73
-65.41
-61.64
-57.17
-52.72
-48.69
-44.99
-41.29
-37.34
-33.37
-29.99
-27.95
-27.74
-29.30
-32.07
-35.32
-38.40
-40.84
-42.23
-42.14
-40.18
-36.29
-30.98
-25.26
-20.25
-16.60
-14.14
-11.98
-9.05
-4.74
0.82
6.79
12.07
15.79
17.55
17.45
15.93
13.55
10.88
8.28
5.90
3.63
1.36
-0.87
-2.61
-3.16
-1.76
1.94
7.82
15.24
23.38
31.45
38.82
44.89
49.06
50.69
49.33
44.83
37.37
27.50
16.00
3.86
-7.77
-17.74
-25.10
-29.31
-30.35
-28.65
-24.88
-19.71
-13.88
-8.26
-3.93
-1.94
-2.82
-5.95
-9.48
-10.78
-7.53
1.10
13.86
27.74
39.18
45.69
46.95
44.89
42.72
43.27
47.56
54.46
61.37
65.73
66.26
63.45
58.97
54.52
50.85
47.55
43.56
38.05
31.03
23.24
15.62
8.69
2.22
-4.50
-12.19
-21.13
-31.13
-41.63
-52.06
-61.82
-70.30
-76.73
-80.18
-79.79
-75.22
-66.89
-56.09
-44.62
-34.27
-26.23
-20.87
-17.82
-16.37
-15.81
-15.71
-15.73
-15.57
-14.79
-12.87
-9.50
-4.71
0.96
6.82
12.19
16.62
19.86
21.50
20.81
16.76
8.44
-4.50
-21.50
-41.26
-62.33
-83.66
-104.77
-125.12
-143.37
-156.66
-160.97
-152.33
-128.67
-91.22
-44.68
4.07
48.22
83.27
108.06
124.30
135.01
142.78
148.84
153.06
154.59
152.66
146.79
136.74
122.20
102.74
78.18
49.35
18.58
-10.30
-32.75
-44.98
-45.30
-34.96
-17.82
0.89
16.27
25.13
26.28
19.83
6.23
-14.19
-40.96
-72.62
-106.19
-137.70
-163.44
-181.24
-190.83
-193.31
-189.96
-181.63
-168.91
-152.86
-135.67
-120.34
-109.51
-104.09
-102.71
-102.30
-99.65
-92.95
-82.44
-69.95
-57.58
-46.38
-35.59
-22.92
-5.73
17.61
46.58
78.25
108.16
131.78
146.12
150.60
146.92
137.94
126.33
113.72
100.58
86.96
73.24
60.40
49.58
41.27
34.88
28.93
21.95
13.50
4.57
-2.75
-6.21
-4.49
2.30
12.74
24.81
36.57
46.69
54.53
60.04
63.52
65.43
66.33
66.91
67.88
69.90
73.33
77.91
82.72
86.35
87.53
85.66
81.27
75.95
71.71
70.17
71.96
76.48
82.30
87.75
91.49
92.76
91.45
87.89
82.70
76.65
70.64
65.81
63.45
64.88
71.08
82.16
97.05
113.71
129.66
143.01
152.97
159.86
164.46
167.04
166.79
162.10
151.26
133.32
108.47
77.77
42.73
5.14
-32.80
-68.21
-98.08
-120.14
-134.02
-141.60
-146.24
-151.23
-158.28
-166.97
-175.38
-181.50
-184.37
-184.35
-182.66
-180.47
-178.46
-176.85
-175.80
-175.56
-176.28
-177.47
-177.72
-174.94
-166.97
-152.66
-132.44
-108.45
-83.96
-62.21
-45.27
-33.39
-25.24
-18.82
-12.56
-5.84
0.91
6.65
10.21
10.79
8.25
3.31
-2.28
-6.09
-5.86
-0.66
8.27
17.48
22.59
20.10
8.87
-9.47
-31.45
-53.22
-71.95
-86.53
-97.29
-105.72
-113.75
-122.89
-133.36
-143.25
-148.36
-142.87
-121.36
-81.46
-25.80
37.40
95.97
137.22
151.78
136.84
97.04
42.87
-12.52
-57.06
-82.37
-84.91
-65.69
-29.19
17.85
67.64
112.22
144.86
161.28
160.64
145.62
121.42
94.16
69.07
49.24
35.29
25.84
18.36
10.11
-0.71
-14.31
-29.15
-42.28
-50.45
-51.35
-44.49
-31.61
-15.97
-1.14
10.24
17.24
20.44
21.22
20.84
19.90
18.43
16.22
13.36
10.32
7.81
6.42
6.42
7.56
9.26
10.81
11.68
11.75
11.26
10.70
10.50
10.77
11.28
11.58
11.25
10.17
8.59
7.02
5.91
5.37
5.09
4.45
2.80
-0.27
-4.71
-10.01
-15.32
-19.61
-21.90
-21.39
-17.76
-11.40
-3.51
4.08
9.50
11.64
10.83
8.76
7.70
9.28
13.56
19.03
23.49
25.33
24.51
22.55
21.51
22.75
26.18
30.54
34.50
37.97
42.33
49.44
60.14
73.12
85.16
92.54
93.08
87.33
78.34
70.03
65.14
63.98
64.87
65.86
66.62
69.10
76.58
91.48
113.45
138.93
162.24
177.81
182.09
174.41
156.70
132.34
104.92
77.47
52.08
29.71
10.02
-8.55
-28.29
-51.33
-78.90
-110.85
-145.70
-181.17
-214.34
-241.95
-260.45
-266.61
-258.48
-236.46
-203.77
-165.84
-128.69
-97.07
-73.14
-56.15
-43.28
-31.15
-17.13
-0.16
18.87
37.59
53.07
63.26
68.45
72.21
80.69
100.40
134.77
181.44
231.79
273.67
295.93
292.78
265.63
221.62
169.82
117.31
67.16
18.94
-29.13
-77.70
-124.89
-166.43
-197.19
-213.09
-212.80
-198.65
-176.43
-154.19
-140.06
-139.71
-154.52
-181.00
-211.94
-238.73
-254.19
-254.54
-240.00
-213.95
-181.13
-146.11
-112.29
-81.79
-55.82
-35.10
-19.84
-9.55
-3.07
1.31
5.18
9.54
14.33
18.63
21.19
21.25
19.15
16.34
14.92
16.59
21.77
29.38
37.39
44.01
48.65
52.18
56.20
61.89
69.13
76.55
82.29
85.01
84.44
81.10
75.73
68.75
60.13
49.80
38.08
25.91
14.51
4.94
-2.34
-7.62
-11.62
-15.05
-18.13
-20.46
-21.15
-19.16
-13.73
-4.76
7.00
20.02
32.32
42.06
48.20
50.86
51.14
50.61
50.40
50.59
50.17
47.57
41.69
32.77
22.67
14.31
10.51
12.68
20.15
30.29
39.42
44.07
42.13
33.56
20.53
7.10
-1.38
0.58
17.05
48.68
91.48
136.98
174.43
194.14
190.83
165.29
123.59
74.46
26.10
-15.89
-49.08
-73.37
-89.84
-99.95
-105.25
-107.22
-106.92
-104.49
-98.95
-88.83
-73.19
-52.73
-29.92
-8.32
8.75
19.45
23.79
23.17
19.42
14.05
8.10
2.41
-2.11
-4.46
-4.05
-1.15
2.90
6.18
7.04
4.92
0.73
-3.74
-6.80
-7.75
-7.41
-7.74
-10.99
-18.64
-30.61
-45.15
-59.30
-69.86
-74.48
-72.28
-63.91
-51.14
-36.16
-21.09
-7.76
2.19
7.33
6.76
0.67
-9.36
-20.61
-30.12
-35.80
-37.15
-35.03
-30.91
-25.81
-19.99
-13.20
-5.29
3.21
11.17
17.43
21.36
23.09
23.26
22.47
20.94
18.64
15.50
11.75
7.76
3.84
-0.12
-4.72
-10.71
-18.56
-27.99
-38.09
-47.62
-55.51
-61.21
-64.75
-66.55
-67.12
-66.79
-65.55
-63.19
-59.30
-53.54
-45.62
-35.28
-22.40
-7.01
10.45
29.00
47.01
62.33
72.55
75.56
70.20
56.82
37.41
15.26
-5.78
-22.31
-32.22
-35.18
-32.48
-26.46
-19.67
-14.12
-10.77
-9.51
-9.52
-9.71
-9.30
-8.14
-6.77
-6.08
-6.86
-9.34
-13.04
-16.84
-19.32
-19.12
-15.33
-7.67
3.43
17.02
31.86
46.91
61.62
76.10
90.75
105.85
120.99
134.99
146.30
153.69
156.94
156.91
155.10
152.82
150.46
147.46
142.81
135.81
126.57
115.88
104.47
92.26
78.00
59.66
35.37
4.45
-31.79
-70.12
-106.07
-134.90
-152.56
-156.55
-146.50
-124.73
-96.42
-69.18
-51.61
-50.96
-70.53
-108.01
-155.59
-202.08
-236.24
-250.08
-240.64
-210.02
-163.85
-109.39
-53.93
-3.88
35.83
62.32
75.10
76.21
69.58
59.75
50.49
43.81
39.74
37.04
34.13
29.96
24.32
17.67
10.64
3.73
-2.79
-8.74
-13.82
-17.50
-19.33
-19.25
-17.93
-16.81
-17.48
-20.82
-26.27
-31.77
-34.83
-33.77
-28.63
-20.88
-12.15
-2.88
7.88
21.32
37.18
52.94
64.75
69.62
67.48
61.40
55.75
53.59
54.91
57.14
57.43
55.19
52.96
55.07
64.67
81.13
99.42
111.78
110.92
92.92
58.48
12.13
-39.95
-92.19
-141.06
-184.96
-223.16
-254.68
-278.06
-291.95
-296.03
-291.47
-280.40
-264.72
-245.04
-220.29
-188.52
-148.29
-100.22
-47.80
3.25
46.80
78.68
98.26
108.46
114.07
119.43
126.66
135.37
143.68
149.97
154.02
156.98
160.37
164.79
169.38
172.28
171.66
166.75
158.12
147.26
135.92
125.40
116.15
107.90
100.03
92.13
84.33
77.20
71.35
67.04
64.04
62.00
60.74
60.34
60.92
62.28
63.71
64.24
63.26
60.95
58.32
56.67
56.79
58.37
60.08
60.23
57.69
52.47
45.64
38.66
32.53
27.30
21.94
14.72
3.84
-12.00
-33.06
-58.43
-86.10
-113.38
-137.56
-156.74
-170.59
-180.61
-189.79
-201.50
-218.02
-239.24
-262.10
-281.07
-289.66
-282.44
-257.08
-215.58
-163.98
-110.59
-63.36
-27.62
-4.99
6.39
10.65
12.82
17.68
28.95
48.55
75.87
107.45
137.43
159.30
168.22
162.93
146.07
122.72
97.88
74.55
53.35
33.87
16.55
3.65
-1.16
5.59
25.28
55.73
91.29
124.19
146.68
153.45
143.20
118.96
86.96
54.46
27.28
8.31
-2.72
-8.19
-10.91
-12.82
-14.69
-16.59
-18.64
-21.38
-25.44
-30.96
-37.24
-42.95
-46.63
-47.41
-45.31
-41.26
-36.61
-32.62
-30.03
-28.87
-28.51
-28.07
-26.75
-24.16
-20.39
-15.92
-11.28
-6.82
-2.52
1.85
6.44
11.02
14.92
17.25
17.35
15.12
11.15
6.49
2.35
-0.32
-1.10
-0.19
1.72
3.72
5.09
5.46
4.91
3.75
2.42
1.19
0.17
-0.67
-1.40
-2.09
-2.80
-3.68
-5.01
-7.12
-10.32
-14.70
-20.10
-26.00
-31.65
-36.25
-39.17
-40.13
-39.21
-36.75
-33.13
-28.61
-23.23
-16.89
-9.43
-0.81
8.71
18.48
27.46
34.54
38.93
40.55
40.17
39.24
39.27
41.18
44.92
49.62
54.10
57.58
60.14
62.60
66.02
70.98
77.18
83.57
88.88
92.25
93.76
94.33
95.36
98.03
102.78
109.09
115.64
120.69
122.58
120.07
112.54
99.88
82.50
61.26
37.62
13.65
-8.29
-25.99
-38.05
-44.19
-45.19
-42.26
-36.54
-28.73
-19.29
-8.79
1.64
10.34
15.37
15.11
8.67
-3.80
-21.02
-40.67
-59.74
-75.16
-84.68
-87.66
-85.25
-79.97
-74.64
-71.43
-71.34
-74.30
-79.67
-86.76
-95.00
-103.88
-112.72
-120.65
-126.75
-130.23
-130.57
-127.50
-121.02
-111.50
-99.83
-87.46
-75.97
-66.43
-58.78
-51.66
-42.95
-30.92
-15.16
3.07
21.23
36.69
47.72
54.17
57.33
59.22
61.86
66.71
74.49
85.29
98.64
113.57
128.60
141.84
151.47
156.30
156.31
152.75
147.63
142.74
138.74
134.76
128.86
119.02
104.25
84.96
62.67
39.13
15.51
-7.82
-30.88
-53.42
-74.42
-92.16
-104.80
-111.14
-111.12
-105.82
-97.17
-87.24
-77.65
-69.05
-60.99
-52.20
-41.39
-28.10
-13.24
1.13
12.73
20.17
23.67
24.80
25.57
27.31
30.16
33.41
36.30
38.70
41.10
44.06
47.44
50.09
50.32
46.65
38.71
27.42
14.68
2.53
-7.38
-14.17
-17.67
-18.22
-16.48
-13.37
-9.92
-7.05
-5.26
-4.45
-3.93
-2.69
0.17
5.05
11.64
19.00
25.78
30.57
32.57
32.09
30.67
30.40
32.68
37.03
40.82
40.18
31.63
13.57
-13.19
-45.68
-79.74
-110.83
-134.72
-148.19
-149.82
-140.91
-125.56
-109.61
-98.47
-94.86
-97.71
-102.89
-105.46
-102.07
-92.36
-78.75
-64.96
-54.25
-48.13
-46.34
-47.51
-50.19
-53.57
-57.39
-61.42
-64.92
-66.56
-65.01
-59.62
-51.06
-41.00
-31.37
-23.26
-16.43
-9.56
-1.24
9.11
20.65
31.33
38.83
41.64
39.92
35.66
32.07
32.46
38.90
51.48
68.22
85.78
100.58
109.78
111.91
106.95
96.02
80.89
63.46
45.46
28.20
12.64
-0.61
-11.17
-18.92
-23.97
-26.53
-26.67
-24.10
-18.16
-8.13
5.91
22.68
39.56
53.31
61.30
62.39
57.32
48.06
36.89
25.49
14.73
4.98
-3.54
-10.62
-16.30
-21.23
-26.46
-32.89
-40.58
-48.36
-54.24
-56.30
-53.46
-45.71
-33.77
-18.48
-0.38
20.31
43.22
67.52
91.72
114.08
133.02
147.63
157.85
164.20
167.44
168.07
166.15
161.24
152.72
140.09
123.27
102.55
78.58
52.14
24.25
-3.87
-30.79
-55.15
-76.15
-93.69
-108.10
-119.70
-128.28
-133.18
-133.87
-130.68
-124.99
-118.80
-113.85
-110.74
-108.82
-106.77
-103.58
-99.26
-94.77
-91.41
-90.04
-90.67
-92.68
-95.48
-98.98
-103.60
-109.76
-117.12
-124.25
-129.12
-130.15
-127.34
-122.68
-119.40
-120.33
-126.16
-134.44
-140.37
-138.72
-126.31
-103.55
-74.44
-44.88
-20.49
-4.82
1.17
-1.52
-11.19
-26.32
-45.85
-68.74
-93.35
-117.00
-136.40
-148.34
-150.69
-142.96
-126.15
-101.92
-71.56
-35.46
6.35
52.64
99.54
140.36
167.33
174.66
161.29
131.74
94.55
59.08
32.19
16.71
11.68
13.93
19.66
25.49
28.68
27.39
21.03
10.61
-1.23
-10.98
-15.35
-12.36
-1.99
13.93
32.44
50.43
65.41
75.87
81.26
81.73
78.07
71.69
64.68
59.62
58.84
63.68
73.73
86.76
99.46
108.65
112.28
109.78
101.61
88.51
71.32
51.25
30.35
11.47
-2.49
-9.74
-10.34
-6.01
0.93
8.71
16.50
23.73
29.14
30.24
24.15
9.33
-12.88
-38.16
-60.79
-76.22
-83.21
-84.04
-83.10
-84.54
-90.37
-99.94
-110.92
-120.81
-128.30
-133.62
-138.08
-142.99
-148.93
-155.41
-160.99
-163.81
-161.99
-154.11
-139.55
-118.73
-93.19
-65.46
-38.63
-15.70
1.20
11.65
17.31
21.88
30.12
46.22
72.06
106.00
143.07
176.60
200.64
212.12
211.61
202.35
188.31
172.42
155.89
138.70
120.85
103.07
86.85
73.55
63.61
56.21
49.85
43.13
35.57
27.64
20.47
15.06
11.77
10.17
9.25
8.00
5.88
3.15
0.81
0.18
2.34
7.63
15.45
24.52
33.45
41.42
48.61
56.11
65.24
76.70
89.90
103.02
113.58
119.41
119.46
114.00
104.19
91.51
77.17
62.05
46.96
32.96
21.46
13.76
10.53
11.35
14.75
18.65
21.17
21.43
19.98
18.53
19.22
23.66
32.12
43.31
54.84
64.02
68.68
67.78
61.65
52.16
42.39
35.92
35.60
42.16
53.37
64.37
69.41
64.21
47.95
23.61
-3.52
-28.11
-46.96
-59.74
-68.38
-75.55
-83.30
-92.33
-102.17
-111.82
-120.39
-127.19
-131.26
-130.76
-123.21
-106.76
-82.19
-53.99
-29.65
-16.71
-19.18
-35.25
-57.83
-77.91
-88.78
-88.72
-80.76
-70.07
-60.84
-54.73
-51.27
-49.54
-49.44
-51.53
-55.96
-61.48
-65.51
-65.23
-59.17
-48.13
-34.85
-22.95
-15.53
-14.17
-18.89
-28.41
-40.80
-53.96
-65.91
-74.95
-79.81
-79.62
-74.06
-63.22
-47.64
-28.29
-6.60
15.50
35.71
51.75
62.01
66.12
65.18
61.36
57.10
54.16
53.01
52.98
52.88
51.95
50.35
48.96
48.66
49.68
51.51
53.45
55.28
57.49
60.75
65.10
69.56
72.55
72.95
71.09
68.76
68.52
72.36
80.71
92.32
104.75
115.20
121.27
121.24
114.20
100.16
80.00
55.18
27.17
-3.07
-35.13
-68.64
-102.50
-134.36
-160.97
-179.18
-187.16
-185.20
-175.51
-161.40
-146.02
-131.51
-118.60
-106.85
-95.37
-83.34
-70.50
-57.17
-44.05
-31.99
-21.69
-13.61
-7.95
-4.72
-3.67
-4.08
-4.79
-4.18
-0.59
7.14
19.07
34.06
49.96
64.43
75.59
82.59
85.58
85.32
82.57
77.67
70.58
61.20
49.91
37.69
26.02
16.26
9.22
4.80
2.15
0.02
-2.84
-7.28
-13.50
-21.11
-29.27
-37.12
-44.41
-51.85
-61.16
-74.59
-94.07
-120.23
-151.93
-186.39
-219.88
-248.61
-269.47
-280.47
-280.84
-271.03
-252.66
-228.31
-201.07
-173.86
-148.77
-126.71
-107.61
-91.00
-76.51
-64.10
-53.82
-45.34
-37.79
-30.08
-21.55
-12.63
-4.82
0.16
1.47
0.11
-1.17
1.07
9.34
24.01
43.27
64.09
83.65
100.25
113.26
122.39
127.01
126.22
119.87
109.48
98.33
90.27
87.98
91.61
98.90
106.58
112.05
114.43
114.32
112.81
110.71
108.41
106.46
105.93
108.22
114.31
123.77
134.57
143.69
148.26
146.53
138.13
123.76
104.65
82.31
58.34
34.59
12.92
-5.31
-19.66
-30.83
-40.37
-50.00
-60.95
-73.55
-87.36
-101.53
-115.26
-127.85
-138.52
-146.10
-149.21
-146.72
-138.49
-125.74
-110.74
-96.03
-83.37
-73.23
-64.88
-56.99
-48.30
-38.07
-26.19
-13.16
-0.03
11.91
21.44
27.97
31.89
34.36
36.57
39.03
41.28
42.47
42.24
41.26
40.98
42.57
45.92
49.42
50.89
49.02
44.46
39.63
37.40
39.47
45.44
52.96
59.00
61.29
59.23
53.91
47.36
41.47
37.14
34.08
31.19
27.33
22.13
16.19
10.92
7.85
7.86
10.85
15.94
22.04
28.37
34.67
40.88
46.71
51.44
54.22
54.68
53.50
52.48
53.89
59.53
69.77
83.13
96.58
106.40
109.25
103.18
88.10
65.78
39.34
12.38
-11.88
-31.41
-45.76
-56.04
-64.38
-73.13
-83.95
-97.14
-111.55
-124.95
-134.88
-139.52
-138.22
-131.49
-120.57
-106.76
-91.02
-74.02
-56.41
-39.17
-23.52
-10.44
-0.14
8.16
15.92
24.68
35.22
47.25
59.52
70.27
77.92
81.49
80.81
76.46
69.52
61.42
53.61
47.32
43.25
41.54
41.68
42.69
43.42
42.77
40.05
35.15
28.63
21.59
15.20
10.25
6.81
4.31
1.86
-1.21
-4.92
-8.61
-11.25
-11.98
-10.50
-7.30
-3.41
0.06
2.37
3.57
4.47
6.21
9.72
15.12
21.48
27.15
30.35
29.91
25.63
18.25
9.12
-0.21
-8.27
-13.81
-16.01
-14.60
-10.10
-3.78
2.69
7.78
10.65
11.42
10.85
9.94
9.34
9.20
9.13
8.52
6.76
3.43
-1.56
-7.92
-14.92
-21.52
-26.54
-28.94
-28.10
-23.98
-17.13
-8.42
1.17
10.84
20.13
28.84
36.87
44.06
50.15
54.80
57.77
59.08
59.08
58.44
57.92
58.12
59.24
60.94
62.43
62.77
61.17
57.34
51.56
44.57
37.38
30.95
26.02
22.86
21.22
20.25
18.71
15.28
9.09
0.13
-10.68
-21.84
-31.83
-39.61
-44.81
-47.33
-47.06
-43.61
-36.54
-25.89
-12.45
2.34
16.81
29.74
40.71
49.97
58.00
65.10
71.23
76.26
80.27
83.79
87.62
92.37
97.99
103.67
108.03
109.72
108.03
103.19
96.22
88.39
80.56
72.82
64.24
53.68
40.39
24.51
7.05
-10.51
-26.93
-41.59
-54.62
-66.79
-78.97
-91.84
-105.75
-120.65
-135.88
-150.04
-160.89
-165.66
-162.47
-150.55
-130.95
-106.31
-80.02
-55.27
-34.26
-18.07
-6.26
0.71
3.34
2.37
-1.11
-5.84
-10.64
-14.74
-17.84
-18.64
-18.62
-17.82
-16.27
-14.15
-11.81
-9.70
-8.02
-6.56
-2.60
2.29
8.37
15.25
21.92
27.12
29.83
29.78
27.58
27.31
27.54
29.41
33.48
39.74
47.82
57.16
67.10
59.30
54.52
49.36
44.27
40.47
39.48
42.32
48.76
57.06
64.62
71.82
74.62
73.53
70.16
66.19
62.58
59.37
56.18
52.91
52.22
52.62
54.39
56.64
57.43
54.60
46.80
34.28
18.85
4.51
-7.71
-16.47
-21.82
-24.78
-26.72
-28.71
-31.16
-33.95
-36.02
-37.75
-39.05
-40.08
-41.02
-41.90
-42.60
-42.85
-42.43
-41.10
-39.31
-37.38
-35.62
-34.21
-33.13
-32.28
-31.59
-31.01
-30.55
-30.21
-29.95
-29.75
-29.61
-29.54
-29.55
-29.49
-29.06
-27.84
-25.58
-22.27
-18.27
-14.27
-10.96
-8.86
-8.19
-8.79
-10.27
-12.16
-13.95
-15.28
-15.95
-15.93
-15.35
-14.35
-13.07
-11.53
-9.77
-7.76
-5.53
-3.16
-0.71
1.77
4.23
6.60
8.84
10.95
13.02
15.20
17.64
20.38
23.25
26.01
28.49
30.73
33.03
35.81
39.35
43.63
48.17
52.16
54.80
55.46
53.93
50.40
45.33
39.39
33.23
27.37
22.05
17.10
11.96
5.81
-2.02
-11.76
-22.90
-34.42
-45.21
-54.54
-62.57
-70.18
-78.69
-89.06
-101.37
-114.54
-126.53
-134.98
-137.92
-134.43
-124.88
-110.77
-94.24
-77.52
-62.46
-50.43
-42.21
-38.16
-38.06
-41.12
-45.87
-50.49
-53.23
-52.91
-49.34
-43.30
-36.17
-29.46
-24.31
-21.21
-20.01
-20.08
-20.63
-20.94
-20.65
-19.90
-19.33
-19.89
-22.45
-27.33
-33.98
-41.05
-46.73
-49.49
-48.56
-44.34
-38.19
-31.83
-26.70
-23.40
-21.60
-20.31
-18.42
-15.33
-11.26
-7.28
-4.99
-6.11
-11.79
-22.02
-35.06
-47.26
-53.69
-49.51
-31.95
-1.95
35.37
71.90
99.08
110.72
104.88
84.11
53.98
20.96
-9.49
-33.91
-50.73
-59.85
-62.09
-58.95
-52.55
-45.37
-39.75
-37.32
-38.35
-41.73
-45.27
-46.58
-43.96
-37.03
-26.80
-15.20
-4.33
4.37
10.48
14.62
17.94
21.60
26.17
31.41
36.31
39.53
39.93
37.15
31.96
26.16
22.12
21.97
26.79
36.03
47.40
57.42
62.41
59.79
49.04
31.99
12.33
-5.71
-18.79
-25.55
-26.92
-25.44
-24.14
-25.28
-29.61
-36.32
-43.60
-49.61
-53.13
-53.88
-52.24
-48.87
-44.39
-39.31
-34.13
-29.27
-24.76
-20.06
-13.96
-5.34
5.97
18.30
28.29
32.14
27.33
14.14
-4.33
-23.44
-38.90
-48.15
-50.57
-46.69
-37.34
-23.43
-6.51
10.48
23.17
26.92
18.82
-0.73
-27.55
-55.07
-76.58
-87.55
-86.90
-76.52
-59.93
-40.50
-20.36
-0.29
19.61
39.09
57.16
72.29
83.03
88.77
90.08
88.40
85.44
82.38
79.57
76.61
72.88
68.05
62.32
56.36
51.00
46.90
44.30
43.01
42.63
42.77
43.20
43.80
44.45
44.96
45.02
44.27
42.48
39.51
35.44
30.50
25.00
19.28
13.63
8.24
3.18
-1.62
-6.16
-10.32
-13.76
-16.03
-16.68
-15.51
-12.60
-8.33
-3.21
2.18
7.36
12.04
16.12
19.66
22.88
26.00
29.12
32.12
34.64
36.27
36.72
35.99
34.38
32.41
30.60
29.34
28.81
28.90
29.35
29.87
30.19
30.07
29.36
27.92
25.60
22.28
17.83
12.14
5.16
-3.06
-12.31
-22.07
-31.50
-39.52
-44.98
-47.03
-45.40
-40.56
-33.52
-25.58
-17.87
-11.08
-5.37
-0.56
3.66
7.47
10.86
13.71
15.90
17.39
18.25
18.59
18.46
17.86
16.78
15.28
13.54
11.80
10.30
9.13
8.17
7.14
5.76
3.94
1.88
-0.01
-1.34
-1.98
-2.16
-2.34
-2.96
-4.23
-6.15
-8.53
-11.17
-13.90
-16.49
-18.59
-19.64
-19.12
-16.65
-12.30
-6.49
0.09
6.69
12.72
17.79
21.69
24.41
25.98
26.54
26.30
25.51
24.39
23.15
21.97
20.94
20.15
19.62
19.29
19.06
18.77
18.26
17.42
16.14
14.45
12.40
10.08
7.61
5.11
2.70
0.51
-1.39
-3.03
-4.57
-6.26
-8.31
-10.70
-13.10
-14.96
-15.74
-15.13
-13.15
-10.13
-6.52
-2.67
1.19
4.81
7.83
9.74
10.05
8.61
5.82
2.63
0.11
-0.91
-0.25
1.60
3.79
5.49
6.23
6.01
5.13
3.99
2.84
1.76
0.68
-0.49
-1.80
-3.19
-4.59
-5.96
-7.31
-8.76
-10.52
-12.78
-15.61
-18.94
-22.41
-25.52
-27.67
-28.37
-27.32
-24.52
-20.30
-15.13
-9.60
-4.23
0.61
4.72
8.09
10.85
13.17
15.20
16.99
18.44
19.33
19.47
18.81
17.48
15.85
14.32
13.21
12.69
12.69
12.96
13.14
12.81
11.58
9.24
5.82
1.60
-2.89
-7.07
-10.42
-12.73
-14.08
-14.80
-15.36
-16.09
-17.13
-18.36
-19.40
-19.83
-19.21
-17.31
-14.11
-9.80
-4.74
0.65
5.96
10.86
15.14
18.75
21.76
24.24
26.21
27.56
28.12
27.73
26.36
24.14
21.33
18.21
14.98
11.73
8.41
4.91
1.17
-2.82
-6.87
-10.70
-13.96
-16.39
-17.88
-18.54
-18.63
-18.44
-18.26
-18.27
-18.63
-19.49
-20.98
-23.09
-25.60
-28.02
-29.72
-30.03
-28.56
-25.34
-20.79
-15.61
-10.49
-5.93
-2.09
1.08
3.80
6.25
8.50
10.52
12.24
13.64
14.83
15.92
16.99
17.94
18.51
18.38
17.39
15.64
13.56
11.72
10.60
10.33
10.64
10.97
