1542075538.00
64.000000
-0.00
-0.00
-0.00
-0.00
-0.00
-0.00
-0.00
-0.00
-0.00
-0.00
0.00
0.01
0.01
-0.00
-0.03
-0.05
-0.05
0.00
0.13
0.36
0.66
1.01
1.37
1.72
2.06
2.40
2.79
3.24
3.80
4.42
5.06
5.66
6.20
6.68
7.15
7.68
8.31
9.14
10.09
11.04
11.89
12.57
13.15
13.79
14.70
16.04
18.03
20.47
23.11
25.65
27.92
29.99
32.19
34.93
38.53
43.37
49.09
55.17
61.02
66.29
71.04
75.75
81.11
87.64
95.88
105.31
115.13
124.47
132.75
140.02
146.90
154.71
162.14
171.46
183.26
197.65
213.42
227.68
236.11
234.07
218.18
187.55
144.56
93.05
37.35
-19.30
-75.31
-130.41
-184.72
-237.96
-289.31
-337.30
-381.01
-419.75
-452.91
-479.56
-498.29
-507.33
-504.95
-490.09
-462.60
-423.76
-375.83
-321.66
-264.04
-205.45
-147.83
-92.63
-41.03
6.12
47.88
83.55
112.23
133.88
149.07
158.78
164.16
166.30
166.10
164.19
161.00
156.88
152.21
147.39
142.74
138.58
135.04
132.15
129.85
128.02
126.50
125.25
124.18
123.23
122.37
121.47
120.42
119.06
117.29
114.97
111.95
108.08
103.13
97.34
90.79
83.51
75.53
66.88
57.57
47.68
37.28
26.48
15.44
4.28
-6.81
-17.60
-27.87
-37.34
-45.77
-52.92
-58.57
-62.55
-64.80
-65.33
-64.21
-61.56
-57.56
-52.38
-46.20
-39.21
-31.53
-23.32
-14.69
-5.66
3.77
13.63
23.96
34.72
45.83
57.11
68.23
78.83
88.48
96.75
103.21
107.50
109.38
108.76
105.64
100.13
92.42
82.75
71.32
58.34
44.02
28.57
12.18
-4.89
-22.33
-39.79
-56.83
-72.93
-87.51
-100.02
-109.97
-116.94
-120.68
-121.06
-118.12
-112.09
-103.36
-92.50
-80.24
-67.37
-54.74
-43.22
-33.55
-26.32
-21.93
-20.48
-21.86
-25.67
-31.35
-38.16
-45.30
-51.96
-57.46
-61.29
-63.12
-62.79
-60.38
-56.09
-50.19
-42.95
-34.67
-25.63
-16.13
-6.64
2.20
9.67
15.04
17.76
17.51
14.28
8.30
0.13
-9.55
-19.91
-30.36
-40.28
-48.99
-55.85
-60.31
-61.94
-60.49
-56.26
-49.89
-42.79
-36.22
-31.03
-27.49
-25.28
-23.73
-21.87
-19.52
-16.83
-15.66
-17.61
-23.58
-33.49
-46.20
-60.11
-72.84
-83.88
-93.50
-104.60
-119.66
-140.10
-165.76
-194.85
-224.83
-252.06
-275.73
-296.30
-317.48
-342.26
-371.81
-405.04
-438.51
-467.71
-486.84
-494.13
-470.20
-402.91
-288.41
-134.86
39.02
211.44
352.96
460.36
537.68
590.33
620.02
627.77
617.14
591.77
556.78
517.91
482.05
451.93
428.10
407.71
387.79
366.27
342.33
317.06
292.51
272.13
256.57
245.13
235.10
223.84
209.39
190.84
168.89
145.41
123.54
104.88
90.00
77.83
66.55
54.16
39.04
20.87
0.84
-18.34
-34.22
-45.30
-51.83
-55.86
-60.56
-68.94
-82.38
-99.86
-118.14
-133.59
-143.86
-149.12
-152.30
-157.80
-169.47
-189.04
-215.36
-245.27
-275.00
-301.11
-320.69
-331.06
-329.64
-314.83
-287.68
-252.97
-218.51
-191.86
-176.61
-170.09
-164.84
-153.09
-131.81
-105.60
-84.41
-77.88
-89.22
-112.32
-134.32
-141.97
-128.60
-97.26
-58.76
-24.93
-2.39
10.60
21.60
37.81
60.22
81.65
90.02
75.39
36.77
-15.93
-65.73
-96.23
-98.55
-73.84
-31.37
17.08
61.88
97.90
123.54
138.80
143.12
134.75
111.62
73.10
21.95
-34.76
-85.86
-118.62
-122.82
-95.72
-45.07
12.28
56.40
73.28
61.28
31.32
0.20
-18.88
-22.79
-18.10
-14.35
-15.95
-18.47
-12.36
8.70
40.90
70.31
80.54
63.44
25.81
-13.11
-31.92
-19.17
20.07
67.11
100.22
106.27
87.05
56.97
33.98
29.41
42.19
60.96
71.63
65.23
41.81
8.59
-25.17
-52.79
-71.55
-80.63
-78.64
-63.44
-34.29
5.14
46.09
77.20
89.04
78.20
49.07
11.78
-21.31
-39.69
-37.83
-16.60
17.25
53.23
81.30
95.55
95.87
86.95
74.90
64.05
55.64
48.94
43.47
39.85
38.56
37.30
30.36
10.84
-24.99
-73.98
-126.00
-167.52
-187.36
-181.45
-154.24
-116.62
-81.89
-61.95
-64.17
-89.93
-134.01
-185.88
-232.84
-264.34
-275.78
-270.05
-255.08
-239.29
-227.12
-217.34
-205.13
-185.94
-159.15
-128.86
-102.49
-87.46
-88.01
-103.73
-129.86
-159.06
-183.85
-198.89
-202.49
-196.52
-184.90
-171.42
-158.03
-144.67
-130.53
-115.65
-101.66
-91.11
-85.70
-85.05
-86.56
-86.54
-82.23
-73.11
-61.11
-49.81
-42.77
-42.04
-47.40
-56.63
-66.60
-74.65
-79.62
-82.09
-83.88
-86.88
-92.06
-98.96
-105.82
-110.43
-110.96
-106.93
-99.25
-89.53
-79.13
-68.14
-55.04
-37.24
-12.22
21.50
63.53
111.78
163.43
215.99
267.87
318.43
367.39
414.24
458.40
498.67
533.80
562.88
585.04
598.47
600.03
585.35
550.97
498.63
436.12
376.13
331.53
309.66
308.64
318.51
326.93
326.05
318.74
313.66
318.63
334.56
354.49
368.93
372.76
369.24
367.57
380.38
411.74
454.58
493.92
515.72
515.59
501.37
487.97
488.00
509.02
545.47
583.54
609.14
615.78
607.35
594.29
585.95
552.84
471.15
327.80
130.66
-93.66
-312.29
-499.73
-644.59
-748.51
-820.74
-867.21
-892.29
-898.20
-887.05
-861.83
-826.64
-786.43
-746.16
-710.16
-677.48
-647.29
-616.45
-582.81
-545.50
-505.22
-463.65
-423.14
-386.28
-352.87
-322.08
-292.34
-262.23
-229.98
-194.22
-154.21
-110.39
-64.43
-17.70
28.35
73.29
114.36
150.82
183.23
212.98
241.85
271.33
302.15
332.63
357.88
369.95
360.92
326.30
268.93
200.28
137.26
95.91
84.49
99.55
127.27
150.10
153.77
132.57
89.89
34.71
-22.76
-73.97
-112.33
-132.39
-129.48
-101.80
-52.81
7.58
64.56
102.48
109.93
83.13
27.30
-44.77
-116.35
-170.88
-195.87
-185.74
-142.77
-76.64
-1.84
66.25
115.04
137.50
133.02
106.50
66.55
23.40
-13.46
-37.19
-45.37
-40.86
-31.24
-26.16
-33.20
-53.70
-80.98
-102.50
-106.01
-86.23
-49.33
-11.20
10.04
3.28
-29.44
-73.72
-110.03
-123.34
-109.50
-75.88
-36.34
-4.30
12.19
11.70
-2.43
-24.80
-49.78
-72.09
-87.21
-92.31
-86.78
-71.93
-49.71
-21.49
11.88
48.64
85.00
115.04
132.06
131.67
114.13
84.31
49.13
14.55
-15.41
-37.14
-45.85
-36.48
-6.46
41.65
99.56
156.18
202.12
228.85
234.46
223.82
205.12
184.76
164.28
141.49
113.86
80.93
47.30
15.87
-9.96
-26.57
-31.09
-22.57
-3.36
21.37
44.85
60.85
66.34
63.36
57.09
52.44
50.83
48.56
38.54
13.27
-31.62
-95.08
-169.94
-244.91
-307.47
-347.20
-359.29
-346.03
-316.44
-282.86
-256.13
-241.02
-235.29
-231.64
-216.61
-181.22
-124.10
-53.25
17.58
75.57
114.26
134.48
144.50
153.51
168.64
194.25
230.42
272.75
312.42
338.71
343.11
322.98
282.34
229.22
172.24
117.11
66.11
19.47
-22.54
-58.87
-88.79
-113.65
-137.14
-162.42
-189.48
-212.63
-222.63
-211.38
-177.24
-127.92
-78.12
-43.28
-33.05
-47.89
-80.41
-119.98
-157.13
-185.12
-198.97
-194.19
-167.47
-119.58
-58.32
2.08
45.30
59.66
43.32
4.93
-40.25
-76.25
-91.39
-80.59
-45.03
9.00
71.09
128.14
166.12
174.02
147.64
92.07
20.80
-49.00
-102.68
-132.64
-139.93
-131.91
-118.07
-105.81
-98.56
-95.90
-95.22
-93.45
-87.69
-75.39
-54.51
-24.17
13.96
54.99
91.46
115.58
122.11
110.44
85.17
54.63
28.34
14.01
15.42
31.42
56.34
81.68
98.74
101.44
88.15
62.08
29.60
-2.18
-27.53
-43.00
-47.27
-40.48
-24.21
-1.74
22.08
41.65
52.73
54.36
49.59
43.85
42.09
45.88
52.33
55.67
50.42
34.49
10.39
-15.79
-37.21
-48.99
-49.92
-42.30
-30.53
-19.15
-11.05
-6.51
-3.60
0.38
7.29
16.78
26.38
33.06
35.08
33.49
31.51
32.55
37.68
44.18
46.37
38.42
17.71
-13.31
-47.51
-75.62
-89.59
-85.14
-62.90
-28.06
11.10
45.18
65.93
68.46
52.68
23.70
-9.75
-38.14
-54.28
-55.41
-43.45
-23.59
-2.08
15.48
24.96
24.08
12.93
-5.28
-23.91
-34.34
-29.27
-6.82
26.94
59.57
77.28
71.73
44.69
7.59
-24.09
-38.47
-32.98
-14.47
5.80
18.98
23.04
22.15
21.93
24.50
26.35
21.03
4.12
-22.94
-52.82
-75.63
-83.92
-75.42
-52.99
-22.37
9.91
37.34
53.92
54.71
38.01
7.38
-27.98
-55.86
-65.88
-54.03
-24.30
13.36
46.93
66.77
67.97
50.60
19.27
-17.73
-49.69
-65.73
-58.51
-28.01
16.60
59.36
83.54
79.18
48.01
3.17
-36.61
-55.48
-47.51
-18.57
17.08
43.72
51.22
38.48
12.55
-15.60
-36.12
-43.79
-38.73
-24.91
-7.63
8.67
21.06
27.91
28.34
22.05
9.94
-5.21
-18.88
-26.33
-24.80
-15.24
-2.24
8.22
11.84
8.20
0.79
-5.35
-6.54
-2.56
3.43
7.09
5.45
-1.58
-11.29
-19.97
-24.90
-25.54
-23.28
-19.92
-16.18
-11.09
-2.66
10.21
25.83
39.39
44.53
36.32
14.26
-16.66
-47.21
-67.57
-71.27
-57.88
-32.97
-5.68
14.83
22.40
15.43
-3.43
-28.63
-53.58
-72.10
-79.31
-71.86
-48.39
-10.01
38.97
91.09
136.74
166.18
172.85
156.28
123.26
86.19
58.96
50.90
62.41
84.85
105.00
112.24
104.44
88.62
76.44
76.91
90.79
109.64
120.52
112.90
84.19
40.52
-6.69
-46.22
-71.44
-81.59
-80.64
-73.58
-63.92
-52.85
-40.58
-28.00
-17.46
-12.70
-16.99
-31.65
-53.92
-77.32
-93.57
-95.58
-80.20
-49.75
-12.46
19.41
32.79
19.58
-19.45
-74.45
-130.61
-174.49
-199.58
-208.82
-206.60
-200.54
-196.80
-197.21
-199.27
-199.39
-196.29
-191.51
-188.01
-187.31
-188.87
-189.72
-186.21
-175.95
-159.25
-140.71
-122.96
-107.71
-94.96
-83.56
-71.62
-57.49
-40.67
-22.47
-5.35
8.75
18.97
26.40
33.48
43.34
56.95
74.25
93.65
112.66
129.36
142.94
154.45
166.24
181.10
200.82
225.44
252.59
277.99
296.86
304.84
299.30
279.95
248.94
210.58
170.73
135.30
108.88
93.38
87.36
86.57
85.70
80.59
69.97
55.86
41.99
31.55
25.30
21.28
16.12
7.13
-5.70
-19.51
-29.89
-33.46
-29.97
-22.64
-16.58
-15.80
-20.76
-27.97
-32.00
-29.00
-19.54
-8.47
-2.33
-5.08
-15.42
-27.46
-34.19
-31.96
-22.78
-13.00
-9.24
-14.25
-25.14
-35.47
-39.28
-35.01
-26.52
-20.58
-22.47
-32.44
-45.12
-52.48
-48.62
-33.54
-13.78
1.05
3.58
-7.22
-24.92
-39.21
-41.55
-30.07
-10.90
5.01
7.98
-5.10
-28.88
-52.54
-65.96
-64.97
-52.85
-36.96
-23.53
-13.93
-5.04
6.47
19.92
30.02
30.50
19.72
3.30
-8.70
-8.89
1.33
11.22
7.10
-18.38
-59.61
-99.00
-115.63
-96.14
-42.15
30.12
97.43
139.75
147.91
125.98
87.35
48.32
21.73
13.08
20.39
36.47
52.42
60.88
57.93
43.85
22.70
0.72
-15.97
-23.47
-21.93
-15.86
-11.37
-13.09
-21.36
-31.65
-37.13
-33.60
-22.14
-9.26
-2.95
-6.19
-14.21
-16.69
-3.89
26.66
67.10
104.26
126.22
128.76
118.14
107.01
107.16
123.65
153.16
186.03
213.50
231.54
236.28
228.54
211.50
188.89
164.09
144.71
129.13
113.39
94.14
69.88
40.08
7.28
-24.32
-49.75
-64.86
-68.88
-63.86
-55.28
-50.34
-54.51
-69.15
-91.32
-115.24
-135.15
-148.38
-154.77
-156.48
-157.13
-160.45
-169.88
-187.84
-214.32
-245.36
-273.26
-287.44
-277.96
-239.52
-174.34
-92.72
-10.96
52.94
84.54
77.30
35.14
-28.49
-94.72
-145.63
-170.08
-166.12
-139.96
-101.31
-58.95
-19.08
15.07
42.06
61.43
74.11
83.00
91.51
101.27
109.66
108.86
90.39
50.44
-6.77
-70.21
-126.82
-168.11
-193.41
-203.28
-203.10
-198.63
-193.30
-187.62
-181.32
-174.78
-170.21
-169.41
-171.82
-175.14
-175.12
-168.17
-152.96
-133.03
-111.20
-90.39
-72.20
-56.30
-41.27
-25.01
-6.25
14.73
36.13
56.10
73.09
87.12
99.91
112.12
125.02
139.80
158.04
181.85
213.48
253.15
297.76
340.38
372.32
386.21
378.02
348.68
302.70
245.84
183.12
119.31
60.71
16.93
-1.72
10.64
51.93
111.01
171.60
218.93
245.81
248.76
232.99
207.99
181.62
157.51
134.80
111.14
85.81
60.42
37.42
19.04
7.78
0.56
-5.99
-13.72
-22.36
-29.81
-33.64
-32.26
-24.99
-12.75
1.98
16.77
30.00
41.10
50.30
58.03
64.38
69.17
71.72
70.80
65.87
57.10
45.44
32.31
19.12
6.74
-4.37
-14.48
-24.60
-35.72
-48.55
-63.54
-80.91
-101.01
-124.62
-152.54
-184.83
-219.95
-254.30
-283.54
-304.10
-314.33
-314.24
-304.14
-283.52
-251.42
-208.60
-159.96
-114.93
-84.68
-77.22
-92.80
-122.91
-153.65
-171.57
-169.01
-145.63
-106.65
-59.12
-9.32
37.63
76.64
101.76
107.09
89.54
52.04
4.51
-38.18
-62.12
-60.42
-36.77
-3.40
25.60
41.43
44.10
40.51
38.23
39.10
38.12
27.03
1.99
-31.33
-59.12
-66.86
-48.18
-9.13
33.31
60.30
60.03
34.47
-1.62
-28.59
-32.22
-10.78
25.23
57.52
69.82
53.98
13.10
-41.05
-94.80
-139.11
-172.08
-196.20
-216.34
-225.76
-218.20
-190.63
-145.53
-90.59
-35.47
6.03
31.44
42.18
42.30
38.86
35.10
31.92
28.04
21.02
8.60
-8.71
-29.38
-50.07
-67.85
-80.95
-88.60
-91.35
-90.48
-88.95
-86.20
-81.58
-74.13
-63.99
-52.61
-41.91
-33.96
-29.92
-29.84
-31.68
-33.23
-32.17
-27.08
-17.90
-5.07
9.24
23.50
36.83
49.50
62.15
76.40
94.79
120.30
154.96
197.56
242.10
277.81
292.91
279.24
237.18
176.78
114.37
66.18
42.46
45.06
68.84
105.37
145.96
182.36
205.98
207.75
180.69
124.33
48.51
-27.32
-79.98
-91.54
-57.27
11.92
94.03
164.52
205.15
208.97
179.77
128.24
67.63
11.03
-30.04
-47.00
-36.12
-1.33
44.97
84.50
99.51
80.18
30.03
-34.46
-90.09
-116.47
-104.58
-60.70
-3.75
42.55
59.32
39.93
-7.95
-66.22
-114.39
-137.52
-130.77
-99.09
-52.94
-3.61
39.77
70.63
84.57
79.58
57.35
24.70
-7.64
-28.89
-32.95
-21.48
-3.00
11.39
13.36
0.80
-22.12
-47.68
-68.47
-79.94
-81.15
-74.01
-61.95
-48.89
-38.16
-31.68
-29.08
-27.92
-25.24
-19.67
-13.05
-9.86
-14.76
-29.04
-48.29
-62.92
-61.72
-37.41
8.93
67.04
120.81
154.21
156.79
126.70
70.51
0.41
-69.23
-125.02
-156.78
-158.98
-132.22
-84.05
-28.14
18.95
43.09
38.29
10.19
-25.47
-49.24
-46.63
-15.23
33.52
79.39
102.57
92.86
53.84
0.32
-49.16
-80.11
-86.83
-72.33
-44.98
-14.71
9.96
23.11
22.02
7.55
-15.04
-36.63
-46.75
-37.62
-8.19
34.14
75.37
100.07
97.58
66.79
16.86
-35.89
-73.92
-85.18
-67.53
-29.44
13.76
46.47
59.09
51.30
30.79
8.59
-6.29
-9.97
-3.61
9.44
26.51
46.60
69.07
91.65
109.76
117.78
112.17
93.80
68.04
42.34
22.92
11.98
7.10
3.18
-4.99
-20.00
-40.82
-63.32
-81.95
-91.44
-88.96
-75.22
-54.22
-31.90
-13.92
-3.75
-1.69
-5.56
-11.26
-15.07
-14.92
-10.62
-3.17
6.33
17.30
29.49
42.23
55.19
67.69
79.20
89.83
100.58
113.20
129.49
150.22
170.43
184.88
189.16
182.01
166.04
146.49
128.81
116.56
112.42
112.40
111.06
103.41
86.85
62.13
32.95
3.99
-20.96
-40.84
-58.50
-78.42
-105.30
-141.88
-187.45
-237.37
-283.73
-316.70
-327.25
-310.65
-267.88
-207.26
-142.71
-89.91
-60.94
-59.90
-81.19
-111.54
-135.39
-140.24
-121.43
-83.48
-37.90
1.27
22.73
21.71
1.25
-29.54
-59.20
-78.66
-84.59
-79.80
-70.38
-61.50
-54.07
-44.32
-27.10
-0.42
30.83
55.97
63.50
47.86
14.02
-23.77
-48.64
-49.83
-28.58
2.68
27.29
33.80
22.17
3.28
-8.11
-2.70
17.50
40.30
50.70
40.08
11.76
-20.40
-39.64
-35.66
-10.22
24.11
51.46
61.35
54.06
39.42
29.99
33.01
45.73
57.13
54.90
33.31
-2.30
-37.47
-55.85
-47.90
-16.34
24.93
57.75
68.60
55.15
26.78
-0.76
-13.69
-7.36
11.69
29.52
32.17
13.07
-23.38
-63.47
-90.43
-92.28
-67.46
-25.73
15.85
40.31
38.13
11.26
-27.61
-60.46
-71.25
-52.11
-6.04
54.82
114.05
156.79
173.60
161.93
125.40
72.07
12.31
-42.35
-80.78
-94.49
-80.03
-41.26
10.85
61.38
96.83
110.29
104.00
87.26
71.20
62.96
62.68
64.34
59.69
43.13
15.28
-16.46
-40.42
-45.81
-27.54
10.80
57.67
97.82
118.60
115.59
94.18
66.63
45.35
36.85
38.82
42.33
37.02
16.53
-18.89
-63.15
-106.85
-140.30
-155.73
-149.22
-121.78
-80.30
-36.41
-3.55
7.91
-4.81
-34.96
-68.39
-89.47
-87.70
-61.81
-19.74
25.49
61.41
80.14
79.37
60.67
27.29
-17.10
-67.90
-118.57
-160.70
-185.60
-187.05
-163.48
-118.47
-59.56
3.39
59.83
99.53
114.38
101.20
64.41
16.43
-26.15
-49.41
-48.17
-28.09
-1.89
17.86
24.65
19.69
8.70
-3.32
-14.60
-25.45
-34.91
-38.96
-32.47
-13.89
11.22
30.91
31.85
6.73
-41.22
-99.05
-150.11
-180.95
-185.68
-166.00
-128.27
-80.71
-31.38
12.73
45.71
63.61
65.60
55.02
38.34
24.98
23.10
35.34
58.17
84.90
109.61
128.57
140.15
144.16
141.54
134.04
124.11
114.64
107.66
104.09
102.84
101.59
97.74
89.30
74.83
53.66
27.98
-0.18
-26.77
-47.04
-57.38
-57.04
-48.74
-37.62
-30.61
-32.11
-42.41
-58.15
-74.67
-88.37
-97.60
-101.83
-100.20
-91.69
-73.20
-43.61
-5.82
32.90
63.24
77.45
72.63
51.50
20.83
-10.98
-36.95
-52.70
-56.57
-49.14
-32.67
-10.84
11.36
27.65
32.57
24.40
5.76
-17.50
-39.23
-55.02
-63.28
-64.16
-58.66
-47.69
-31.83
-11.70
11.46
34.71
53.91
65.23
67.15
61.58
53.11
46.51
42.31
37.58
26.46
4.00
-29.57
-67.35
-98.40
-112.78
-106.23
-81.69
-46.80
-9.98
22.97
49.31
67.56
75.77
71.50
53.55
24.28
-9.69
-39.41
-56.61
-56.76
-40.83
-15.06
10.82
27.06
27.28
11.12
-15.48
-42.36
-59.05
-58.96
-41.51
-11.56
23.88
59.20
91.74
120.56
143.95
157.49
154.50
129.16
80.46
14.62
-55.34
-113.15
-144.87
-143.88
-113.50
-66.03
-18.22
14.79
24.93
13.62
-9.32
-29.91
-35.77
-20.75
12.83
55.03
91.86
110.30
102.96
70.84
22.98
-27.11
-66.23
-85.84
-83.89
-63.83
-31.97
5.11
41.58
72.14
91.99
97.22
86.17
60.38
24.30
-15.85
-53.11
-80.88
-93.68
-88.37
-65.96
-32.73
0.81
23.71
29.35
18.56
-0.98
-19.11
-28.43
-27.34
-19.23
-8.91
0.90
10.27
20.69
32.74
45.20
55.84
62.68
64.44
59.81
46.67
22.70
-12.09
-52.90
-89.51
-109.34
-103.13
-70.60
-22.48
22.76
46.81
40.13
7.13
-35.27
-65.27
-66.32
-34.94
17.79
71.43
105.41
107.69
78.59
28.87
-26.23
-73.54
-105.71
-121.33
-122.72
-113.12
-95.30
-71.63
-44.33
-15.39
14.11
44.34
76.21
109.60
141.86
167.86
181.44
177.97
156.32
119.50
74.19
29.05
-7.18
-27.89
-30.50
-18.03
0.92
14.64
12.60
-9.65
-47.65
-89.40
-120.31
-129.82
-115.87
-84.71
-46.95
-11.88
16.40
38.49
56.41
69.86
75.24
67.72
45.41
11.99
-24.30
-54.60
-73.77
-82.14
-83.97
-84.23
-85.52
-87.55
-88.40
-86.16
-79.33
-66.26
-44.73
-12.66
29.73
78.02
123.77
156.69
168.14
154.09
116.15
61.10
-0.88
-58.27
-100.17
-118.82
-111.87
-83.69
-44.23
-5.86
21.21
32.80
32.09
27.64
28.94
42.11
67.40
99.80
131.74
155.74
166.34
160.23
136.20
95.27
41.64
-16.45
-66.71
-95.26
-91.29
-51.73
15.99
95.08
163.89
202.93
201.36
160.92
95.14
23.75
-34.67
-68.98
-78.02
-69.19
-54.02
-44.50
-48.45
-66.29
-92.71
-121.11
-147.44
-170.61
-190.63
-206.91
-218.05
-222.61
-220.07
-211.79
-200.63
-189.45
-179.19
-168.81
-153.31
-128.06
-91.76
-48.43
-7.38
19.79
23.95
3.35
-34.29
-73.69
-97.76
-93.44
-55.88
9.86
91.21
173.14
239.77
280.71
292.64
277.90
242.58
194.63
142.88
96.60
64.43
51.72
58.03
75.68
91.75
93.70
75.52
41.31
3.78
-21.96
-25.96
-7.74
24.24
57.54
82.00
93.83
95.02
89.74
79.98
63.46
36.00
-4.16
-52.65
-98.56
-128.86
-135.00
-117.78
-87.60
-58.90
-42.44
-40.02
-44.60
-45.52
-35.49
-14.79
9.62
29.10
38.84
40.17
38.15
36.82
35.63
29.47
12.70
-15.63
-49.08
-75.55
-83.28
-67.51
-33.91
3.91
30.26
34.90
17.16
-14.70
-47.79
-70.41
-75.79
-63.07
-35.11
2.65
43.61
80.20
104.72
110.91
95.82
61.20
14.02
-33.73
-68.75
-79.59
-60.72
-14.44
49.94
119.23
180.90
222.71
238.72
230.39
206.32
176.88
149.07
125.26
105.06
87.66
72.50
61.59
51.94
38.68
16.56
-18.21
-65.89
-122.48
-180.74
-232.59
-266.19
-274.50
-258.28
-226.52
-192.16
-165.74
-151.50
-147.38
-148.21
-149.13
-148.78
-148.20
-149.02
-151.54
-153.93
-153.35
-147.57
-135.93
-120.42
-102.90
-84.87
-67.16
-49.70
-31.72
-12.58
7.76
28.59
48.82
67.03
82.21
93.79
101.92
107.68
113.12
120.96
133.85
153.14
175.62
196.39
209.86
211.93
201.79
181.65
155.02
124.52
90.80
53.69
14.80
-21.36
-48.06
-59.46
-54.23
-37.00
-16.46
-1.16
4.65
2.46
-2.73
-6.29
-6.83
-6.51
-8.52
-13.95
-20.30
-22.68
-16.99
-3.22
13.87
26.79
29.25
19.54
1.62
-17.04
-29.11
-30.71
-22.87
-10.23
1.57
8.46
8.95
3.82
-5.06
-15.61
-25.84
-33.85
-37.85
-36.58
-30.02
-19.60
-7.81
2.84
10.71
15.24
16.48
14.50
9.43
2.34
-4.18
-6.32
-0.93
12.11
28.35
40.04
39.62
24.00
-3.24
-33.25
-56.41
-67.35
-66.94
-60.65
-54.23
-49.67
-44.44
-34.53
-18.95
-2.51
5.91
-0.94
-23.23
-52.18
-73.80
-76.30
-57.03
-24.47
6.19
21.66
18.26
3.55
-8.77
-7.14
11.37
40.21
68.04
85.82
89.68
83.23
74.62
71.37
75.97
85.07
92.60
94.26
89.72
82.27
76.48
75.33
78.86
84.53
88.96
89.72
86.45
80.58
74.54
70.60
69.65
70.92
72.52
72.46
69.48
64.25
57.41
50.14
43.67
38.75
35.57
34.13
34.51
36.61
40.42
45.62
51.63
57.62
62.67
66.20
68.15
68.75
67.84
65.13
59.92
51.36
38.28
18.88
-9.24
-48.76
-97.41
-151.45
-204.32
-248.11
-275.96
-284.65
-275.67
-253.42
-222.83
-187.92
-152.46
-119.88
-93.91
-77.50
-71.43
-74.31
-82.41
-91.43
-98.45
-103.18
-106.61
-109.53
-111.61
-111.59
-109.17
-103.71
-93.70
-76.95
-52.25
-20.72
13.11
41.91
57.50
52.08
23.03
-25.77
-84.64
-141.69
-186.56
-213.50
-222.74
-209.10
-175.70
-131.60
-87.83
-51.79
-25.33
-7.00
5.07
11.88
14.06
11.24
4.51
-3.79
-10.82
-14.52
-14.56
-11.75
-7.02
-0.32
7.75
20.17
40.25
69.11
103.95
138.80
167.76
188.44
201.37
210.74
220.41
230.36
236.14
231.58
213.13
182.52
145.40
107.58
73.05
40.44
8.40
-21.28
-43.69
-53.63
-48.88
-32.38
-10.96
7.75
18.33
19.86
15.78
11.11
9.52
12.04
16.69
20.04
19.56
14.80
6.48
-1.36
-3.77
2.34
16.63
34.85
51.16
61.12
63.20
58.86
51.18
44.03
36.92
27.84
14.32
-4.89
-28.62
-53.90
-76.55
-92.25
-98.31
-94.87
-82.13
-63.14
-42.24
-23.28
-8.36
2.82
12.36
22.55
33.96
45.14
53.76
56.14
49.61
33.20
8.02
-22.21
-51.66
-73.30
-80.04
-67.39
-35.26
12.14
63.25
102.68
117.78
104.60
69.69
26.92
-9.47
-30.90
-37.52
-35.25
-33.18
-38.51
-51.96
-68.40
-81.99
-90.55
-96.17
-102.37
-111.07
-121.02
-128.49
-129.05
-120.39
-103.78
-84.62
-66.84
-53.05
-43.58
-36.73
-29.53
-18.70
-2.42
18.52
41.48
63.57
82.64
98.11
110.74
122.45
133.99
146.28
159.29
172.06
183.34
191.77
196.06
194.58
181.69
154.70
114.57
65.56
13.74
-35.04
-76.60
-109.16
-133.46
-151.40
-164.40
-173.04
-177.06
-175.57
-167.41
-152.32
-128.61
-95.64
-54.89
-9.94
33.45
68.48
89.75
93.28
81.55
62.34
44.77
34.93
34.02
38.86
44.64
48.00
48.33
47.57
47.90
49.98
52.45
53.10
50.12
42.79
31.84
18.96
6.67
-4.82
-16.10
-27.54
-38.20
-46.29
-50.73
-51.84
-51.18
-49.37
-44.99
-35.18
-18.65
0.94
14.32
10.23
-17.66
-65.62
-119.16
-159.04
-170.58
-150.29
-106.35
-53.20
-3.73
35.95
65.31
85.41
96.25
96.28
85.28
67.03
49.19
39.21
39.27
44.10
44.46
34.21
15.75
0.66
3.13
30.61
77.77
127.87
160.53
161.60
129.24
73.23
10.27
-42.91
-74.35
-78.55
-56.50
-14.61
36.11
81.68
108.34
107.75
80.59
36.25
-11.27
-49.40
-71.30
-77.45
-71.70
-61.20
-52.88
-49.94
-51.67
-56.53
-64.69
-77.28
-94.46
-113.56
-130.12
-139.29
-138.10
-126.96
-109.32
-90.39
-74.45
-63.76
-58.97
-57.24
-54.19
-44.86
-25.24
6.03
46.08
88.20
122.81
140.92
137.43
113.63
76.63
35.70
-1.56
-31.34
-52.22
-63.57
-63.46
-50.29
-25.98
2.28
23.69
29.31
17.81
-2.40
-17.73
-17.41
0.33
27.25
50.57
60.51
55.60
40.77
25.88
19.55
24.39
36.56
49.41
58.70
64.12
68.07
72.56
77.94
82.61
84.29
81.73
75.40
67.68
61.23
57.69
56.78
56.34
52.67
42.37
25.40
4.03
-15.91
-27.51
-26.07
-11.77
10.23
31.38
43.16
41.41
27.49
7.04
-13.57
-30.07
-41.41
-48.59
-53.19
-55.91
-56.43
-54.33
-49.67
-43.51
-37.46
-33.10
-31.05
-30.84
-31.17
-30.60
-28.29
-24.27
-19.39
-14.90
-11.84
-10.53
-10.54
-10.97
-10.82
-9.56
-7.24
-4.36
-1.67
0.23
1.15
1.31
1.20
1.28
1.86
2.92
4.25
5.51
6.43
6.89
6.99
6.88
6.73
6.65
6.40
6.03
5.49
4.73
3.70
2.41
0.88
-0.85
-2.74
-4.79
-7.01
-9.48
-12.29
-15.46
-19.01
-22.86
-26.94
-31.21
-35.75
-40.65
-46.10
-52.19
-58.93
-66.25
-73.98
-81.95
-90.13
-98.60
-107.52
-117.00
-126.91
-136.70
-145.57
-152.47
-156.38
-156.51
-152.51
-144.47
-133.03
-118.57
-101.28
-81.12
-58.07
-32.35
-4.86
22.77
48.43
70.09
86.62
98.14
106.04
112.37
118.89
126.13
133.13
137.91
138.55
134.57
127.55
120.58
116.95
118.38
123.93
130.53
134.93
135.85
134.60
133.82
134.79
135.68
132.26
120.66
100.65
76.64
55.20
40.76
32.13
23.16
7.09
-18.05
-46.72
-68.39
-74.00
-62.15
-40.94
-23.78
-21.40
-35.45
-57.34
-73.40
-73.03
-55.24
-29.55
-10.42
-8.60
-24.74
-48.75
-65.60
-64.10
-43.38
-13.78
9.13
13.44
-2.29
-27.84
-47.10
-47.38
-26.84
4.00
28.12
31.93
13.15
-17.50
-42.30
-46.69
-27.59
4.55
31.71
38.71
21.85
-8.84
-35.47
-42.63
-26.10
4.49
31.39
39.09
23.22
-6.79
-33.29
-40.69
-24.38
6.38
33.94
42.54
27.35
-2.58
-29.63
-38.00
-22.66
7.63
35.41
44.94
31.21
2.87
-22.83
-30.33
-14.74
15.20
42.01
49.80
33.23
0.76
-30.08
-42.85
-31.33
-3.16
24.62
35.43
22.63
-6.77
-36.17
-49.22
-39.23
-13.13
12.70
22.23
9.28
-18.85
-45.48
-54.66
-40.51
-10.73
17.73
28.80
16.58
-11.19
-37.57
-46.42
-31.72
-1.07
28.81
41.82
31.81
6.00
-19.24
-28.08
-14.33
14.89
43.38
55.38
44.65
18.08
-8.30
-18.78
-7.01
20.23
46.92
57.22
44.66
15.81
-13.35
-26.93
-18.21
6.33
30.93
39.82
26.49
-2.49
-31.26
-43.99
-34.00
-7.81
18.79
30.07
19.51
-6.32
-31.68
-40.96
-27.82
0.83
28.86
40.41
29.17
2.16
-24.33
-34.47
-22.18
5.11
30.78
38.98
24.03
-6.08
-34.29
-44.51
-30.92
-1.58
26.26
36.28
22.43
-7.48
-36.47
-48.27
-36.61
-8.88
18.25
28.75
16.39
-11.44
-38.16
-47.66
-33.65
-3.50
26.10
38.89
28.48
2.10
-23.65
-32.72
-18.81
10.77
39.37
50.86
38.95
10.87
-16.88
-28.35
-17.25
9.35
35.16
44.40
30.94
1.88
-26.48
-38.24
-27.01
0.36
27.64
38.81
27.17
-0.69
-28.75
-40.95
-30.39
-3.44
23.80
35.01
22.99
-6.05
-35.88
-49.74
-39.83
-11.94
17.73
32.04
22.62
-5.26
-35.71
-51.62
-44.53
-19.46
7.95
20.91
11.37
-15.18
-42.80
-54.72
-43.24
-14.31
15.67
29.78
20.38
-6.34
-33.77
-44.80
-31.70
-0.57
31.98
48.65
41.31
15.51
-12.75
-26.60
-18.04
7.56
34.56
46.56
35.96
8.39
-20.41
-34.08
-25.11
0.79
27.86
39.72
28.94
1.33
-27.27
-40.41
-30.51
-3.30
25.45
39.31
30.68
5.08
-22.01
-34.47
-24.88
1.08
27.96
39.80
29.38
2.50
-25.34
-38.06
-28.34
-1.88
25.92
39.04
30.15
4.83
-21.58
-33.10
-22.36
5.05
33.69
47.37
38.40
12.10
-16.30
-30.50
-22.45
3.00
30.94
45.22
37.70
12.96
-14.47
-28.66
-21.51
2.38
28.50
40.99
31.88
5.92
-22.22
-36.44
-28.56
-3.23
24.82
39.26
31.62
6.18
-22.51
-38.07
-31.72
-7.36
20.78
36.48
30.90
7.72
-19.10
-33.57
-26.99
-3.24
23.59
37.42
29.67
4.46
-23.81
-38.81
-31.82
-6.99
21.15
36.11
29.05
3.97
-24.65
-40.24
-33.72
-8.83
20.14
36.74
31.80
8.74
-18.49
-33.75
-28.08
-5.02
21.49
35.37
27.88
2.82
-25.52
-40.79
-34.05
-9.17
19.44
35.18
28.93
4.36
-24.19
-40.14
-34.25
-10.10
18.05
33.71
27.77
3.80
-23.98
-39.19
-32.86
-8.81
18.58
32.88
25.28
-0.24
-29.03
-44.44
-37.41
-11.88
17.56
34.18
28.75
4.90
-23.05
-38.51
-32.13
-7.34
21.67
38.38
33.45
10.13
-17.58
-33.33
-27.92
-4.78
22.03
36.17
28.65
3.18
-25.88
-41.90
-35.69
-10.89
18.06
34.45
28.90
4.84
-23.53
-39.53
-33.60
-8.89
20.58
38.17
34.17
11.39
-16.51
-33.09
-28.70
-6.10
21.12
36.59
30.73
6.36
-22.91
-40.55
-36.71
-13.94
14.29
31.52
27.75
5.30
-22.58
-39.49
-35.28
-12.06
17.05
35.62
33.43
12.42
-14.47
-30.89
-26.65
-3.83
24.35
41.26
36.50
12.05
-18.75
-38.92
-37.49
-15.96
12.71
31.59
29.56
7.78
-21.10
-40.30
-38.74
-17.47
10.94
29.92
28.58
8.23
-18.44
-34.88
-30.44
-6.80
22.85
41.50
38.20
14.50
-16.36
-37.14
-36.51
-15.58
12.70
31.28
28.86
6.50
-22.94
-42.45
-40.75
-18.96
10.03
29.28
27.81
7.09
-19.69
-35.45
-29.35
-3.24
29.19
50.51
49.63
28.32
0.21
-17.32
-13.29
10.39
39.88
57.72
53.04
28.00
-3.31
-23.29
-21.05
1.19
29.11
44.93
37.74
9.95
-23.82
-45.28
-43.05
-19.24
11.64
31.22
27.88
3.46
-27.85
-47.85
-44.87
-20.56
11.04
31.96
30.58
8.46
-20.68
-39.31
-36.29
-13.35
15.76
33.67
29.50
5.36
-24.82
-43.48
-39.66
-15.37
15.45
35.26
33.13
11.12
-17.03
-34.02
-29.12
-4.49
26.05
45.30
42.67
20.40
-7.84
-25.06
-20.95
2.10
30.23
46.33
39.91
13.27
-19.73
-41.66
-41.45
-20.66
7.33
25.15
21.36
-2.97
-34.89
-57.05
-57.48
-36.43
-6.21
16.07
18.30
0.31
-26.09
-44.20
-42.22
-20.27
9.60
30.55
30.90
11.07
-16.50
-34.68
-31.69
-8.11
23.30
45.09
45.28
24.50
-4.48
-24.16
-22.58
-0.31
29.73
49.96
48.37
25.65
-5.04
-25.84
-24.56
-1.92
28.60
48.73
45.96
20.92
-12.88
-36.86
-38.17
-17.05
13.28
34.54
34.04
12.00
-18.65
-40.09
-40.01
-18.73
10.89
31.33
30.54
9.06
-20.33
-40.16
-38.46
-15.65
15.56
37.78
38.99
19.55
-8.16
-27.05
-25.40
-3.70
25.50
45.13
43.54
21.43
-8.59
-29.38
-29.20
-8.59
19.85
38.88
36.58
13.31
-18.48
-41.47
-43.41
-24.15
4.13
24.06
22.99
0.35
-32.05
-56.72
-60.43
-41.67
-11.51
12.90
18.25
2.62
-23.46
-43.34
-44.01
-23.78
6.62
30.38
34.50
17.50
-9.57
-29.55
-29.32
-7.53
24.35
48.67
51.99
32.97
3.18
-19.57
-21.80
-2.13
27.67
49.64
50.18
28.03
-4.85
-30.24
-34.34
-15.72
13.71
35.80
36.86
15.58
-16.00
-39.69
-41.80
-21.10
10.30
34.23
37.10
17.78
-11.75
-33.57
-34.46
-13.55
17.05
39.49
40.64
19.67
-11.38
-34.79
-37.45
-18.36
10.70
32.23
33.10
12.15
-19.10
-43.20
-46.71
-27.85
2.41
26.88
32.07
15.90
-11.20
-32.40
-34.34
-14.91
15.45
39.86
44.92
28.47
0.78
-21.37
-24.64
-6.85
21.72
44.42
48.01
30.40
1.85
-21.11
-25.33
-8.70
18.51
39.76
41.88
22.75
-7.31
-31.55
-36.49
-19.60
9.05
32.61
37.23
20.04
-9.35
-34.22
-40.63
-25.45
1.87
24.58
28.54
10.44
-20.30
-46.71
-54.22
-38.99
-10.12
15.42
22.75
7.56
-21.43
-47.36
-55.15
-40.03
-10.37
17.13
27.23
14.91
-11.73
-36.15
-43.17
-27.82
1.63
28.38
36.99
22.46
-6.84
-33.80
-42.66
-28.15
1.43
28.98
38.79
25.60
-2.32
-28.08
-36.24
-21.86
6.54
31.99
39.21
23.63
-5.91
-32.24
-40.06
-24.85
4.46
30.74
38.88
24.49
-3.45
-27.97
-34.12
-17.67
12.35
38.98
47.38
33.40
6.06
-17.79
-23.43
-6.79
22.89
48.49
55.03
38.31
7.59
-19.79
-28.49
-13.95
14.80
40.48
47.72
31.94
2.08
-24.65
-32.98
-18.34
10.24
35.39
41.72
24.67
-6.60
-34.61
-43.77
-29.39
-0.58
25.12
32.05
15.51
-15.35
-42.89
-51.35
-35.98
-5.96
21.04
29.32
14.31
-14.72
-40.10
-46.26
-28.74
2.96
31.02
39.74
24.56
-5.13
-31.63
-39.29
-23.42
6.91
34.31
43.34
29.33
1.03
-24.69
-32.78
-18.69
8.91
33.40
39.95
24.16
-5.35
-32.05
-41.11
-27.89
-0.81
23.71
30.73
15.42
-14.08
-41.36
-51.17
-38.11
-9.87
17.35
28.29
17.30
-8.30
-32.62
-40.51
-26.32
2.60
30.21
41.14
29.58
2.63
-23.79
-34.15
-22.23
5.29
32.79
44.84
35.11
9.88
-15.56
-26.03
-15.15
10.68
36.18
46.15
34.42
7.54
-18.89
-29.50
-18.08
8.60
34.73
44.87
33.07
6.27
-19.66
-29.45
-17.40
9.27
34.55
43.17
29.50
0.81
-26.80
-37.90
-26.40
0.85
28.00
39.53
29.05
2.89
-23.51
-34.75
-24.34
1.48
27.27
37.54
25.83
-1.54
-28.91
-40.61
-30.09
-3.78
22.46
32.86
20.90
-6.83
-34.32
-45.65
-34.27
-6.82
20.58
31.92
20.55
-7.03
-34.79
-46.71
-35.98
-8.86
18.82
31.12
21.12
-5.14
-32.09
-43.95
-33.82
-7.52
19.67
32.25
23.51
-0.74
-25.45
-35.46
-24.35
1.88
28.17
39.40
29.16
3.48
-22.60
-33.94
-24.04
1.31
27.25
38.73
29.23
4.38
-21.17
-32.52
-23.10
1.60
27.06
38.43
29.05
4.23
-21.64
-33.77
-25.36
-1.53
23.49
34.90
25.81
1.18
-24.88
-37.48
-29.55
-5.85
19.61
31.94
23.95
0.30
-25.02
-37.11
-28.74
-4.55
21.40
34.05
26.02
1.88
-24.28
-37.34
-29.86
-6.31
19.23
31.60
23.35
-0.99
-27.34
-40.50
-32.95
-9.14
16.92
30.08
22.76
-0.60
-26.05
-38.43
-30.20
-5.72
20.96
34.57
27.39
3.68
-22.61
-36.21
-29.31
-6.00
19.92
33.27
26.25
2.92
-22.99
-36.29
-29.09
-5.28
21.50
35.99
30.07
7.37
-18.62
-32.62
-26.28
-2.98
23.94
39.16
34.20
12.30
-13.31
-27.36
-21.39
1.37
27.68
42.33
36.94
14.82
-10.84
-24.93
-19.21
2.86
28.11
41.44
34.79
11.75
-14.39
-28.55
-22.59
-0.08
25.68
39.51
33.08
9.68
-17.62
-33.69
-29.95
-9.31
15.55
29.65
24.42
2.60
-23.39
-38.75
-34.87
-14.33
10.52
24.92
20.24
-1.02
-26.62
-41.83
-37.94
-17.41
7.57
22.40
18.57
-1.27
-24.88
-37.65
-31.11
-8.12
18.81
34.85
31.38
11.03
-13.87
-28.61
-24.57
-4.24
20.33
34.72
30.52
10.19
-14.41
-29.13
-25.66
-6.44
16.69
29.64
24.17
2.83
-22.45
-37.40
-33.53
-13.16
11.77
26.84
23.41
3.69
-20.41
-34.40
-29.48
-7.78
18.70
35.18
32.58
12.74
-12.44
-28.06
-24.71
-3.87
22.74
40.30
39.37
21.32
-2.42
-17.24
-13.91
6.10
31.29
47.08
44.29
24.48
-0.87
-17.20
-15.41
2.94
26.39
40.40
35.88
14.48
-12.28
-29.70
-28.42
-9.87
14.53
30.02
27.09
6.97
-19.01
-36.09
-34.57
-15.45
10.08
27.19
26.03
7.36
-17.88
-35.00
-34.19
-16.18
8.13
24.07
21.88
2.42
-23.28
-40.37
-38.93
-19.64
6.46
24.44
24.09
5.78
-19.78
-37.78
-37.91
-20.34
4.48
21.93
21.83
4.37
-20.01
-36.71
-35.58
-16.82
8.97
27.07
27.20
9.47
-15.58
-33.12
-32.72
-14.41
11.30
29.49
29.63
11.68
-13.87
-32.05
-32.24
-14.32
11.14
29.14
29.06
10.85
-14.85
-32.94
-32.76
-14.30
11.74
30.20
30.40
12.44
-12.95
-30.60
-29.90
-10.95
15.39
33.91
33.89
15.40
-10.85
-29.66
-30.30
-12.59
13.01
31.54
32.32
15.19
-9.58
-27.20
-27.14
-9.22
16.20
34.30
34.45
16.45
-9.35
-27.97
-28.62
-10.95
14.73
33.38
34.10
16.47
-9.23
-27.91
-28.58
-10.76
15.21
34.07
34.59
16.08
-11.16
-31.73
-34.10
-17.26
8.72
28.55
30.67
13.95
-11.77
-31.39
-33.48
-16.95
8.39
27.58
29.33
12.69
-12.48
-31.19
-32.20
-14.55
11.79
31.68
33.64
16.46
-10.09
-30.91
-34.36
-19.00
5.63
24.59
26.27
9.21
-17.13
-37.77
-40.98
-25.06
0.62
21.07
24.44
8.78
-16.78
-37.42
-41.26
-26.25
-1.35
18.74
22.32
7.41
-17.03
-36.34
-38.81
-22.46
3.80
25.36
30.59
17.38
-5.57
-23.97
-26.33
-10.64
14.44
34.67
38.65
24.40
0.61
-18.42
-21.18
-5.55
19.78
40.39
44.58
30.04
5.27
-15.44
-20.33
-6.91
16.49
35.67
38.99
24.14
-0.35
-20.13
-23.34
-7.52
18.67
40.49
45.63
31.19
5.46
-17.04
-24.00
-12.42
9.67
28.03
30.85
15.71
-8.86
-28.36
-30.92
-14.26
12.64
34.72
39.39
23.70
-3.94
-28.65
-37.60
-27.15
-4.89
14.95
19.87
6.37
-18.08
-39.28
-44.66
-30.61
-4.79
18.26
25.55
13.27
-10.87
-31.97
-36.74
-21.26
6.44
30.84
38.02
23.73
-4.00
-29.36
-37.94
-24.97
1.80
26.77
35.47
23.00
-3.19
-27.83
-36.83
-25.41
-0.92
21.85
29.66
18.69
-3.39
-22.00
-24.72
-8.72
17.38
38.40
41.70
24.58
-3.86
-27.74
-33.44
-17.27
12.29
39.32
49.52
38.20
12.82
-11.31
-20.00
-8.30
16.51
39.22
45.67
31.07
2.98
-23.02
-32.45
-20.32
5.73
29.91
37.44
23.10
-5.75
-33.30
-44.56
-33.88
-8.27
16.70
26.03
13.92
-12.85
-38.82
-48.91
-36.94
-9.35
18.50
31.17
21.96
-3.34
-29.65
-41.47
-31.65
-5.57
21.91
35.31
27.42
3.51
-21.71
-32.84
-22.72
3.23
30.08
42.28
32.71
6.93
-19.96
-32.19
-22.47
3.66
30.95
43.42
33.63
7.02
-21.09
-34.50
-25.45
0.70
28.49
41.38
31.27
3.23
-27.28
-43.48
-36.78
-11.72
16.67
31.86
25.32
1.41
-25.27
-38.62
-30.47
-5.38
21.86
35.17
26.42
0.33
-28.27
-43.10
-35.89
-11.18
16.23
30.12
22.22
-2.89
-30.44
-44.21
-35.97
-10.40
17.58
31.59
23.25
-2.83
-31.70
-46.82
-39.47
-13.82
15.40
31.52
25.43
0.72
-28.40
-45.45
-40.98
-17.96
9.92
26.34
21.65
-1.48
-29.67
-46.54
-42.18
-18.83
10.22
28.56
26.05
4.72
-22.26
-38.39
-33.34
-9.07
21.24
40.88
39.39
18.65
-8.11
-24.16
-19.01
5.38
35.51
54.35
51.15
27.81
-2.15
-21.55
-19.46
2.33
30.27
47.11
41.94
16.66
-14.97
-35.47
-33.72
-11.47
17.48
35.68
32.03
8.25
-22.07
-41.60
-39.30
-16.82
12.46
31.44
29.16
7.18
-21.42
-39.83
-37.24
-15.05
13.85
32.86
31.13
9.87
-18.31
-36.89
-34.79
-12.77
16.96
37.96
39.02
20.55
-5.81
-23.98
-22.85
-2.71
24.83
43.72
42.79
22.29
-6.20
-26.47
-27.10
-8.05
19.21
38.46
38.17
18.20
-10.07
-30.47
-31.43
-12.75
14.08
32.67
31.14
9.15
-21.81
-44.97
-47.85
-29.44
-0.84
21.11
23.47
4.70
-24.60
-47.69
-51.40
-33.68
-4.82
18.45
22.62
5.22
-23.69
-47.30
-51.74
-34.06
-3.98
21.77
29.29
15.53
-9.94
-30.52
-32.49
-12.99
18.09
43.87
50.39
34.75
6.84
-16.34
-20.67
-3.05
26.71
51.59
57.34
40.74
11.46
-13.52
-19.89
-4.24
23.79
47.11
51.21
32.56
0.86
-26.68
-35.28
-21.17
6.08
29.30
33.90
16.39
-13.40
-38.14
-43.26
-25.51
4.90
30.26
35.75
18.06
-12.58
-38.42
-44.53
-27.32
3.32
29.90
37.56
22.47
-5.93
-30.65
-37.03
-21.13
7.89
33.32
40.52
25.42
-3.18
-28.82
-36.93
-23.22
3.80
27.84
34.35
18.96
-10.00
-36.28
-45.19
-31.95
-4.65
20.61
29.02
15.61
-11.83
-37.33
-46.03
-32.67
-4.84
21.57
31.54
19.59
-7.10
-32.78
-42.36
-29.94
-2.42
24.69
36.18
25.94
0.51
-24.80
-34.77
-23.05
4.01
31.13
42.97
32.98
7.23
-19.13
-30.62
-20.34
5.92
33.16
45.80
36.70
11.27
-15.67
-28.58
-20.05
4.72
30.99
43.10
33.49
7.10
-21.42
-36.29
-29.72
-6.52
18.77
30.46
20.91
-4.94
-32.40
-45.70
-37.20
-11.93
15.24
28.42
19.92
-5.32
-32.49
-45.68
-37.04
-11.41
16.55
30.97
23.99
0.27
-25.70
-38.15
-29.19
-3.48
24.41
38.57
31.01
6.19
-21.37
-35.65
-28.31
-3.48
24.49
39.56
33.26
9.52
-17.48
-31.65
-24.33
0.71
29.27
45.07
39.16
14.99
-13.35
-29.47
-24.07
-0.31
27.96
44.37
39.53
16.40
-11.38
-27.55
-22.69
0.36
28.00
43.98
38.78
15.13
-13.50
-30.78
-26.98
-4.55
23.20
39.91
35.69
12.80
-15.61
-33.15
-29.68
-7.18
21.28
39.10
35.68
12.39
-18.05
-38.98
-39.26
-19.52
8.22
27.59
27.30
7.64
-19.80
-38.81
-38.17
-18.11
9.61
28.54
27.13
5.54
-24.34
-45.64
-46.33
-26.22
2.93
24.23
25.48
6.34
-21.60
-41.55
-41.40
-20.84
8.44
29.48
29.94
9.27
-20.96
-43.68
-46.18
-27.37
1.68
24.21
27.62
10.72
-15.70
-35.21
-35.52
-15.72
13.08
34.31
35.64
16.36
-12.25
-33.37
-34.49
-14.71
14.68
36.85
39.24
20.89
-7.13
-28.17
-29.74
-10.79
17.63
38.93
40.63
21.68
-6.97
-28.77
-31.11
-12.63
15.89
37.96
40.81
22.79
-5.84
-28.84
-33.37
-17.32
9.38
30.86
34.40
17.94
-8.78
-29.97
-32.91
-15.36
12.85
35.67
39.96
23.11
-5.45
-29.66
-36.01
-21.20
5.85
29.42
35.98
22.02
-3.97
-26.54
-32.27
-17.47
9.39
32.83
39.18
24.53
-2.92
-27.65
-35.65
-22.43
4.16
28.77
37.24
24.85
-0.94
-24.96
-33.08
-20.38
5.73
29.99
38.02
24.73
-2.70
-28.95
-39.41
-28.49
-3.10
21.69
31.28
20.09
-5.19
-29.59
-38.56
-26.46
-0.02
25.64
35.71
24.32
-2.11
-28.50
-39.84
-29.78
-4.40
21.56
33.19
24.07
0.03
-24.42
-34.51
-23.84
1.68
27.32
38.05
27.27
0.74
-26.64
-39.44
-30.42
-4.93
22.43
36.20
28.97
5.71
-19.28
-30.73
-21.30
3.98
30.67
43.29
34.35
8.73
-19.05
-33.21
-25.71
-1.05
26.50
41.11
34.52
10.85
-15.96
-30.26
-23.80
-0.63
25.35
38.56
30.83
6.24
-21.20
-35.72
-28.90
-4.68
22.96
38.10
32.05
8.37
-19.24
-34.94
-29.85
-7.31
19.19
33.87
27.85
4.35
-23.18
-38.90
-33.68
-10.54
17.15
33.39
28.85
6.24
-21.26
-37.72
-33.67
-11.71
15.04
30.68
25.70
2.68
-25.24
-41.98
-37.80
-15.01
13.26
30.79
27.48
5.33
-22.86
-40.83
-38.30
-16.97
10.54
28.05
25.17
3.45
-24.56
-42.61
-40.10
-18.34
10.17
29.05
27.56
6.80
-20.89
-39.13
-37.04
-15.63
12.76
31.69
30.19
9.20
-18.90
-37.54
-35.61
-13.96
14.98
34.50
33.39
12.39
-16.13
-35.45
-34.25
-13.21
15.34
34.73
33.64
12.74
-15.68
-34.98
-33.83
-12.79
15.90
35.61
34.97
14.42
-13.99
-33.67
-33.17
-12.72
15.78
35.85
35.99
16.38
-11.17
-30.14
-28.92
-7.56
22.05
43.15
43.90
24.14
-4.32
-24.62
-24.70
-4.18
25.21
46.51
47.47
27.54
-1.71
-23.41
-25.24
-6.45
21.51
41.81
42.11
21.65
-8.12
-30.32
-32.44
-13.56
14.97
36.17
37.42
17.70
-11.61
-33.55
-35.37
-15.95
13.28
35.09
36.42
15.95
-15.01
-39.11
-43.04
-25.12
3.59
25.80
28.16
8.94
-20.75
-43.58
-46.10
-26.57
3.81
27.52
30.91
12.14
-17.67
-41.03
-44.32
-25.65
3.91
27.01
30.18
11.70
-17.33
-39.59
-41.69
-21.88
8.78
33.01
37.35
19.88
-8.69
-31.37
-34.83
-16.96
11.77
34.73
38.72
21.64
-6.27
-28.55
-32.03
-14.46
14.07
37.13
41.43
24.44
-4.10
-27.92
-33.62
-18.35
8.38
30.48
34.51
17.58
-10.90
-34.76
-40.37
-24.52
3.52
27.48
33.45
17.85
-10.46
-35.34
-42.66
-28.30
-0.66
24.41
32.68
19.69
-6.68
-30.82
-38.37
-24.39
3.73
30.53
41.50
31.31
6.80
-16.89
-25.37
-13.23
12.62
37.10
45.80
33.49
7.21
-17.75
-26.89
-14.94
10.90
35.15
43.15
29.66
1.92
-24.40
-34.39
-22.42
4.47
30.68
41.12
29.88
3.62
-22.25
-32.73
-21.85
3.76
28.63
37.66
24.93
-2.83
-29.92
-40.93
-29.60
-2.55
24.31
35.15
23.28
-5.04
-34.01
-47.56
-38.52
-12.70
14.37
26.64
16.76
-9.57
-36.85
-48.91
-38.25
-10.47
18.86
33.44
25.68
1.09
-24.90
-36.15
-25.22
2.26
30.72
43.95
34.41
7.69
-20.74
-34.60
-26.08
-0.39
27.30
40.88
32.64
7.69
-18.98
-31.50
-22.33
3.17
29.80
41.57
30.99
3.55
-25.40
-39.67
-31.55
-6.35
20.65
33.13
23.14
-4.40
-34.43
-50.62
-44.50
-20.32
7.44
22.65
16.62
-6.81
-33.59
-47.67
-40.24
-14.81
14.73
32.39
29.30
8.86
-15.11
-26.74
-17.23
9.65
39.65
56.33
50.60
26.04
-3.03
-19.96
-15.31
7.52
34.25
48.23
39.97
12.85
-18.72
-37.81
-34.55
-11.84
16.22
32.91
28.44
5.61
-21.93
-37.79
-32.51
-9.05
18.81
34.69
29.14
5.19
-23.33
-39.96
-35.09
-11.62
16.65
33.12
27.99
3.96
-25.32
-43.20
-39.64
-17.12
10.74
27.19
21.90
-3.03
-34.10
-54.26
-52.46
-29.84
0.87
22.92
25.06
7.96
-16.37
-31.72
-27.27
-3.95
25.87
45.80
45.00
24.58
-2.80
-20.43
-17.22
5.70
35.41
54.73
52.18
28.68
-2.92
-25.29
-26.70
-7.79
18.68
35.58
31.34
6.78
-25.22
-47.38
-47.92
-27.39
1.61
22.09
22.42
3.15
-23.44
-40.73
-37.51
-14.47
16.02
37.25
37.80
18.14
-9.70
-29.17
-28.76
-8.61
19.52
39.30
39.38
20.04
-7.04
-25.63
-24.44
-3.79
24.42
43.74
42.66
21.41
-8.16
-29.41
-30.47
-11.13
16.97
37.19
37.40
17.05
-12.63
-35.15
-38.30
-21.14
5.47
25.29
26.22
7.39
-20.36
-40.73
-41.49
-21.62
7.98
30.76
34.15
16.81
-10.66
-31.77
-33.93
-15.75
12.08
32.93
34.00
13.83
-16.82
-41.01
-45.53
-28.41
-0.14
22.39
25.67
7.36
-22.43
-46.85
-52.14
-35.47
-6.61
17.72
23.60
7.93
-19.84
-43.14
-48.08
-31.43
-2.56
22.05
28.53
13.67
-13.11
-35.26
-38.81
-20.43
10.52
37.45
46.27
33.48
8.15
-13.43
-17.48
-0.72
27.55
50.91
55.51
38.15
8.29
-17.40
-24.75
-10.17
17.18
40.82
46.64
31.04
3.08
-20.92
-27.01
-11.67
15.85
39.00
43.68
26.45
-3.29
-28.79
-35.68
-20.34
7.83
31.87
37.29
20.35
-9.53
-35.33
-42.33
-26.60
2.62
28.36
35.86
21.07
-7.05
-31.85
-38.77
-23.78
4.22
28.70
35.07
19.18
-10.31
-36.99
-46.17
-33.17
-6.03
19.30
28.27
16.07
-9.62
-33.17
-40.15
-25.65
2.73
29.31
39.59
28.55
3.57
-19.82
-27.21
-13.64
13.38
38.25
46.43
32.94
5.29
-20.81
-30.64
-18.94
6.96
31.37
39.46
25.89
-2.08
-28.67
-38.84
-26.92
-0.10
25.69
35.04
21.87
-7.03
-35.91
-49.17
-40.28
-15.47
9.98
20.83
10.73
-14.01
-38.09
-46.30
-32.34
-2.76
26.77
40.62
32.19
7.76
-17.20
-27.15
-15.58
11.22
37.69
48.37
36.83
9.51
-18.02
-30.24
-20.62
4.50
29.66
39.49
27.61
0.48
-26.43
-37.77
-27.20
-1.24
24.61
35.03
23.72
-2.90
-29.42
-40.60
-30.01
-3.88
22.58
34.04
23.83
-2.23
-29.25
-41.91
-33.17
-8.37
17.90
30.27
21.42
-3.70
-30.72
-44.19
-36.38
-11.77
15.49
29.94
23.64
0.70
-24.99
-38.01
-30.29
-5.84
21.55
36.51
31.10
9.32
-15.05
-26.74
-17.97
6.91
33.82
47.28
39.48
14.86
-12.33
-26.41
-19.33
4.68
31.43
45.23
37.85
13.37
-14.14
-28.95
-22.74
0.52
26.65
39.77
31.47
5.74
-23.09
-38.84
-32.75
-8.63
19.17
34.31
27.85
3.43
-24.84
-40.72
-35.26
-11.96
15.14
29.96
23.57
-0.48
-28.21
-43.53
-37.48
-13.48
14.49
30.25
24.71
1.16
-26.59
-42.40
-37.07
-13.66
14.16
30.37
25.85
3.72
-22.47
-36.76
-30.01
-5.31
23.70
40.95
37.17
15.35
-11.06
-26.08
-20.49
2.73
29.94
44.93
38.28
12.92
-17.49
-36.50
-34.28
-13.27
13.20
28.85
23.78
0.33
-28.36
-45.96
-42.34
-19.46
9.71
28.71
26.99
5.99
-21.85
-40.26
-38.60
-17.93
9.45
27.31
24.81
2.83
-26.44
-46.66
-46.72
-27.12
0.29
19.42
19.40
0.84
-24.35
-40.11
-35.57
-11.52
19.95
42.47
44.96
27.92
3.13
-13.32
-10.54
10.82
38.80
57.19
55.03
33.05
3.37
-17.54
-18.42
0.28
26.50
43.77
40.82
18.10
-12.21
-33.58
-34.62
-15.83
10.55
27.96
25.26
3.27
-25.54
-44.42
-42.15
-19.54
10.86
32.19
32.94
13.53
-14.05
-33.40
-33.21
-13.71
13.42
32.13
31.25
11.04
-16.90
-36.49
-36.42
-16.64
11.35
31.42
32.02
12.84
-14.99
-35.44
-36.73
-18.15
9.50
30.40
32.89
16.31
-8.75
-26.59
-25.71
-5.56
22.97
43.95
45.71
27.73
0.89
-18.85
-19.87
-1.71
24.48
42.61
41.00
19.30
-11.25
-34.34
-37.94
-21.18
5.12
24.87
26.05
7.69
-19.67
-40.07
-41.55
-23.03
4.89
26.11
28.35
10.38
-17.34
-38.61
-40.96
-22.93
5.07
26.75
29.42
11.44
-16.96
-39.44
-43.18
-26.23
1.37
23.30
26.54
8.84
-19.94
-43.44
-48.31
-31.86
-3.65
19.97
25.44
9.80
-17.62
-40.54
-45.24
-28.54
0.36
25.19
32.19
18.07
-8.06
-29.94
-33.76
-16.13
13.86
39.93
48.16
34.94
9.02
-13.70
-19.57
-5.14
20.83
42.53
46.52
29.57
0.66
-24.20
-31.35
-17.24
9.40
32.71
39.02
24.71
-1.62
-24.19
-29.32
-13.29
15.21
40.12
47.42
33.19
6.01
-18.04
-24.84
-10.36
16.81
40.44
46.32
30.43
1.44
-24.39
-32.74
-19.46
6.84
29.87
35.32
19.13
-10.00
-35.72
-43.64
-29.61
-2.35
21.72
28.18
13.05
-14.78
-38.78
-44.60
-28.37
0.79
26.10
33.08
17.92
-10.18
-34.32
-39.86
-22.79
7.80
35.01
44.00
30.40
2.87
-22.14
-29.95
-16.10
11.00
35.11
41.69
26.23
-2.95
-29.71
-39.30
-26.83
-0.09
25.08
33.98
21.56
-4.79
-29.57
-38.22
-25.51
1.36
26.99
36.77
25.25
-0.69
-25.95
-35.99
-25.27
-0.49
23.39
31.94
19.68
-6.66
-32.08
-41.97
-30.57
-4.44
21.44
32.34
22.29
-2.47
-27.15
-37.09
-26.21
-0.72
24.68
35.28
24.99
-0.16
-25.45
-36.13
-25.93
-0.80
24.64
35.61
25.77
0.88
-24.46
-35.34
-25.10
0.67
27.43
40.10
31.76
7.66
-17.84
-29.71
-20.92
3.30
28.61
39.87
30.02
4.23
-23.02
-36.44
-28.75
-4.99
20.47
32.32
23.23
-1.84
-28.56
-41.51
-33.11
-8.18
18.95
32.73
25.38
1.46
-24.82
-37.92
-29.93
-5.41
21.34
34.65
26.63
1.90
-25.04
-38.28
-29.79
-4.26
23.58
37.64
29.83
4.86
-22.49
-36.13
-27.96
-2.89
24.14
36.93
27.58
1.18
-27.08
-40.92
-32.34
-6.50
21.33
34.80
25.93
-0.10
-28.12
-41.82
-33.18
-7.21
20.93
34.92
26.65
1.03
-26.93
-40.88
-32.49
-6.39
22.40
37.40
30.04
4.80
-23.54
-38.45
-31.26
-6.23
21.81
36.31
28.51
2.71
-26.23
-41.57
-34.16
-7.85
22.67
40.53
36.23
13.17
-14.51
-30.24
-24.65
-1.04
26.42
41.21
34.04
8.52
-20.98
-37.70
-32.18
-7.82
20.95
37.30
31.70
7.62
-20.62
-36.21
-29.58
-4.03
26.12
44.07
40.21
17.76
-9.25
-24.30
-18.09
5.95
33.55
48.06
40.19
13.58
-17.34
-35.65
-31.63
-8.41
19.87
36.43
31.46
7.74
-21.05
-38.43
-34.59
-12.10
15.62
32.15
27.65
4.53
-23.96
-41.42
-37.85
-15.53
12.30
29.08
24.52
0.66
-29.37
-48.78
-46.82
-24.91
4.10
23.41
21.85
0.30
-28.87
-48.98
-48.56
-27.93
0.99
21.70
22.73
4.18
-22.27
-40.27
-38.36
-16.63
13.22
34.89
36.97
19.69
-5.29
-21.69
-18.29
4.48
34.55
55.28
55.14
34.46
5.30
-15.57
-16.41
2.64
29.49
47.36
44.57
21.43
-9.78
-32.08
-33.64
-14.69
12.47
31.05
29.47
8.24
-20.35
-39.60
-38.08
-16.36
13.29
34.18
34.81
15.47
-11.98
-31.22
-30.92
-11.28
16.05
34.96
34.23
14.04
-14.08
-34.10
-34.74
-16.03
10.63
29.21
28.49
8.55
-19.15
-38.40
-37.70
-16.93
12.40
33.81
35.34
16.43
-11.75
-32.85
-34.72
-16.48
10.79
30.70
30.93
10.44
-19.76
-43.11
-46.94
-29.70
-1.97
20.01
23.79
8.13
-16.33
-33.39
-30.97
-8.45
22.69
45.49
47.42
27.76
-1.96
-24.64
-27.48
-9.40
18.44
39.33
40.70
21.49
-7.48
-29.82
-33.15
-16.21
10.44
30.78
32.73
15.17
-11.39
-31.03
-31.83
-12.87
15.04
35.59
36.53
16.83
-12.64
-35.33
-38.56
-20.86
7.08
28.67
30.90
11.84
-18.21
-42.71
-48.37
-32.57
-5.05
18.08
23.73
9.46
-15.10
-33.91
-34.02
-13.28
18.12
43.46
49.25
33.02
4.84
-18.50
-23.36
-7.19
19.98
41.55
44.06
25.22
-4.84
-29.39
-34.92
-18.81
9.11
32.45
37.84
22.53
-4.15
-26.32
-31.06
-15.80
10.13
30.92
33.65
15.80
-13.17
-37.31
-43.46
-28.82
-2.72
18.77
22.25
4.78
-24.30
-48.69
-54.49
-38.09
-8.37
18.58
28.76
18.31
-4.33
-23.54
-25.77
-7.58
22.06
46.99
53.25
37.32
8.21
-17.63
-25.94
-12.89
12.71
34.68
38.94
21.92
-7.44
-32.85
-40.17
-25.62
2.06
26.73
34.29
20.72
-5.75
-29.41
-36.40
-22.57
4.14
28.34
36.24
23.62
-1.76
-24.69
-31.48
-17.95
7.99
30.77
36.42
20.68
-8.34
-34.63
-43.62
-30.48
-3.17
22.14
30.39
16.27
-12.66
-40.32
-51.42
-40.09
-13.34
13.22
24.64
15.31
-7.79
-29.22
-34.38
-18.11
11.96
39.72
50.07
37.72
10.41
-15.53
-24.74
-11.89
15.26
40.32
47.96
32.96
3.25
-24.67
-35.41
-23.54
3.22
28.67
37.61
24.63
-2.90
-29.09
-38.93
-26.78
0.44
27.24
38.78
29.18
4.92
-19.09
-28.41
-17.39
7.46
31.21
39.46
26.73
-0.26
-26.32
-36.72
-25.68
0.14
25.34
34.82
22.44
-5.23
-32.72
-44.47
-33.79
-6.92
20.70
33.35
24.10
-1.12
-27.03
-38.08
-27.47
-1.24
25.20
36.39
25.72
-0.54
-26.99
-38.18
-27.71
-1.95
23.63
33.64
21.86
-5.17
-31.79
-42.52
-31.02
-3.77
23.60
35.50
25.38
-0.48
-26.69
-37.71
-26.83
-0.05
27.33
39.70
30.06
3.95
-23.58
-36.97
-28.81
-4.20
22.25
35.20
27.34
3.82
-20.81
-31.21
-20.26
6.64
34.46
47.43
38.18
12.12
-15.50
-28.58
-19.36
6.82
34.58
47.43
37.19
8.83
-22.34
-39.59
-34.23
-10.62
16.39
30.49
23.27
-0.81
-27.12
-39.66
-30.43
-4.32
23.64
37.29
28.70
2.88
-25.10
-39.00
-30.98
-6.06
20.67
33.01
23.19
-3.67
-32.34
-46.51
-38.07
-12.00
16.60
31.25
23.51
-2.17
-31.11
-46.98
-41.14
-17.55
9.49
23.93
17.09
-7.24
-34.91
-49.86
-43.15
-18.27
10.89
28.35
25.21
4.97
-18.60
-29.59
-19.42
8.05
38.43
55.30
49.78
25.73
-2.26
-17.52
-10.88
13.85
42.04
56.87
48.98
22.07
-9.25
-28.00
-24.57
-2.35
24.24
38.49
30.98
5.21
-24.47
-41.45
-36.45
-13.00
14.55
29.70
23.29
-1.11
-29.34
-45.00
-39.00
-14.71
13.85
30.43
25.94
3.75
-22.30
-36.14
-28.84
-4.02
24.16
39.32
32.42
7.10
-22.31
-39.20
-34.27
-10.94
16.59
31.79
25.25
0.22
-29.39
-47.21
-43.69
-21.63
5.51
21.56
16.93
-5.94
-34.09
-51.60
-48.74
-27.59
-0.74
16.11
13.22
-7.56
-34.08
-51.12
-49.28
-30.58
-7.14
6.09
0.31
-21.82
-47.73
-62.58
-58.37
-38.97
-18.14
-11.35
-26.38
-58.21
-91.42
-109.14
-103.13
-79.28
-54.38
-46.45
-64.12
-100.94
-138.46
-155.97
-141.57
-98.49
-43.01
5.09
32.83
39.91
37.40
40.28
59.85
98.96
151.82
207.98
258.23
297.68
325.15
341.14
346.00
340.10
325.41
308.22
294.03
286.97
288.25
295.29
302.59
303.81
291.57
262.87
218.52
161.70
97.19
30.27
-34.12
-91.82
-139.96
-177.45
-204.79
-224.15
-238.48
-250.20
-260.26
-268.26
-272.90
-272.80
-267.15
-255.68
-239.24
-219.66
-199.50
-180.25
-162.54
-146.36
-131.44
-117.53
-104.53
-92.90
-83.53
-77.27
-74.55
-75.45
-79.61
-86.35
-94.93
-104.70
-115.27
-126.44
-138.14
-150.14
-162.09
-173.64
-184.30
-193.40
-200.26
-204.25
-204.89
-201.93
-195.66
-186.86
-176.59
-165.92
-155.73
-146.47
-138.11
-130.39
-123.08
-116.22
-109.99
-104.60
-100.03
-95.73
-90.61
-83.32
-72.74
-58.38
-40.57
-20.17
1.66
23.95
46.19
68.19
90.21
112.93
137.81
167.35
204.25
249.74
301.87
354.77
399.41
426.84
431.53
414.02
380.58
340.65
302.87
272.18
249.08
231.24
215.90
201.51
187.30
172.12
153.69
129.62
99.94
68.80
43.89
33.34
41.03
63.79
92.25
115.19
125.00
121.15
109.79
99.40
97.25
106.33
125.29
150.55
178.55
206.87
233.71
256.93
273.48
280.10
274.12
254.74
223.52
183.96
140.28
96.39
54.85
16.63
-18.43
-51.00
-81.41
-109.25
-133.50
-152.99
-167.01
-175.68
-179.97
-181.23
-180.83
-179.63
-177.85
-175.20
-171.22
-165.64
-158.58
-150.52
-142.06
-133.73
-125.78
-118.18
-110.70
-103.12
-95.33
-87.40
-79.51
-71.80
-64.29
-56.86
-49.47
-42.15
-35.27
-29.41
-25.33
-23.73
-24.80
-28.44
-33.98
-40.40
-46.51
-51.41
-54.54
-55.66
-54.44
-50.65
-43.97
-34.01
-20.64
-4.27
13.87
31.75
47.23
58.52
64.75
66.21
64.23
59.91
54.00
46.31
35.89
21.75
3.12
-20.27
-47.89
-78.69
-110.38
-138.80
-158.38
-163.57
-151.31
-122.95
-84.45
-44.48
-11.16
10.89
21.68
24.47
23.49
21.58
19.42
16.48
12.44
7.92
4.32
2.90
3.82
6.01
7.76
7.37
4.23
-1.07
-7.10
-12.27
-15.56
-16.97
-17.41
-18.28
-20.81
-25.50
-31.96
-39.17
-45.94
-51.47
-55.72
-59.35
-63.35
-68.54
-75.06
-82.23
-88.69
-92.70
-92.76
-88.16
-79.32
-67.19
-53.19
-38.62
-24.34
-10.51
3.13
16.84
30.38
42.97
53.41
60.59
64.08
64.52
63.16
61.50
60.44
60.17
60.54
61.71
64.18
68.09
72.06
72.66
65.51
47.76
20.36
-11.10
-38.18
-52.90
-51.06
-33.90
-7.29
21.13
44.82
60.41
67.95
70.01
70.34
72.24
77.61
86.61
98.13
111.00
124.51
138.22
150.27
156.29
150.20
127.37
88.56
41.76
-0.31
-26.05
-31.39
-22.66
-13.33
-16.31
-36.30
-67.19
-95.96
-110.85
-108.48
-95.73
-84.94
-86.15
-100.76
-120.45
-132.40
-127.31
-105.21
-76.23
-54.59
-50.38
-63.33
-82.25
-91.68
-80.86
-50.52
-13.43
12.64
14.97
-6.40
-38.11
-61.10
-61.66
-39.60
-9.09
9.62
2.22
-30.72
-73.54
-104.11
-106.76
-81.93
-46.52
-24.66
-34.33
-77.33
-137.84
-190.92
-215.16
-203.21
-164.30
-117.88
-82.86
-68.52
-71.31
-78.97
-78.49
-62.86
-34.15
-0.78
28.06
47.31
58.37
67.11
79.59
98.28
120.40
139.74
150.53
151.12
145.18
140.14
143.06
156.25
175.72
192.99
199.77
192.82
176.41
160.35
154.74
163.83
182.74
199.52
201.48
182.50
147.27
109.18
82.82
75.33
82.07
89.16
82.17
55.27
15.29
-22.20
-42.61
-41.52
-27.17
-14.67
-15.65
-30.26
-47.06
-50.44
-31.47
5.45
43.80
63.93
54.01
16.63
-32.53
-73.09
-90.04
-80.06
-51.55
-18.79
5.69
16.48
16.35
13.10
14.76
25.66
45.16
68.98
91.85
109.90
121.52
126.64
125.70
117.92
101.51
75.48
41.87
6.83
-20.97
-34.12
-30.70
-16.48
-3.00
-2.15
-20.18
-54.21
-93.78
-126.52
-144.68
-148.69
-145.87
-145.53
-153.52
-169.77
-189.52
-207.10
-219.30
-225.97
-229.03
-229.91
-227.82
-219.86
-202.82
-175.33
-138.92
-97.67
-56.59
-19.88
10.45
34.68
54.64
72.29
88.69
103.51
115.42
122.94
125.31
122.93
117.29
110.37
103.80
98.45
94.31
90.82
87.27
83.24
78.68
73.87
69.28
65.26
61.97
59.39
57.45
56.07
55.25
54.90
54.97
55.36
55.93
56.43
56.56
55.97
54.15
50.62
45.11
37.35
27.35
15.03
-0.33
-20.38
-46.90
-80.15
-116.51
-149.17
-169.57
-170.95
-151.68
-116.41
-74.20
-34.41
-3.31
16.50
24.19
18.57
-2.11
-37.92
-84.16
-130.75
-164.98
-176.99
-164.65
-134.50
-97.71
-64.21
-38.78
-20.79
-7.86
0.23
0.72
-10.15
-33.30
-64.03
-92.96
-109.86
-107.80
-86.97
-53.53
-16.34
17.26
43.75
63.31
78.02
89.53
98.08
102.72
102.66
98.09
90.41
81.86
74.53
69.59
66.95
65.55
63.82
60.64
55.80
49.97
44.35
40.00
37.43
36.37
36.02
35.42
33.97
31.61
28.80
26.27
24.54
23.81
23.85
24.18
24.35
24.13
23.57
23.00
22.76
23.09
24.00
25.33
26.81
28.04
28.71
28.45
26.96
23.88
18.89
11.54
1.58
-10.98
-25.81
-42.20
-59.15
-75.29
-89.16
-99.34
-104.67
-104.42
-98.34
-86.84
-70.25
-50.33
-28.86
-7.49
12.34
29.56
43.37
53.38
59.37
61.42
59.58
54.25
45.52
33.61
18.85
1.78
-16.74
-35.69
-53.65
-69.19
-80.83
-87.42
-88.19
-83.04
-72.59
-57.42
-39.62
-21.23
-4.08
10.44
21.47
28.75
32.53
33.47
32.47
30.37
27.98
25.94
24.46
23.49
22.72
21.71
20.12
17.70
14.32
10.24
5.93
1.82
-1.62
-4.02
-5.15
-4.99
-3.76
-1.86
0.35
2.59
4.60
6.23
7.55
8.82
10.39
12.64
15.76
19.67
23.90
27.73
30.22
30.63
28.50
23.75
16.73
8.17
-1.04
-10.09
-18.28
-25.10
-30.09
-32.76
-32.59
-29.34
-23.23
-15.20
-6.90
-0.40
2.42
0.49
-5.87
-14.95
-24.12
-30.69
-32.89
-30.57
-25.17
-18.83
-13.88
-11.51
-11.33
-11.94
-11.53
-8.93
-4.44
0.24
2.50
-0.16
-9.13
-24.18
-42.83
-60.32
-70.66
-68.28
-50.38
-18.81
19.61
55.10
76.73
76.33
51.76
8.57
-41.31
-83.36
-105.71
-103.10
-77.60
-38.75
0.74
30.10
44.33
44.55
36.14
24.90
15.37
10.82
12.45
20.86
36.96
61.52
93.21
127.55
157.22
166.94
151.06
113.34
64.41
16.08
-23.70
-52.30
-70.18
-79.37
-78.39
-63.02
-31.47
13.09
61.99
103.33
126.95
128.91
107.88
73.15
40.58
23.78
27.84
46.97
67.71
75.80
62.39
27.23
-21.33
-71.30
-113.02
-141.19
-154.08
-151.44
-132.95
-100.13
-57.81
-13.23
25.34
50.89
60.46
55.57
40.34
19.28
-5.56
-34.20
-65.28
-94.51
-115.47
-122.18
-111.78
-85.85
-48.89
-7.41
32.17
65.19
88.22
97.84
91.15
67.85
29.32
-12.92
-43.04
-51.70
-40.76
-19.19
2.70
17.29
21.73
15.44
0.55
-19.29
-39.37
-53.99
-55.64
-39.28
-4.80
42.04
90.79
129.66
147.62
137.24
97.13
33.09
-43.63
-118.89
-178.80
-212.63
-214.22
-183.62
-127.05
-55.45
17.51
77.16
110.53
109.62
74.18
13.14
-57.58
-119.35
-156.37
-160.14
-131.23
-77.95
-12.54
52.69
107.89
146.42
164.82
162.81
143.26
111.65
74.03
35.21
-2.23
-37.45
-69.50
-95.16
-108.43
-102.60
-73.28
-22.64
40.03
101.23
147.47
169.16
162.64
130.42
79.45
19.81
-38.89
-88.10
-120.63
-131.63
-120.00
-88.69
-43.47
8.63
61.11
106.28
136.24
144.64
128.49
89.56
35.01
-24.01
-78.61
-115.08
-124.59
-110.42
-84.87
-60.26
-43.64
-36.15
-34.54
-36.27
-39.32
-43.45
-48.68
-53.86
-56.32
-53.52
-44.49
-28.38
-4.73
26.08
59.66
87.26
98.27
83.70
40.42
-25.85
-98.64
-156.92
-182.35
-166.65
-113.17
-34.25
53.04
131.34
187.25
216.22
221.43
211.35
195.74
183.13
178.91
183.90
195.00
195.85
175.43
135.40
89.25
49.71
20.79
-0.74
-19.86
-39.14
-57.59
-70.60
-74.21
-68.43
-57.66
-48.05
-44.31
-48.19
-58.51
-71.99
-83.42
-88.50
-85.80
-77.32
-66.71
-57.53
-52.18
-51.58
-55.19
-60.60
-64.75
-65.34
-61.84
-55.21
-47.40
-40.88
-37.90
-39.56
-45.15
-52.30
-58.07
-60.39
-58.25
-51.62
-40.88
-26.88
-10.64
5.21
16.22
17.60
7.02
-12.94
-34.33
-46.65
-41.66
-17.83
18.48
56.06
84.15
97.17
95.70
84.82
70.39
56.48
44.24
33.00
22.42
13.92
10.67
15.51
28.83
47.11
64.08
72.03
65.56
44.38
12.81
-19.04
-42.19
-52.79
-52.61
-45.56
-34.99
-20.39
0.65
29.27
62.91
94.79
116.76
120.90
107.06
80.94
50.63
22.95
1.28
-14.16
-25.06
-33.01
-38.72
-41.66
-41.65
-39.14
-35.24
-31.44
-28.69
-27.41
-27.33
-27.70
-27.26
-25.43
-22.35
-18.76
-15.62
-13.55
-12.69
-12.69
-12.93
-12.56
-11.27
-9.19
-6.86
-4.87
-3.58
-3.04
-3.01
-3.11
-2.90
-2.22
-1.14
0.07
1.14
1.86
2.20
2.27
2.22
2.25
2.48
2.94
3.57
4.26
4.85
5.04
4.81
4.19
3.33
2.42
1.72
1.32
1.17
1.01
0.50
-0.64
-2.45
-4.71
-6.96
-8.71
-9.75
-10.23
-10.75
-12.08
-14.80
-19.01
-24.18
-29.33
-33.43
-36.00
-37.36
-38.66
-41.37
-46.70
-54.84
-64.81
-74.78
-82.90
-88.22
-91.26
-93.92
-98.54
-106.92
-119.14
-133.46
-146.78
-155.58
-156.73
-148.17
-128.97
-100.13
-65.08
-29.51
-0.05
18.05
23.07
17.66
8.15
1.61
2.70
11.73
24.95
36.58
41.79
39.32
32.01
26.02
28.48
44.51
74.88
115.34
157.90
193.78
216.76
224.86
220.43
208.20
192.77
177.39
163.76
152.88
145.92
143.97
146.26
149.00
145.57
129.36
97.75
55.51
14.39
-11.39
-12.28
10.93
46.40
76.19
84.67
65.74
24.90
-24.51
-68.20
-97.03
-109.37
-109.41
-103.42
-96.45
-90.91
-86.85
-83.24
-79.21
-74.70
-70.36
-67.27
-66.31
-68.12
-72.65
-79.33
-86.85
-92.72
-93.04
-83.09
-59.50
-22.52
21.81
62.60
87.78
89.29
66.85
28.39
-13.41
-46.30
-63.27
-64.38
-55.15
-43.19
-34.93
-33.81
-39.94
-50.61
-61.17
-66.12
-60.88
-43.32
-15.31
17.47
47.68
69.13
79.47
80.51
76.71
72.34
69.45
67.84
66.63
66.68
70.33
79.16
90.84
98.35
92.93
69.57
30.93
-12.68
-48.26
-67.19
-68.74
-58.94
-45.65
-33.78
-24.05
-15.42
-8.10
-4.18
-5.61
-11.01
-15.64
-14.67
-7.53
0.34
-0.05
-15.31
-44.36
-77.80
-102.08
-105.85
-85.39
-46.15
0.13
39.85
62.13
61.90
40.97
7.50
-26.51
-49.06
-52.84
-38.49
-14.35
7.78
18.58
16.10
6.40
-0.41
3.73
20.09
42.41
60.91
67.93
61.80
47.07
31.40
20.67
16.31
15.53
13.91
8.53
0.02
-8.04
-11.35
-7.44
2.49
13.78
20.53
18.62
7.89
-7.65
-21.88
-29.49
-28.26
-19.90
-8.65
0.96
5.67
4.36
-2.11
-11.55
-20.84
-26.46
-25.34
-15.97
0.49
19.94
36.82
46.39
47.00
40.82
32.52
26.62
24.74
25.35
24.87
20.29
11.20
0.16
-8.94
-13.27
-12.77
-10.05
-8.71
-11.09
-16.91
-23.50
-27.48
-26.51
-20.77
-12.68
-5.63
-2.12
-2.81
-6.34
-10.23
-12.03
-10.10
-4.01
5.71
17.58
29.44
38.38
41.18
35.48
21.38
2.39
-15.64
-26.70
-27.86
-20.77
-10.88
-4.80
-6.91
-17.19
-31.50
-43.63
-48.02
-41.62
-24.44
1.11
31.19
61.40
87.66
107.15
118.69
122.64
120.21
112.60
101.03
87.31
74.32
65.89
65.52
74.50
90.56
107.48
115.66
106.60
76.82
29.57
-26.78
-82.53
-130.41
-167.33
-193.58
-210.28
-217.38
-214.21
-201.74
-184.32
-168.84
-160.88
-160.48
-160.52
-149.88
-119.78
-70.52
-13.69
32.44
52.36
41.96
11.79
-18.02
-26.87
-2.59
52.39
122.95
188.65
232.43
246.60
234.52
207.44
180.08
166.25
174.12
204.59
252.36
307.91
360.32
400.06
420.19
418.44
398.68
366.41
326.36
282.21
236.19
189.86
144.82
100.00
54.75
13.22
-23.96
-59.38
-94.51
-129.03
-161.01
-188.46
-216.39
-249.61
-280.66
-304.73
-319.76
-321.73
-308.58
-283.39
-254.57
-241.87
-260.26
-297.31
-338.84
-374.71
-394.65
-393.10
-370.06
-329.59
-289.81
-269.30
-260.28
-260.96
-277.61
-311.64
-359.38
-412.62
-388.52
-250.88
-127.93
-56.88
-4.72
39.42
80.34
117.47
147.50
166.41
159.44
110.57
35.76
-48.37
-132.21
-207.87
-271.97
-323.94
-363.97
-346.12
-258.42
-121.03
21.15
137.91
225.24
289.35
337.12
373.43
393.61
388.44
363.66
329.01
292.58
259.81
231.21
204.16
181.21
161.23
136.37
106.65
76.58
51.56
35.27
28.04
28.32
34.11
41.68
44.15
39.60
30.56
21.19
14.48
11.29
11.28
13.83
17.61
19.47
17.65
13.06
8.00
4.17
2.18
1.97
3.21
5.01
5.82
4.69
1.92
-1.41
-4.29
-6.12
-6.70
-6.27
-5.53
-5.35
-6.31
-8.50
-11.41
-14.19
-16.05
-16.57
-16.01
-15.23
-15.39
-17.30
-21.04
-25.89
-30.57
-34.03
-35.66
-35.74
-35.09
-34.86
-35.96
-39.07
-44.61
-52.49
-61.59
-69.17
-71.68
-65.03
-47.40
-20.51
10.57
39.14
59.64
69.76
70.90
66.80
61.29
56.50
52.54
48.55
43.89
38.89
34.64
32.12
31.50
32.09
32.69
32.13
29.92
26.33
22.10
18.16
15.23
13.64
13.25
13.56
13.92
13.68
12.43
10.04
6.75
3.17
0.18
-1.49
-1.49
-0.10
1.76
2.88
2.33
-0.38
-4.89
-10.15
-14.96
-18.17
-18.71
-15.66
-8.53
1.79
12.80
20.56
21.15
12.65
-3.17
-20.99
-34.19
-37.75
-30.32
-15.41
1.33
15.12
24.09
29.49
33.90
39.15
45.42
51.17
54.38
54.15
51.03
46.56
42.57
39.63
36.93
32.54
24.14
10.06
-9.89
-34.72
-62.79
-91.82
-119.84
-144.22
-161.30
-167.46
-160.70
-142.01
-115.91
-89.03
-67.82
-55.72
-52.82
-56.38
-62.95
-69.91
-75.98
-80.89
-84.24
-84.53
-79.93
-69.22
-52.42
-31.05
-7.44
16.01
37.62
56.25
72.07
85.59
97.06
106.26
112.55
115.25
114.06
109.37
102.74
95.34
88.37
82.62
78.23
74.76
71.50
67.89
63.61
58.85
54.07
49.79
46.36
43.78
41.77
39.88
37.77
35.30
32.64
30.18
28.31
27.40
27.54
28.44
29.55
30.39
30.57
30.13
29.63
29.08
28.60
27.97
26.62
23.78
18.96
12.12
3.97
-4.33
-11.42
-16.18
-18.22
-17.91
-16.18
-13.70
-11.03
-8.06
-4.30
0.66
7.28
15.98
27.34
40.95
56.30
70.62
79.29
77.60
63.01
37.31
6.33
-22.15
-41.81
-50.53
-50.78
-47.35
-44.84
-45.76
-50.32
-57.90
-68.44
-82.51
-100.34
-119.75
-135.32
-140.23
-129.52
-102.94
-66.04
-28.17
1.35
17.01
18.67
10.98
0.55
-6.99
-8.49
-2.94
9.42
27.60
49.36
70.68
85.88
89.97
80.90
60.97
36.44
14.85
1.66
-1.78
1.72
7.46
11.32
11.06
6.61
-0.56
-7.85
-12.04
-10.30
-1.63
11.93
25.35
32.33
28.61
14.23
-6.23
-26.00
-39.51
-44.86
-43.94
-40.39
-37.39
-36.37
-37.33
-40.18
-46.03
-56.41
-73.04
-94.84
-117.18
-132.91
-134.95
-119.93
-90.18
-53.24
-18.94
4.69
14.53
12.88
5.44
-1.98
-5.97
-6.24
-4.41
-2.12
-0.04
2.26
5.43
9.50
13.72
17.04
18.50
18.08
16.68
15.85
17.09
21.22
27.95
35.99
43.50
48.71
50.36
47.91
41.68
32.54
21.56
9.93
-1.18
-10.59
-17.17
-20.09
-19.07
-14.24
-6.45
3.04
12.93
22.27
30.53
37.67
43.80
48.86
52.91
55.69
57.16
57.77
58.44
60.40
64.65
71.43
79.89
88.82
96.54
101.90
104.96
107.05
110.51
118.35
133.64
155.79
184.45
217.49
250.71
278.32
294.50
295.41
280.72
253.34
217.60
177.34
133.63
85.62
32.30
-25.25
-83.09
-135.30
-176.65
-205.12
-222.44
-233.92
-245.78
-263.43
-290.32
-326.76
-369.15
-410.06
-439.65
-448.22
-430.27
-386.38
-324.47
-258.29
-202.99
-169.90
-162.45
-175.55
-197.57
-214.97
-215.87
-193.69
-148.91
-87.49
-17.86
52.34
117.47
175.95
223.34
256.05
275.77
287.83
298.90
313.48
334.39
360.16
384.69
399.37
397.87
379.01
346.97
309.16
272.57
240.90
213.08
185.21
153.64
118.01
81.07
46.21
15.54
-10.56
-32.28
-49.35
-60.39
-63.88
-59.24
-47.90
-33.83
-22.29
-18.26
-25.32
-45.57
-79.68
-126.37
-181.26
-236.73
-282.55
-308.16
-305.49
-271.71
-210.84
-133.34
-53.87
12.63
55.73
73.33
72.61
67.07
70.40
89.99
123.65
161.28
190.64
203.67
199.93
185.18
166.55
148.07
128.97
105.48
74.46
36.03
-6.56
-48.97
-88.51
-125.25
-161.48
-200.14
-242.76
-287.83
-330.44
-363.49
-380.21
-377.00
-355.05
-319.82
-278.49
-236.75
-196.79
-157.63
-117.27
-75.11
-32.91
6.49
41.26
71.99
101.19
131.34
162.96
194.47
223.55
248.95
271.26
292.26
313.59
335.90
359.08
383.02
408.01
434.11
459.81
481.17
492.39
487.74
464.08
422.46
367.90
307.36
247.21
191.20
139.84
91.30
42.65
-8.96
-65.55
-127.81
-194.32
-260.37
-317.46
-354.82
-363.31
-340.17
-291.94
-233.42
-182.56
-153.69
-152.19
-173.51
-206.87
-241.44
-271.08
-295.68
-319.05
-345.48
-377.64
-415.04
-454.41
-490.62
-518.07
-532.26
-530.71
-513.54
-483.25
-445.01
-403.53
-361.62
-319.91
-278.37
-237.73
-199.73
-165.76
-135.38
-108.96
-84.50
-57.96
-23.94
21.84
80.04
146.59
213.77
272.26
308.75
314.60
289.01
239.92
179.51
118.15
61.01
8.45
-41.52
-97.40
-164.67
-243.79
-329.23
-413.38
-490.94
-560.13
-620.92
-630.39
-559.31
-403.84
-193.06
30.45
233.70
401.27
530.83
626.66
695.35
735.34
749.68
741.66
717.91
686.52
653.65
622.28
593.04
565.50
533.45
495.13
450.82
404.89
363.28
330.15
306.49
290.89
280.88
270.75
256.38
235.76
210.33
184.12
161.53
146.02
139.75
143.47
155.10
171.94
190.87
209.23
225.18
237.10
243.50
243.01
234.48
216.65
189.05
151.95
105.72
52.01
-6.20
-65.00
-120.44
-169.38
-209.86
-240.98
-262.65
-278.65
-292.02
-303.66
-312.38
-316.55
-316.03
-312.58
-309.12
-308.30
-318.80
-345.63
-387.28
-436.29
-483.27
-521.36
-547.86
-563.34
-569.47
-579.63
-603.33
-641.55
-687.26
-731.16
-767.80
-796.97
-821.69
-844.55
-882.48
-946.84
-1038.02
-1145.27
-1253.07
-1347.83
-1420.07
-1464.32
-1394.50
-1172.96
-822.77
-420.23
-46.60
251.73
466.97
613.17
700.88
755.20
778.27
770.62
739.74
701.69
673.99
668.21
687.82
727.73
778.57
817.47
828.24
807.67
764.86
713.44
663.71
619.74
581.45
548.30
511.80
466.89
414.36
359.97
310.59
270.22
238.79
214.30
195.06
175.70
153.02
126.90
99.64
74.26
54.91
39.55
26.11
13.21
-1.45
-19.05
-39.37
-61.28
-82.88
-103.00
-121.62
-138.60
-153.81
-167.33
-179.21
-189.56
-198.68
-206.32
-212.47
-217.54
-221.34
-223.57
-223.62
-220.51
-212.58
-202.85
-192.10
-180.88
-169.79
-159.06
-148.87
-139.43
-130.88
-123.39
-117.14
-111.51
-106.06
-100.57
-94.72
-88.38
-81.58
-74.52
-67.55
-61.13
-55.15
-49.63
-44.60
-40.01
-35.80
-31.96
-28.49
-25.43
-22.77
-20.04
-16.74
-12.35
-6.42
1.31
10.80
21.75
33.58
45.72
57.87
69.94
82.02
94.20
106.51
118.70
130.37
141.07
150.60
159.25
167.74
177.06
188.10
201.33
216.61
233.38
250.84
268.41
285.83
303.18
320.83
339.38
359.69
382.85
409.68
439.71
470.31
496.66
512.75
513.27
495.35
459.46
409.07
349.40
286.03
223.96
167.35
119.42
82.34
56.77
41.47
33.29
27.91
21.10
9.88
-6.68
-27.27
-48.85
-67.64
-80.42
-85.76
-84.52
-79.49
-74.28
-72.01
-74.38
-81.36
-91.58
-102.98
-113.50
-121.53
-126.05
-126.73
-123.98
-118.90
-113.09
-108.24
-105.60
-105.61
-107.74
-110.63
-112.59
-112.16
-108.72
-102.81
-96.02
-90.58
-88.61
-91.51
-99.39
-110.93
-123.65
-134.57
-141.11
-141.93
-137.43
-129.63
-121.34
-115.02
-111.78
-110.98
-110.71
-108.78
-103.73
-95.34
-84.52
-72.61
-60.75
-49.43
-38.49
-27.39
-15.54
-2.36
12.61
29.57
48.30
67.92
87.00
103.92
117.47
127.21
133.45
136.84
137.89
136.86
133.93
129.63
125.03
121.46
119.91
120.44
122.17
123.81
124.43
123.99
123.33
123.65
125.77
129.60
134.10
137.61
138.48
135.71
129.45
121.08
112.96
107.73
107.47
112.76
122.21
132.59
139.85
140.50
133.12
118.90
101.23
84.25
70.75
60.78
51.25
36.93
12.24
-26.99
-82.05
-150.44
-225.91
-299.39
-360.68
-400.92
-414.96
-403.02
-370.68
-327.07
-281.83
-242.25
-211.56
-189.02
-171.42
-155.00
-137.04
-116.53
-93.99
-70.86
-48.68
-28.53
-10.57
5.81
21.59
37.73
54.80
72.70
90.87
108.50
125.04
140.33
154.52
167.84
180.40
191.98
202.11
210.29
216.14
219.57
220.54
218.99
214.71
207.54
197.45
184.37
167.92
147.22
120.89
87.52
46.68
-0.05
-47.87
-89.16
-115.60
-120.76
-102.97
-66.44
-20.31
24.67
59.60
80.71
89.20
88.00
79.16
62.72
37.91
5.74
-29.42
-61.14
-82.44
-88.94
-81.31
-63.82
-41.86
-19.53
0.81
17.42
26.88
25.42
10.27
-19.58
-61.54
-109.81
-157.26
-197.85
-223.39
-235.09
-241.37
-247.26
-256.07
-267.25
-276.30
-276.66
-262.81
-233.63
-194.84
-156.15
-127.59
-116.21
-122.53
-140.42
-159.62
-169.79
-164.08
-141.58
-106.11
-65.01
-28.20
-5.63
-4.75
-28.20
-72.57
-128.99
-185.66
-230.26
-252.96
-249.12
-219.73
-170.95
-112.36
-54.44
-5.59
29.87
52.37
65.35
72.03
73.42
68.30
55.49
36.45
16.50
3.25
3.03
17.66
43.25
72.41
98.15
116.85
128.69
135.56
138.32
135.74
125.76
108.06
85.89
65.72
54.34
55.34
67.21
84.22
99.58
108.89
111.66
110.29
107.30
103.20
96.09
83.68
66.11
47.44
34.59
33.84
47.03
69.63
91.98
103.47
97.17
72.30
33.62
-11.79
-57.94
-101.36
-140.23
-172.49
-194.95
-204.37
-199.55
-182.54
-157.95
-130.86
-104.63
-80.33
-57.74
-36.76
-17.84
-1.11
15.07
34.62
62.03
99.30
143.23
185.22
214.07
220.67
202.47
164.85
118.70
75.63
43.20
22.50
9.29
-2.40
-16.09
-30.86
-41.94
-43.46
-31.32
-4.88
33.13
77.75
123.28
164.54
197.78
221.29
235.55
243.11
247.63
252.71
260.74
272.13
285.29
297.10
303.72
301.71
288.91
264.88
230.82
189.24
143.41
96.96
53.42
15.59
-15.27
-40.38
-63.28
-88.26
-117.99
-151.34
-183.05
-205.75
-213.58
-205.34
-185.26
-160.98
-139.91
-125.88
-118.10
-112.64
-105.53
-95.33
-83.92
-75.27
-72.87
-77.88
-88.86
-103.07
-118.16
-132.99
-147.16
-159.75
-168.53
-170.17
-161.88
-143.28
-117.28
-89.24
-64.92
-48.23
-40.01
-38.37
-39.70
-40.30
-37.97
-32.58
-25.35
-17.83
-10.94
-4.23
3.48
13.92
28.03
44.99
62.07
76.04
84.50
86.24
81.24
69.06
49.17
21.09
-15.38
-59.09
-106.40
-151.59
-189.35
-216.61
-234.53
-245.83
-252.15
-252.56
-243.62
-220.80
-181.33
-127.25
-62.94
-3.31
34.50
42.48
25.70
-3.92
-35.41
-60.29
-79.13
-93.73
-105.30
-112.31
-111.10
-98.05
-72.43
-35.64
9.64
60.22
113.93
168.55
222.19
272.41
315.25
345.65
359.71
356.47
338.26
310.26
277.90
245.76
216.80
191.97
170.73
152.12
135.30
119.39
103.53
86.57
67.88
47.84
27.61
8.63
-7.70
-20.48
-29.46
-35.08
-38.22
-39.70
-39.89
-38.72
-36.07
-31.77
-25.75
-18.10
-9.65
-1.84
3.65
5.57
3.45
-2.31
-10.76
-20.63
-30.67
-40.57
-50.59
-61.17
-72.66
-85.46
-100.65
-120.11
-145.73
-173.49
-196.28
-206.36
-200.08
-179.50
-150.17
-118.15
-88.06
-62.17
-40.44
-22.33
-7.54
3.53
10.47
13.56
13.85
12.93
12.54
14.16
17.97
22.98
27.59
30.51
31.45
31.15
31.05
32.71
37.41
45.20
54.88
64.38
71.53
74.90
73.96
69.05
61.11
51.25
40.01
27.21
12.64
-4.04
-22.61
-41.93
-60.18
-75.28
-85.78
-91.26
-92.63
-91.54
-89.88
-89.15
-90.34
-94.01
-100.05
-107.18
-112.39
-111.50
-100.43
-77.61
-45.28
-9.21
23.34
46.63
58.57
61.07
58.22
53.93
50.17
46.85
43.09
38.52
33.89
30.55
29.47
30.43
32.20
33.16
32.07
28.80
24.28
19.95
17.12
16.32
17.19
18.67
19.48
18.80
16.57
13.48
10.56
8.74
8.41
9.29
10.58
11.39
11.10
9.70
7.72
5.97
5.17
5.59
6.96
8.62
9.75
9.85
8.93
7.54
6.45
6.37
7.54
9.62
11.80
13.20
13.16
11.54
8.71
5.30
2.03
-0.45
-1.54
-0.83
1.55
4.63
6.63
5.48
-0.21
-10.13
-22.16
-32.96
-39.41
-39.95
-35.16
-27.20
-18.63
-11.27
-5.68
-1.51
1.82
4.48
6.11
6.28
4.90
2.42
-0.27
-2.23
-2.95
-2.44
-1.23
-0.02
0.63
0.57
0.04
-0.50
-0.69
-0.52
-0.20
-0.04
-0.25
-0.70
-1.04
-0.96
-0.33
0.68
1.64
2.15
2.06
1.53
0.91
0.51
0.46
0.68
0.83
0.64
-0.07
-1.40
-3.44
-6.23
-9.71
-13.42
-16.42
-17.58
-16.00
-11.75
-6.18
-1.62
-0.29
-3.18
-9.30
-15.81
-19.32
-17.63
-10.64
-0.20
10.99
20.64
27.39
30.47
29.25
23.20
12.58
-0.53
-12.22
-17.88
-14.44
-2.13
15.32
32.25
43.62
47.08
43.40
35.50
26.64
18.92
12.89
8.12
4.09
0.69
-1.73
-2.77
-2.45
-1.39
-0.47
-0.49
-1.74
-3.88
-6.09
-7.49
-7.46
-5.87
-3.04
0.54
4.44
8.41
12.35
16.16
19.59
22.23
23.58
23.21
20.93
16.95
11.86
6.43
1.38
-2.88
-6.40
-9.48
-12.49
-15.59
-18.66
-21.38
-23.51
-24.98
-25.91
-26.43
-26.44
-25.78
-24.37
-22.34
-19.98
-17.36
-14.05
-9.22
-2.13
7.22
17.58
26.69
32.09
32.24
27.20
18.61
8.99
0.73
-4.69
-6.90
-6.44
-4.31
-1.63
0.50
0.96
-1.14
-6.32
-14.18
-23.29
-31.34
-35.85
-35.06
-28.66
-18.05
-5.87
4.80
11.41
12.76
9.27
2.78
-4.00
-8.26
-7.82
-1.67
9.67
24.32
39.55
52.49
61.12
64.85
64.65
62.64
61.08
61.32
63.23
65.38
65.92
63.90
59.95
55.99
54.12
55.29
58.43
60.79
59.19
51.40
37.28
18.81
-0.51
-16.93
-27.56
-31.42
-29.79
-25.84
-23.80
-27.76
-40.82
-64.34
-97.07
-134.69
-170.01
-194.32
-200.25
-184.87
-151.42
-108.63
-67.40
-36.37
-18.85
-12.69
-12.57
-13.56
-13.47
-12.64
-12.38
-13.14
-13.99
-13.56
-11.36
-8.23
-5.80
-5.54
-7.76
-11.60
-15.82
-19.68
-23.40
-28.06
-34.86
-44.30
-55.47
-66.22
-73.71
-75.58
-70.99
-60.94
-47.70
-33.57
-19.64
-5.29
11.29
31.73
56.21
82.95
108.54
129.20
142.02
145.84
141.41
130.82
116.76
101.65
87.13
73.72
61.04
48.42
35.54
22.68
10.66
0.18
-8.61
-16.26
-23.41
-30.42
-36.97
-42.42
-46.29
-48.59
-49.66
-49.76
-48.66
-45.61
-40.01
-31.99
-22.71
-13.94
-7.21
-2.88
-0.06
2.90
7.58
14.59
23.49
33.02
41.84
48.87
53.58
55.68
55.00
51.45
45.10
36.47
26.62
17.10
9.49
5.00
3.96
5.63
8.42
10.37
9.85
6.15
-0.42
-8.74
-17.45
-25.53
-32.62
-39.02
-45.41
-52.39
-60.22
-68.79
-77.68
-86.21
-93.57
-98.83
-101.15
-100.01
-95.36
-87.82
-78.40
-68.23
-58.09
-48.14
-37.84
-26.16
-12.05
5.14
25.17
46.65
67.30
84.37
95.51
99.49
96.63
88.58
77.79
66.66
57.03
49.88
45.46
43.52
43.47
44.59
45.98
46.77
46.23
43.93
39.83
34.26
27.83
21.25
15.12
9.76
5.20
1.12
-2.89
-7.20
-11.83
-16.39
-20.09
-22.06
-21.63
-18.58
-13.31
-6.57
0.67
7.63
13.87
19.34
24.19
28.54
32.34
35.32
37.18
37.82
37.36
36.18
34.76
33.45
32.32
31.18
29.75
27.78
25.25
22.34
19.28
16.25
13.22
10.04
6.45
2.29
-2.36
-7.14
-11.45
-14.68
-16.30
-16.06
-14.05
-10.79
-7.11
-3.96
-2.06
-1.61
-2.11
-2.53
-1.74
0.90
5.19
10.04
14.04
16.05
15.71
13.44
10.13
6.60
3.28
0.22
-2.75
-5.63
-8.20
-10.10
-11.24
-11.82
-12.48
-13.88
-16.44
-20.17
-24.60
-29.04
-32.81
-35.46
-36.86
-37.14
-36.52
-35.24
-33.42
-31.14
-28.48
-25.63
-22.85
-20.57
-19.11
-18.55
-18.60
-18.65
-18.04
-16.32
-13.44
-9.77
-6.00
-2.77
-0.48
0.87
1.50
1.81
2.04
2.28
2.46
2.37
1.73
0.39
-1.66
-4.16
-6.50
-7.93
-7.66
-5.27
-0.82
5.08
11.51
17.50
22.36
25.76
27.61
27.94
26.84
24.53
21.37
17.95
14.90
12.65
11.25
10.36
9.43
8.00
5.83
3.03
-0.06
-3.02
-5.46
-7.14
-7.96
-8.04
-7.69
-7.40
-7.68
-8.84
-10.82
-13.11
-14.86
-15.22
-13.68
-10.34
-5.81
-1.10
2.87
5.44
6.47
6.18
5.00
3.36
1.59
-0.12
-1.65
-2.85
-3.61
-3.81
-3.41
-2.47
-1.15
0.24
1.34
1.76
1.33
0.10
-1.60
-3.33
-4.71
-5.56
-5.93
-6.06
-6.21
-6.62
-7.30
-8.16
-8.85
-8.99
-8.21
-6.32
-3.44
0.04
3.50
6.40
8.38
9.45
9.83
9.88
9.84
9.74
9.50
8.96
8.01
6.64
4.97
3.15
1.35
-0.28
-1.68
-2.83
-3.69
-4.31
-4.70
-4.92
-5.08
-5.34
-5.86
-6.78
-8.09
-9.57
-10.93
-11.89
-12.28
-12.08
-11.33
-9.98
-7.97
-5.20
-1.75
2.06
5.64
8.35
9.77
9.84
8.88
7.35
5.68
4.07
2.56
1.14
-0.14
-1.19
-1.91
-2.30
-2.46
-2.59
-2.88
-3.37
-3.95
-4.46
-4.84
-5.14
-5.44
-5.82
-6.18
-6.38
-6.27
-5.82
-5.26
-4.93
-5.15
-5.99
-7.20
-8.30
-8.74
-8.18
-6.58
-4.20
-1.44
1.31
3.78
5.79
7.21
7.92
7.85
7.01
5.60
3.97
2.51
1.53
1.08
1.09
1.37
1.70
1.93
1.95
1.67
1.04
0.07
-1.18
-2.53
-3.80
-4.86
-5.65
-6.15
-6.37
-6.36
-6.18
-5.94
-5.81
-6.02
-6.73
-7.85
-9.04
-9.69
-9.18
-7.13
-3.64
0.67
4.90
8.22
10.20
10.81
10.43
9.52
8.44
7.47
6.80
6.57
6.80
7.32
7.65
7.23
5.72
3.20
0.21
-2.51
-4.37
-5.21
-5.33
-5.23
-5.26
-5.57
-6.00
-6.38
-6.64
-6.86
-7.26
-8.10
-9.53
-11.54
-13.88
-16.11
-17.68
-18.08
-16.99
-14.38
-10.63
-6.32
-2.14
1.38
3.86
5.18
5.34
4.45
2.70
0.36
-2.19
-4.52
-6.20
-6.92
-6.56
-5.24
-3.30
-1.17
0.75
2.12
2.78
2.71
2.06
1.07
0.06
-0.71
-1.12
-1.21
-1.23
-1.56
-2.57
-4.40
-6.92
-9.63
-11.80
-12.71
-11.89
-9.33
-5.53
-1.25
2.75
5.88
7.90
8.78
8.62
7.65
6.17
4.54
3.17
2.31
1.97
1.88
1.72
1.23
0.44
-0.43
-1.17
-1.73
-2.27
-3.10
-4.41
-6.15
-8.15
-10.09
-11.72
-12.96
-13.92
-14.78
-15.77
-17.06
-18.74
-20.83
-23.22
-25.65
-27.72
-28.98
-29.01
-27.73
-25.31
-22.30
-19.27
-16.67
-14.69
-13.37
-12.63
-12.44
-12.73
-13.20
-13.26
-12.11
-9.12
-4.23
1.97
8.44
14.11
18.41
21.47
23.83
26.05
28.32
30.32
31.55
31.67
30.77
29.34
27.97
26.90
25.89
24.30
21.56
17.60
12.99
8.86
6.34
6.18
8.38
12.33
17.02
21.52
25.21
27.79
29.17
29.35
28.40
26.49
24.01
21.44
19.28
17.83
17.08
16.75
16.43
15.76
14.55
12.76
10.41
7.57
4.37
1.01
-2.19
-4.86
-6.72
-7.76
-8.21
-8.47
-8.94
-9.82
-11.08
-12.52
-13.89
-15.01
-15.82
-16.29
-16.36
-15.94
-14.90
-13.25
-11.11
-8.76
-6.56
-4.76
-3.45
-2.58
-2.06
-1.88
-2.10
-2.69
-3.40
-3.73
-3.11
-1.18
1.93
5.63
9.11
11.72
13.32
14.21
14.86
15.57
16.23
16.42
15.71
13.92
11.22
8.02
4.79
1.82
-0.69
-2.65
-3.87
-4.18
-3.45
-1.78
0.54
3.02
5.19
6.74
7.56
7.83
7.91
8.35
9.67
12.23
16.07
20.88
25.99
30.52
33.76
35.25
34.98
33.32
30.86
28.11
25.34
22.50
19.38
15.76
11.72
7.59
3.87
0.93
-1.28
-3.22
-5.60
-9.10
-13.99
-20.09
-26.77
-33.03
-37.66
-39.57
-38.03
-33.06
-25.76
-18.22
-13.21
-13.20
-19.51
-31.47
-46.34
-59.81
-67.31
-65.41
-52.85
-30.89
-2.68
27.93
57.43
83.24
103.56
116.90
122.00
118.17
106.00
87.63
66.32
45.29
26.57
10.45
-3.92
-17.46
-30.19
-41.14
-49.16
-53.91
-56.34
-58.23
-61.17
-65.63
-70.83
-75.41
-78.49
-80.20
-81.49
-83.34
-85.84
-88.04
-88.52
-86.41
-82.19
-77.74
-75.55
-77.45
-83.80
-93.45
-104.43
-114.98
-124.00
-130.88
-134.80
-134.31
-127.36
-112.06
-87.73
-55.55
-18.59
18.97
52.98
80.32
99.38
110.12
113.59
111.24
104.54
94.51
81.90
67.34
51.67
36.00
21.64
9.63
0.41
-6.26
-11.20
-15.35
-19.34
-23.27
-26.79
-29.41
-30.89
-31.53
-32.04
-33.37
-36.21
-40.71
-46.37
-52.12
-56.63
-58.59
-57.00
-51.42
-42.05
-29.74
-15.80
-1.78
10.94
21.29
28.75
33.28
35.19
34.98
33.23
30.53
27.45
24.47
21.92
19.95
18.52
17.48
16.64
15.80
14.79
13.46
11.68
9.25
5.97
1.55
-4.24
-11.43
-19.68
-28.17
-35.72
-41.14
-43.69
-43.39
-40.93
-37.34
-33.52
-29.93
-26.61
-23.42
-20.29
-17.30
-14.48
-11.65
-8.33
-3.90
2.00
9.29
17.31
25.16
32.02
37.51
41.79
45.36
48.84
52.57
56.43
59.90
62.28
63.09
62.36
60.72
59.14
58.71
60.09
63.32
67.81
72.52
76.29
78.15
77.61
74.58
69.35
62.46
54.58
46.40
38.60
31.76
26.25
22.22
19.48
17.62
16.09
14.39
12.25
9.66
6.88
4.31
2.27
0.86
-0.20
-1.46
-3.46
-6.42
-9.98
-13.17
-14.75
-13.69
-9.64
-3.06
4.91
12.94
19.94
25.34
29.05
31.29
32.28
32.17
31.07
29.18
26.89
24.70
23.04
22.04
21.56
21.19
20.55
19.45
18.03
16.62
15.50
14.69
13.86
12.45
9.89
5.88
0.48
-5.90
-12.52
-18.44
-22.70
-24.47
-23.30
-19.25
-12.99
-5.61
1.60
7.57
11.68
13.82
14.29
13.58
12.18
10.52
8.96
7.73
7.00
6.75
6.78
6.76
6.36
5.37
3.74
1.67
-0.60
-2.82
-4.86
-6.73
-8.54
-10.34
-12.17
-13.94
-15.52
-16.70
-17.19
-16.73
-15.09
-12.19
-8.19
-3.42
1.57
6.27
10.24
13.28
15.35
16.56
16.96
16.59
15.44
13.60
11.38
9.17
7.43
6.39
6.01
6.02
6.04
5.76
5.01
3.82
2.23
0.27
-1.99
-4.46
-6.94
-9.19
-11.01
-12.42
-13.66
-15.09
-16.99
-19.23
-21.28
-22.31
-21.52
-18.50
-13.43
-6.98
-0.10
6.36
11.88
16.26
19.44
21.34
21.82
20.87
18.81
16.30
14.24
13.44
14.20
16.27
18.94
21.37
22.98
23.62
23.51
22.99
22.26
21.31
20.02
18.32
16.33
14.31
12.49
10.97
9.61
8.06
6.03
3.47
0.58
-2.21
-4.46
-5.92
-6.61
-6.80
-6.92
-7.31
-8.22
-9.74
-11.81
-14.33
-17.13
-20.00
-22.62
-24.55
-25.29
-24.36
-21.53
-16.88
-10.83
-4.10
2.56
8.37
12.77
15.39
16.06
14.90
12.32
8.96
5.57
2.93
1.58
1.70
3.17
5.56
8.29
10.78
12.55
13.38
13.28
12.48
11.28
9.98
8.73
7.52
6.27
4.88
3.30
1.58
-0.27
-2.16
-3.95
-5.46
-6.49
-6.95
-6.93
-6.71
-6.61
-6.94
-7.75
-8.99
-10.58
-12.47
-14.60
-16.91
-19.05
-20.45
-20.55
-18.93
-15.62
-11.10
-6.10
-1.37
2.59
5.59
7.72
9.10
9.81
9.81
9.08
7.72
6.01
4.30
2.92
2.01
1.53
1.29
1.11
0.88
0.56
0.12
-0.51
-1.46
-2.79
-4.43
-6.23
-7.98
-9.52
-10.80
-11.81
-12.56
-13.04
-13.17
-12.94
-12.46
-11.85
-11.30
-10.96
-10.88
-11.00
-11.27
-11.63
-12.12
-12.89
-14.04
-15.52
-17.05
-18.13
-18.18
-16.75
-13.75
-9.52
-4.73
-0.11
3.75
6.52
8.15
8.70
8.31
7.12
5.36
3.35
1.52
0.26
-0.15
0.31
1.40
2.69
3.77
4.38
4.47
4.19
3.80
3.52
3.43
3.44
3.34
2.97
2.24
1.18
-0.10
-1.48
-2.83
-4.03
-5.01
-5.71
-6.10
-6.21
-6.09
-5.80
-5.42
-5.08
-4.96
-5.28
-6.22
-7.83
-9.87
-11.92
-13.35
-13.67
-12.56
-10.08
-6.63
-2.82
0.77
3.71
5.79
7.04
7.59
7.56
7.06
6.21
5.19
4.22
3.56
3.32
3.52
3.96
4.35
4.46
4.17
3.57
2.89
2.42
2.30
2.57
3.07
3.56
3.85
3.87
3.63
3.23
2.77
2.23
1.53
0.58
-0.67
-2.19
-3.90
-5.72
-7.47
-8.97
-10.08
-10.75
-11.12
-11.41
-11.84
-12.47
-13.12
-13.39
-12.86
-11.32
-8.86
-5.86
-2.86
-0.21
1.87
3.42
4.58
5.45
6.00
6.15
5.75
4.78
3.41
1.99
0.95
0.61
1.09
2.16
3.41
4.42
4.90
4.80
4.26
3.51
2.69
1.87
0.99
0.08
-0.79
-1.51
-1.98
-2.24
-2.47
-2.90
-3.70
-4.91
-6.38
-7.87
-9.15
-10.06
-10.61
-10.89
-11.00
-10.95
-10.70
-10.12
-9.05
-7.42
-5.27
-2.79
-0.28
1.92
3.57
4.56
4.89
4.63
3.87
2.79
1.57
0.48
-0.16
-0.14
0.58
1.82
3.21
4.36
5.01
5.11
4.76
4.21
3.68
3.30
3.07
2.88
2.52
1.83
0.73
-0.74
-2.40
-4.00
-5.40
-6.56
-7.57
-8.53
-9.56
-10.70
-11.97
-13.38
-14.86
-16.27
-17.35
-17.76
-17.20
-15.49
-12.69
-9.05
-4.92
-0.69
3.26
6.64
9.19
10.76
11.30
10.91
9.84
8.47
7.17
6.28
5.98
6.19
6.63
6.92
6.77
6.14
5.23
4.36
3.73
3.33
3.02
2.64
2.16
1.72
1.47
1.46
1.53
1.48
1.15
0.52
-0.31
-1.21
-2.21
-3.38
-4.78
-6.35
-7.85
-8.95
-9.38
-9.02
-7.93
-6.33
-4.48
-2.64
-1.07
0.03
0.58
0.57
0.08
-0.75
-1.79
-2.96
-4.19
-5.44
-6.69
-7.84
-8.87
-9.80
-10.74
-11.85
-13.31
-15.17
-17.37
-19.66
-21.72
-23.38
-24.58
-25.52
-26.51
-27.79
-29.40
-31.09
-32.47
-33.14
-32.92
-31.82
-30.03
-27.73
-25.01
-21.85
-18.19
-13.96
-9.22
-4.11
1.14
6.22
10.75
14.34
16.71
17.71
17.57
16.72
15.74
15.08
14.92
15.11
15.42
15.73
16.12
16.83
18.06
19.82
21.91
24.03
25.94
27.60
29.09
30.57
32.09
33.69
35.30
36.88
38.36
39.58
40.31
40.23
39.11
36.87
33.62
29.56
24.89
19.75
14.21
8.46
2.80
-2.27
-6.22
-8.62
-9.34
-8.65
-7.11
-5.46
-4.28
-3.91
-4.25
-4.95
-5.61
-5.97
-6.04
-6.06
-6.34
-7.04
-8.09
-9.20
-10.01
-10.25
-9.85
-8.99
-7.90
-6.88
-6.12
-5.76
-5.88
-6.56
-7.82
-9.62
-11.85
-14.24
-16.48
-18.27
-19.41
-19.88
-19.88
-19.80
-20.04
-20.85
-22.13
-23.39
-23.86
-22.83
-19.96
-15.46
-10.10
-4.89
-0.75
1.86
3.00
3.10
2.70
2.17
1.68
1.20
0.68
0.16
-0.19
-0.18
0.29
1.13
2.06
2.79
3.04
2.80
2.15
1.29
0.40
-0.46
-1.31
-2.20
-3.13
-4.04
-4.79
-5.32
-5.68
-6.02
-6.59
-7.52
-8.71
-9.79
-10.23
-9.58
-7.65
-4.64
-1.05
2.47
5.42
7.57
8.97
9.82
10.27
10.37
9.99
9.02
7.48
5.63
3.92
2.76
2.44
2.92
3.92
4.98
5.69
5.79
5.26
4.26
3.02
1.79
0.66
-0.37
-1.37
-2.40
-3.49
-4.64
-5.86
-7.24
-8.73
-10.15
-11.13
-11.18
-9.85
-7.04
-3.11
1.21
5.03
7.69
8.94
8.98
8.23
7.13
5.93
4.69
3.44
2.26
1.32
0.84
0.97
1.73
2.90
4.18
5.25
5.84
5.87
5.34
4.39
3.19
1.93
0.73
-0.38
-1.42
-2.45
-3.50
-4.58
-5.65
-6.67
-7.53
-8.09
-8.16
-7.56
-6.18
-4.11
-1.59
0.99
3.24
4.91
5.93
6.37
6.33
5.90
5.16
4.18
3.09
2.12
1.54
1.55
2.18
3.24
4.38
5.20
5.48
5.19
4.48
3.60
2.78
2.17
1.84
1.75
1.82
1.92
1.85
1.33
0.14
-1.82
-4.39
-7.12
-9.42
-10.72
-10.68
-9.27
-6.80
-3.68
-0.40
2.67
5.28
7.25
8.45
8.85
8.48
7.50
6.21
4.97
4.11
3.85
4.23
5.11
6.20
7.15
7.71
7.78
7.46
6.95
6.44
5.95
5.39
4.57
3.39
1.90
0.31
-1.10
-2.09
-2.57
-2.61
-2.42
-2.27
-2.39
-2.99
-4.10
-5.65
-7.32
-8.67
-9.27
-8.84
-7.31
-4.88
-1.92
1.17
3.95
6.11
7.40
7.76
7.25
6.13
4.77
3.58
2.82
2.58
2.81
3.41
4.27
5.31
6.42
7.46
8.22
8.56
8.40
7.79
6.87
5.81
4.70
3.52
2.22
0.74
-0.82
-2.28
-3.35
-3.82
-3.65
-3.04
-2.36
-2.03
-2.33
-3.24
-4.57
-5.96
-7.08
-7.63
-7.40
-6.29
-4.31
-1.64
1.36
4.16
6.25
7.31
7.28
6.49
5.39
4.48
4.03
4.07
4.39
4.77
5.05
5.24
5.48
5.82
6.23
6.47
6.36
5.83
5.09
4.49
4.34
4.74
5.44
5.97
5.82
4.72
2.78
0.48
-1.57
-2.85
-3.21
-2.92
-2.53
-2.64
-3.54
-5.20
-7.21
-9.01
-10.07
-10.07
-8.96
-6.92
-4.27
-1.39
1.36
3.72
5.55
6.77
7.35
7.20
6.31
4.83
3.12
1.70
1.00
1.22
2.11
3.22
4.05
4.35
4.22
3.92
3.73
3.71
3.73
3.61
3.28
2.80
2.35
2.00
1.69
1.19
0.36
-0.78
-2.05
-3.12
-3.77
-4.04
-4.19
-4.54
-5.26
-6.21
-7.05
-7.35
-6.84
-5.52
-3.56
-1.29
0.98
3.01
4.55
5.43
5.54
4.97
3.96
2.86
2.01
1.56
1.48
1.64
1.88
2.16
2.57
3.17
4.00
4.96
5.84
6.40
6.50
6.06
5.13
3.81
2.22
0.52
-1.14
-2.56
-3.56
-4.05
-4.11
-3.99
-4.03
-4.55
-5.63
-7.09
-8.49
-9.33
-9.26
-8.21
-6.39
-4.17
-1.93
0.07
1.70
2.89
3.67
4.02
3.94
3.48
2.74
1.84
0.90
-0.00
-0.78
-1.33
-1.52
-1.28
-0.65
0.18
0.91
1.26
1.05
0.31
-0.69
-1.61
-2.11
-2.10
-1.68
-1.12
-0.72
-0.66
-0.97
-1.52
-2.20
-2.89
-3.58
-4.24
-4.79
-5.02
-4.71
-3.71
-2.09
-0.16
1.63
2.89
3.44
3.36
2.91
2.35
1.81
1.26
0.59
-0.16
-0.84
-1.20
-1.05
-0.46
0.32
0.93
1.20
1.17
1.12
1.26
1.63
1.98
1.95
1.29
0.05
-1.41
-2.65
-3.35
-3.50
-3.31
-3.11
-3.11
-3.40
-4.00
-4.79
-5.65
-6.37
-6.64
-6.14
-4.68
-2.34
0.47
3.14
5.13
6.15
6.26
5.77
5.06
4.35
3.68
3.03
2.36
1.78
1.40
1.29
1.42
1.56
1.55
1.22
0.57
-0.32
-1.32
-2.32
-3.23
-4.01
-4.63
-5.11
-5.52
-5.93
-6.41
-6.95
-7.48
-7.90
-8.15
-8.24
-8.21
-8.09
-7.82
-7.28
-6.31
-4.83
-2.87
-0.62
1.63
3.59
5.02
5.80
5.98
5.65
4.94
3.97
2.84
1.65
0.54
-0.38
-0.97
-1.15
-0.95
-0.46
0.14
0.66
0.91
0.75
0.10
-0.98
-2.30
-3.60
-4.59
-5.10
-5.17
-5.08
-5.18
-5.74
-6.72
-7.85
-8.72
-8.98
-8.48
-7.31
-5.63
-3.61
-1.42
0.71
2.49
3.59
3.87
3.37
2.40
1.33
0.46
-0.13
-0.52
-0.88
-1.28
-1.66
-1.90
-1.87
-1.56
-1.02
-0.37
0.23
0.65
0.79
0.61
0.21
-0.28
-0.70
-0.99
-1.22
-1.59
-2.30
-3.46
-4.97
-6.59
-8.05
-9.09
-9.55
-9.41
-8.68
-7.40
-5.65
-3.58
-1.40
0.57
2.05
2.85
2.95
2.47
1.61
0.58
-0.49
-1.46
-2.20
-2.56
-2.37
-1.58
-0.30
1.20
2.56
3.44
3.70
3.34
2.47
1.26
-0.12
-1.57
-2.96
-4.20
-5.14
-5.66
-5.72
-5.41
-4.96
-4.68
-4.89
-5.74
-7.17
-8.87
-10.35
-11.13
-10.91
-9.60
-7.41
-4.69
-1.84
0.74
2.71
3.85
4.05
3.39
2.12
0.63
-0.66
-1.42
-1.56
-1.15
-0.41
0.49
1.41
2.31
3.13
3.78
4.20
4.30
4.07
3.61
3.01
2.43
1.93
1.51
1.09
0.58
-0.12
-1.03
-2.04
-3.00
-3.75
-4.17
-4.26
-4.17
-4.07
-4.27
-4.97
-6.31
-8.19
-10.25
-11.94
-12.69
-12.14
-10.30
-7.56
-4.49
-1.58
0.90
2.83
4.19
4.91
4.91
4.24
3.15
2.02
1.24
1.01
1.31
1.97
2.82
3.77
4.85
6.01
7.15
8.01
8.37
8.14
7.36
6.23
4.96
3.67
2.44
1.27
0.18
-0.80
-1.57
-2.04
-2.23
-2.21
-2.11
-2.14
-2.45
-3.13
-4.15
-5.46
-6.97
-8.63
-10.42
-12.28
-14.03
-15.38
-15.98
-15.49
-13.79
-11.01
-7.53
-3.86
-0.50
2.21
4.13
5.25
5.75
5.83
5.70
5.53
5.44
5.50
5.72
6.09
6.54
6.96
7.22
7.25
7.07
6.80
6.59
6.52
6.58
6.63
6.52
6.14
5.50
4.73
3.94
3.23
2.64
2.15
1.77
1.49
1.27
1.04
0.68
0.05
-0.94
-2.31
-3.98
-5.81
-7.56
-8.96
-9.70
-9.56
-8.38
-6.23
-3.32
-0.00
3.33
6.31
8.68
10.23
10.88
10.64
9.66
8.26
6.85
5.82
5.47
5.90
6.97
8.34
9.68
10.68
11.19
11.22
10.85
10.19
9.34
8.39
7.44
6.51
5.57
4.56
3.41
2.11
0.75
-0.50
-1.44
-1.94
-2.06
-1.98
-1.94
-2.19
-2.82
-3.73
-4.65
-5.22
-5.00
-3.74
-1.40
1.86
5.68
9.57
13.12
16.03
18.16
19.49
20.09
20.02
19.62
19.26
19.33
20.13
21.78
24.19
27.12
30.18
33.06
35.83
38.61
41.54
44.64
47.78
50.72
53.28
55.34
56.87
58.49
60.73
63.94
68.07
72.63
76.82
79.83
80.87
79.42
75.98
71.30
66.27
61.73
58.38
56.89
57.96
62.39
66.25
66.61
61.37
50.05
33.92
15.38
-3.23
-20.33
-35.24
-47.96
-58.12
-65.59
-70.43
-72.90
-73.54
-72.97
-71.84
-70.71
-69.99
-69.45
-68.84
-67.87
-66.30
-64.04
-61.16
-57.92
-54.68
-51.83
-49.37
-47.12
-44.88
-42.44
-39.75
-36.94
-34.25
-31.84
-29.74
-27.63
-25.20
-22.27
-18.94
-15.60
-12.77
-10.83
-9.87
-9.68
-9.76
-9.58
-8.76
-7.03
-4.33
-0.72
3.66
8.50
13.40
17.87
21.80
24.54
25.79
25.41
23.38
19.79
14.87
8.94
2.47
-4.00
-9.99
-15.06
-18.94
-21.62
-23.17
-23.83
-23.80
-23.33
-22.61
-21.77
-20.80
-19.61
-18.10
-16.21
-14.10
-12.02
-10.27
-9.15
-8.76
-8.94
-9.45
-9.97
-10.25
-10.16
-9.69
-8.88
-7.89
-6.89
-6.07
-5.56
-5.43
-5.62
-5.97
-6.34
-6.62
-6.83
-7.05
-7.35
-7.83
-8.58
-9.53
-10.53
-11.45
-12.21
-12.85
-13.57
-14.68
-16.49
-19.20
-22.76
-26.74
-30.48
-33.24
-34.33
-33.30
-29.96
-24.44
-17.11
-8.64
0.18
8.49
15.62
21.12
24.93
27.26
28.47
28.85
28.63
27.93
26.80
25.46
24.06
22.70
21.40
20.06
18.55
16.77
14.78
12.65
10.60
8.77
7.19
5.85
4.66
3.54
2.38
1.17
-0.15
-1.52
-2.86
-4.04
-4.85
-5.12
-4.73
-3.69
-2.14
-0.32
1.47
2.94
3.85
4.12
3.80
3.07
2.14
1.22
0.45
-0.13
-0.50
-0.68
-0.63
-0.34
0.15
0.78
1.44
2.00
2.36
2.47
2.35
2.00
1.43
0.70
-0.07
-0.75
-1.27
-1.58
-1.77
-1.94
-2.24
-2.77
-3.58
-4.67
-5.93
-7.22
-8.24
-8.66
-8.24
-6.92
-4.88
-2.53
-0.37
1.22
2.08
2.33
2.24
2.08
2.04
2.18
2.45
2.78
3.09
3.37
3.63
3.87
4.04
4.09
3.98
3.68
3.27
2.78
2.30
1.87
1.45
0.97
0.36
-0.37
-1.16
-1.89
-2.51
-3.00
-3.43
-3.88
-4.41
-5.02
-5.63
-6.15
-6.46
-6.47
-6.05
-5.12
-3.65
-1.72
0.40
2.36
3.77
4.43
4.33
3.67
2.75
1.88
1.26
0.94
0.90
1.07
1.38
1.78
2.22
2.62
2.87
2.87
2.59
2.11
1.60
1.26
1.19
1.35
1.59
1.73
1.65
1.36
0.93
0.44
-0.07
-0.59
-1.12
-1.63
-2.01
-2.20
-2.18
-2.04
-1.97
-2.14
-2.69
-3.66
-4.92
-6.26
-7.36
-7.93
-7.76
-6.88
-5.40
-3.64
-1.89
-0.37
0.84
1.77
2.50
3.10
3.56
3.91
4.12
4.23
4.33
4.46
4.69
4.99
5.32
5.61
5.84
5.97
5.99
5.87
5.55
5.04
4.33
3.49
2.64
1.90
1.31
0.83
0.43
-0.05
-0.66
-1.43
-2.28
-3.09
-3.74
-4.19
-4.49
-4.73
-5.03
-5.46
-6.05
-6.77
-7.52
-8.13
-8.42
-8.17
-7.25
-5.62
-3.45
-1.05
1.24
3.07
4.32
4.99
5.27
5.30
5.24
5.19
5.18
5.25
5.41
5.65
5.88
5.95
5.71
5.05
4.00
2.68
1.30
0.06
-0.84
-1.27
-1.23
-0.82
-0.20
0.42
0.86
1.02
0.85
0.41
-0.20
-0.89
-1.55
-2.12
-2.61
-3.07
-3.58
-4.24
-5.10
-6.15
-7.30
-8.35
-9.09
-9.32
-8.93
-7.88
-6.25
-4.27
-2.32
-0.87
-0.43
-1.43
-4.11
-8.46
-14.15
-20.59
-27.01
-32.62
-36.73
-38.81
-38.57
-35.95
-31.14
-24.51
-16.63
-8.12
0.44
8.45
15.43
21.02
25.01
27.37
28.22
27.80
26.49
24.71
22.78
20.89
19.14
17.49
15.92
14.42
12.91
11.39
9.82
8.16
6.39
4.53
2.70
1.08
-0.12
-0.72
-0.62
0.16
1.42
2.92
4.32
5.38
5.99
6.17
6.05
5.78
5.38
4.89
4.31
3.71
3.24
3.04
3.22
3.70
4.33
4.84
5.08
5.05
4.80
4.46
4.09
3.67
3.14
2.40
1.40
0.16
-1.21
-2.56
-3.75
-4.67
-5.27
-5.57
-5.62
-5.53
-5.38
-5.29
-5.28
-5.37
-5.48
-5.51
-5.36
-4.91
-4.15
-3.13
-1.98
-0.87
0.07
0.72
1.05
1.06
0.81
0.44
0.08
-0.14
-0.13
0.11
0.51
0.98
1.40
1.72
1.94
2.09
2.21
2.30
2.35
2.28
2.04
1.60
0.97
0.19
-0.65
-1.45
-2.15
-2.70
-3.13
-3.54
-3.99
-4.54
-5.20
-5.93
-6.65
-7.25
-7.60
-7.59
-7.12
-6.15
-4.66
-2.79
-0.68
1.33
2.99
4.04
4.44
4.26
3.69
2.97
2.27
1.70
1.29
1.06
1.01
1.16
1.44
1.82
2.21
2.51
2.70
2.72
2.57
2.25
1.75
1.08
0.30
-0.57
-1.46
-2.32
-3.07
-3.61
-3.86
-3.85
-3.70
-3.59
-3.73
-4.20
-4.91
-5.60
-5.94
-5.66
-4.69
-3.19
-1.41
0.34
1.81
2.92
3.59
3.84
3.71
3.26
2.61
1.94
1.44
1.29
1.54
2.13
2.90
3.70
4.37
4.82
5.02
4.94
4.60
4.02
3.22
2.29
1.27
0.25
-0.68
-1.41
-1.87
-2.05
-2.01
-1.97
-2.17
-2.79
-3.88
-5.29
-6.70
-7.78
-8.24
-7.89
-6.70
-4.77
-2.31
0.38
2.98
5.21
6.83
7.75
8.03
7.80
7.28
6.66
6.10
5.68
5.39
5.15
4.88
4.47
3.87
3.12
2.35
1.64
1.10
0.73
0.46
0.24
0.08
-0.03
-0.05
0.00
-0.00
-0.23
-0.82
-1.87
-3.28
-4.79
-6.06
-6.69
-6.40
-5.14
-3.10
-0.66
1.73
3.70
5.04
5.72
5.85
5.61
5.15
4.56
3.92
3.32
2.78
2.23
1.45
0.19
-1.78
-4.56
-8.15
-12.40
-17.06
-21.83
-26.31
-30.07
-32.61
-33.48
-32.37
-29.22
-24.22
-17.85
-10.76
-3.68
2.72
7.96
11.82
14.39
16.02
17.15
18.10
19.04
20.00
20.85
21.41
21.61
21.42
20.95
20.32
19.59
18.78
17.90
16.91
15.81
14.68
13.62
12.69
11.93
11.26
10.56
9.71
8.66
7.49
6.34
5.37
4.60
3.98
3.33
2.52
1.55
0.47
-0.58
-1.50
-2.33
-3.14
-4.02
-4.89
-5.48
-5.47
-4.66
-3.08
-1.01
1.10
2.86
4.08
4.77
5.10
5.23
5.23
5.09
4.77
4.32
3.87
3.62
3.66
3.99
4.45
4.81
4.85
4.48
3.77
2.90
2.09
1.43
0.89
0.39
-0.16
-0.82
-1.52
-2.20
-2.80
-3.38
-4.06
-4.90
-5.91
-6.91
-7.61
-7.71
-7.01
-5.52
-3.43
-1.06
1.29
3.39
5.06
6.23
6.82
6.76
6.09
4.99
3.77
2.79
2.32
2.44
3.02
3.77
4.31
4.47
4.20
3.64
2.96
2.35
1.87
1.49
1.11
0.60
-0.08
-0.88
-1.67
-2.35
-2.85
-3.22
-3.56
-3.97
-4.51
-5.15
-5.83
-6.46
-7.01
-7.40
-7.54
-7.29
-6.53
-5.17
-3.29
-1.08
1.16
3.14
4.61
5.48
5.75
5.52
4.99
4.34
3.76
3.38
3.23
3.23
3.26
3.22
3.07
2.85
2.63
2.44
2.28
2.13
2.01
1.88
1.71
1.43
0.94
0.19
-0.82
-1.98
-3.09
-3.94
-4.42
-4.56
-4.49
-4.43
-4.58
-5.02
-5.73
-6.55
-7.25
-7.61
-7.42
-6.58
-5.13
-3.21
-1.07
1.00
2.73
3.97
4.70
4.96
4.88
4.53
4.02
3.49
3.06
2.89
3.07
3.54
4.11
4.50
4.49
4.03
3.21
2.27
1.43
0.78
0.29
-0.17
-0.72
-1.38
-2.09
-2.73
-3.22
-3.56
-3.79
-4.00
-4.24
-4.50
-4.79
-5.12
-5.50
-6.00
-6.63
-7.35
-8.03
-8.46
-8.37
-7.58
-6.05
-3.93
-1.54
0.73
2.50
3.57
3.95
3.82
3.45
3.10
2.90
2.88
2.99
3.14
3.28
3.38
3.43
3.43
3.38
3.23
2.96
2.54
2.02
1.40
0.72
-0.00
-0.75
-1.50
-2.22
-2.87
-3.43
-3.85
-4.10
-4.18
-4.07
-3.84
-3.54
-3.26
-3.12
-3.25
-3.77
-4.65
-5.80
-6.93
-7.74
-7.90
-7.27
-5.91
-4.06
-2.09
-0.27
1.18
2.21
2.84
3.13
3.14
2.91
2.52
2.04
1.61
1.32
1.23
1.31
1.49
1.67
1.74
1.63
1.32
0.86
0.34
-0.14
-0.50
-0.72
-0.78
-0.72
-0.59
-0.52
-0.61
-0.92
-1.43
-2.03
-2.57
-2.90
-2.91
-2.65
-2.27
-1.97
-1.93
-2.22
-2.78
-3.47
-4.13
-4.59
-4.73
-4.49
-3.88
-3.00
-2.01
-1.07
-0.30
0.23
0.56
0.80
1.04
1.28
1.49
1.59
1.57
1.47
1.39
1.34
1.33
1.31
1.15
0.79
0.23
-0.43
-1.13
-1.87
-2.82
-4.25
-6.46
-9.65
-13.88
-18.96
-24.46
-29.78
-34.27
-37.35
-38.66
-38.04
-35.59
-31.60
-26.45
-20.57
-14.32
-8.04
-1.97
3.64
8.63
12.83
16.11
18.47
19.90
20.54
20.60
20.29
19.71
18.94
17.99
16.88
15.74
14.67
13.79
13.17
12.76
12.41
11.98
11.35
10.51
9.53
8.54
7.65
6.93
6.37
5.92
5.48
4.94
4.20
3.24
2.09
0.90
-0.15
-0.90
-1.27
-1.31
-1.17
-1.04
-1.08
-1.37
-1.84
-2.30
-2.52
-2.31
-1.62
-0.53
0.77
2.02
3.04
3.71
4.06
4.12
3.97
3.67
3.29
2.94
2.71
2.71
3.03
3.66
4.51
5.39
6.06
6.39
6.33
5.96
5.47
5.00
4.61
4.22
3.70
2.91
1.85
0.65
-0.50
-1.36
-1.80
-1.79
-1.40
-0.73
0.11
1.04
2.10
3.33
4.82
6.60
8.65
10.90
13.18
15.37
17.32
18.99
20.36
21.50
22.50
23.47
24.59
25.99
27.82
30.13
32.87
35.92
39.07
42.10
44.86
47.28
49.36
51.20
52.89
54.52
56.13
57.73
59.33
60.94
62.55
64.14
65.59
66.77
67.50
67.58
66.87
65.29
62.89
59.86
56.43
52.88
49.44
46.16
43.00
39.81
36.36
32.49
28.09
23.14
17.59
11.41
4.54
-3.01
-11.17
-19.82
-28.85
-38.15
-47.63
-57.12
-66.31
-74.72
-81.81
-87.11
-90.32
-91.35
-90.25
-87.13
-82.15
-75.53
-67.62
-58.92
-49.99
-41.40
-33.63
-27.03
-21.85
-18.24
-16.18
-15.48
-15.76
-16.53
-17.32
-17.74
-17.61
-16.90
-15.74
-14.30
-12.80
-11.37
-10.16
-9.22
-8.62
-8.43
-8.68
-9.43
-10.60
-12.12
-13.79
-15.47
-16.97
-18.23
-19.30
-20.23
-21.13
-22.04
-22.93
-23.75
-24.44
-24.96
-25.31
-25.54
-25.60
-25.49
-25.16
-24.62
-23.99
-23.42
-22.99
-22.70
-22.33
-21.55
-20.12
-17.91
-15.04
-11.83
-8.64
-5.79
-3.50
-1.91
-0.98
-0.68
-0.87
-1.39
-2.09
-2.77
-3.28
-3.57
-3.64
-3.53
-3.42
-3.46
-3.78
-4.44
-5.38
-6.45
-7.53
-8.47
-9.21
-9.73
-10.07
-10.28
-10.50
-10.86
-11.50
-12.44
-13.58
-14.64
-15.24
-15.04
-13.82
-11.60
-8.61
-5.29
-2.13
0.45
2.15
2.87
2.68
1.82
0.64
-0.46
-1.16
-1.27
-0.81
0.02
0.87
1.41
1.43
0.93
0.09
-0.84
-1.62
-2.14
-2.45
-2.73
-3.14
-3.85
-4.95
-6.46
-8.30
-10.28
-12.15
-13.63
-14.45
-14.40
-13.44
-11.66
-9.32
-6.73
-4.22
-2.05
-0.36
0.80
1.50
1.91
2.16
2.37
2.58
2.77
2.95
3.16
3.53
4.19
5.24
6.66
8.28
9.83
11.00
11.56
11.39
10.48
8.90
6.76
4.24
1.51
-1.21
-3.75
-5.94
-7.75
-9.25
-10.61
-11.99
-13.45
-14.86
-15.93
-16.31
-15.72
-14.09
-11.62
-8.66
-5.66
-2.95
-0.74
0.86
1.87
2.35
2.46
2.38
2.33
2.46
2.78
3.21
3.58
3.75
3.67
3.34
2.77
2.02
1.12
0.15
-0.78
-1.61
-2.32
-2.95
-3.59
-4.25
-4.96
-5.69
-6.47
-7.33
-8.28
-9.23
-9.94
-10.14
-9.55
-8.10
-5.92
-3.31
-0.67
1.71
3.64
5.08
6.09
6.75
7.11
7.15
6.87
6.25
5.39
4.44
3.61
3.09
2.94
3.10
3.38
3.54
3.45
3.05
2.42
1.69
0.94
0.18
-0.64
-1.58
-2.61
-3.64
-4.56
-5.27
-5.78
-6.16
-6.48
-6.77
-6.92
-6.77
-6.24
-5.33
-4.19
-3.06
-2.09
-1.35
-0.80
-0.32
0.18
0.72
1.23
1.61
1.79
1.75
1.55
1.26
0.97
0.78
0.72
0.80
0.95
1.06
1.07
0.96
0.78
0.63
0.59
0.62
0.64
0.46
-0.10
-1.16
-2.74
-4.72
-6.85
-8.84
-10.39
-11.21
-11.12
-10.07
-8.15
-5.55
-2.59
0.40
3.08
5.19
6.63
7.40
7.60
7.37
6.82
6.03
5.09
4.10
3.22
2.65
2.48
2.69
3.12
3.49
3.56
3.24
2.53
1.55
0.45
-0.68
-1.81
-2.96
-4.14
-5.37
-6.64
-7.88
-9.01
-9.88
-10.31
-10.15
-9.30
-7.80
-5.75
-3.32
-0.64
2.16
4.94
7.51
9.59
10.92
11.32
10.83
9.69
8.27
6.94
5.96
5.35
5.04
4.91
4.87
4.90
5.00
5.10
5.12
4.90
4.34
3.44
2.30
1.05
-0.24
-1.58
-3.05
-4.65
-6.25
-7.61
-8.48
-8.66
-8.17
-7.11
-5.65
-3.89
-1.87
0.34
2.65
4.84
6.70
8.05
8.85
9.13
8.98
8.46
7.66
6.70
5.75
4.98
4.50
4.32
4.34
4.42
4.47
4.48
4.48
4.54
4.68
4.87
5.02
5.02
4.78
4.26
3.48
2.53
1.54
0.65
-0.03
-0.39
-0.29
0.40
1.79
3.87
6.47
9.26
11.81
13.76
14.88
15.15
14.69
13.68
12.31
10.67
8.87
6.99
5.19
3.62
2.42
1.68
1.33
1.26
1.26
1.15
0.76
0.02
-1.09
-2.56
-4.37
-6.49
-8.87
-11.43
-14.04
-16.59
-18.91
-20.78
-21.97
-22.16
-21.14
-18.76
-15.14
-10.64
-5.80
-1.20
2.65
5.46
7.18
7.89
7.86
7.36
6.68
6.09
5.75
5.74
6.00
6.40
6.75
6.90
6.75
6.27
5.49
4.47
3.30
2.00
0.63
-0.80
-2.25
-3.68
-5.01
-6.20
-7.24
-8.19
-9.14
-10.09
-10.87
-11.13
-10.45
-8.49
-5.22
-1.02
3.44
7.42
10.41
12.22
13.02
13.14
12.89
12.47
11.93
11.26
10.53
9.85
9.33
9.01
8.83
8.65
8.30
7.68
6.75
5.53
4.08
2.48
0.85
-0.68
-2.01
-3.13
-4.14
-5.18
-6.45
-8.03
-9.87
-11.75
-13.33
-14.25
-14.18
-12.91
-10.48
-7.15
-3.40
0.20
3.14
5.11
6.06
6.13
5.56
4.56
3.32
1.97
0.69
-0.31
-0.86
-0.91
-0.56
-0.13
0.03
-0.39
-1.54
-3.33
-5.57
-7.97
-10.32
-12.49
-14.50
-16.46
-18.52
-20.87
-23.62
-26.80
-30.32
-33.99
-37.47
-40.39
-42.45
-43.45
-43.43
-42.62
-41.36
-40.02
-38.81
-37.74
-36.69
-35.42
-33.66
-31.16
-27.59
-22.62
-15.96
-7.52
2.44
13.37
24.47
34.99
44.35
52.28
58.74
63.75
67.37
69.68
70.92
71.48
71.84
72.26
72.58
72.21
70.31
66.20
59.76
51.53
42.60
34.22
27.48
23.01
21.02
21.33
23.51
27.00
31.19
35.46
39.24
42.07
43.56
43.41
41.42
37.55
31.99
25.17
17.66
9.99
2.42
-5.08
-12.71
-20.62
-28.64
-36.31
-43.06
-48.44
-52.36
-55.08
-57.04
-58.52
-59.50
-59.56
-58.18
-54.98
-49.91
-43.36
-35.96
-28.38
-21.07
-14.27
-7.97
-2.09
3.40
8.46
12.98
16.85
20.02
22.42
23.92
24.37
23.62
21.68
18.83
15.52
12.33
9.63
7.56
5.96
4.55
3.17
1.83
0.67
-0.18
-0.65
-0.86
-0.95
-1.04
-1.16
-1.25
-1.26
-1.17
-1.07
-1.05
-1.21
-1.57
-2.10
-2.67
-3.13
-3.34
-3.19
-2.68
-1.89
-0.94
0.01
0.83
1.44
1.84
2.05
2.19
2.33
2.50
2.63
2.64
2.40
1.91
1.28
0.68
0.23
0.02
-0.02
-0.01
-0.07
-0.30
-0.72
-1.31
-1.97
-2.55
-2.87
-2.75
-2.13
-1.08
0.20
1.50
2.64
3.62
4.43
5.09
5.51
5.50
4.88
3.53
1.46
-1.26
-4.46
-7.85
-11.01
-13.43
-14.61
-14.29
-12.52
-9.73
-6.51
-3.46
-0.99
0.71
1.59
1.64
0.88
-0.65
-2.81
-5.32
-7.86
-10.09
-11.78
-12.77
-13.05
-12.70
-11.87
-10.80
-9.74
-8.88
-8.34
-8.15
-8.23
-8.52
-8.95
-9.50
-10.16
-10.90
-11.72
-12.62
-13.63
-14.74
-15.91
-17.00
-17.85
-18.34
-18.49
-18.48
-18.64
-19.26
-20.50
-22.30
-24.33
-26.06
-26.88
-26.29
-23.98
-19.94
-14.55
-8.46
-2.50
2.57
6.23
8.29
8.84
8.22
6.86
5.21
3.68
2.57
2.09
2.27
2.99
4.03
5.14
6.09
6.79
7.19
7.32
7.16
6.67
5.76
4.39
2.54
0.26
-2.29
-4.89
-7.27
-9.18
-10.49
-11.22
-11.61
-12.07
-13.01
-14.66
-16.92
-19.24
-20.83
-20.82
-18.64
-14.23
-8.08
-1.08
5.71
11.40
15.43
17.65
18.24
17.58
16.14
14.39
12.76
11.56
10.96
10.99
11.47
12.12
12.68
12.96
12.91
12.62
12.17
11.55
10.60
9.13
7.03
4.38
1.47
-1.28
-3.54
-5.19
-6.37
-7.45
-8.87
-10.97
-13.79
-17.06
-20.17
-22.30
-22.67
-20.73
-16.43
-10.22
-2.98
4.24
10.48
15.15
18.01
19.24
19.19
18.31
16.99
15.55
14.25
13.26
12.70
12.66
13.09
13.89
14.79
15.47
15.64
15.10
13.86
12.10
10.06
8.00
6.02
4.14
2.28
0.37
-1.59
-3.55
-5.54
-7.63
-9.94
-12.52
-15.16
-17.34
-18.34
-17.47
-14.32
-9.06
-2.33
4.89
11.60
17.00
20.67
22.51
22.71
21.63
19.77
17.67
15.84
14.60
14.07
14.12
14.48
14.89
15.22
15.43
15.50
15.43
15.06
14.19
12.70
10.62
8.12
5.52
3.08
0.94
-0.91
-2.65
-4.47
-6.56
-9.03
-11.79
-14.54
-16.79
-17.87
-17.18
-14.42
-9.71
-3.64
2.90
8.99
13.92
17.36
19.30
19.93
19.53
18.40
16.85
15.23
13.82
12.84
12.41
12.49
12.96
13.66
14.37
14.90
15.06
14.70
13.72
12.15
10.13
7.86
5.56
3.36
1.28
-0.73
-2.81
-5.07
-7.59
-10.31
-13.00
-15.27
-16.60
-16.46
-14.51
-10.74
-5.54
0.36
6.12
10.96
14.37
16.18
16.46
15.55
13.82
11.68
9.52
7.61
6.16
5.25
4.89
5.03
5.54
6.21
6.76
6.91
6.44
5.29
3.58
1.59
-0.39
-2.17
-3.72
-5.17
-6.72
-8.55
-10.75
-13.32
-16.09
-18.72
-20.77
-21.70
-21.11
-18.86
-15.24
-10.91
-6.76
-3.62
-2.02
-2.09
-3.66
-6.38
-9.95
-14.10
-18.56
-23.02
-27.14
-30.60
-33.25
-35.15
-36.60
-38.01
-39.81
-42.28
-45.51
-49.31
-53.29
-56.91
-59.60
-60.91
-60.64
-58.84
-55.68
-51.36
-45.88
-38.95
-30.03
-18.36
-3.14
16.12
39.35
65.62
93.05
119.05
140.77
155.77
162.61
161.06
152.07
137.36
118.97
98.84
78.57
59.34
41.93
26.84
14.24
4.07
-3.96
-10.28
-15.36
-19.56
-23.11
-26.04
-28.26
-29.69
-30.31
-30.26
-29.79
-29.16
-28.59
-28.27
-28.37
-29.09
-30.54
-32.63
-34.97
-36.92
-37.69
-36.64
-33.52
-28.61
-22.60
-16.34
-10.60
-5.84
-2.21
0.38
2.12
3.24
3.91
4.37
4.82
5.50
6.58
8.10
9.91
11.72
13.15
13.90
13.79
12.83
11.18
9.04
6.62
4.08
1.49
-1.11
-3.66
-6.10
-8.32
-10.24
-11.87
-13.31
-14.73
-16.26
-17.86
-19.25
-19.90
-19.20
-16.71
-12.37
-6.57
-0.07
6.28
11.77
16.06
19.08
21.03
22.14
22.60
22.59
22.31
21.96
21.75
21.78
21.96
22.03
21.69
20.70
18.98
16.69
14.01
11.13
8.07
4.79
1.18
-2.70
-6.64
-10.26
-13.19
-15.20
-16.29
-16.64
-16.55
-16.31
-16.18
-16.36
-16.88
-17.67
-18.41
-18.61
-17.77
-15.59
-12.11
-7.73
-3.05
1.34
5.01
7.73
9.44
10.16
9.96
9.07
7.83
6.67
5.97
5.90
6.35
7.01
7.56
7.78
7.70
7.48
7.26
7.07
6.72
6.00
4.73
2.96
0.90
-1.17
-3.01
-4.53
-5.85
-7.20
-8.88
-11.16
-14.19
-18.07
-22.78
-28.10
-33.55
-38.45
-41.97
-43.37
-42.21
-38.41
-32.35
-24.66
-16.11
-7.39
0.94
8.46
14.86
19.91
23.53
25.75
26.76
26.88
26.42
25.69
24.86
23.99
23.02
21.92
20.70
19.41
18.15
16.93
15.72
14.47
13.14
11.72
10.27
8.84
7.45
6.08
4.64
3.05
1.26
-0.70
-2.67
-4.36
-5.42
-5.52
-4.51
-2.49
0.20
3.06
5.58
7.40
8.39
8.63
8.30
7.61
6.73
5.81
4.94
4.19
3.62
3.25
3.07
3.08
3.22
3.45
3.65
3.66
3.35
2.66
1.64
0.42
-0.86
-2.05
-3.10
-4.00
-4.78
-5.51
-6.26
-7.12
-8.12
-9.17
-10.03
-10.37
-9.86
-8.33
-5.89
-2.84
0.36
3.25
5.47
6.82
7.27
6.94
6.08
4.98
3.94
3.13
2.61
2.37
2.34
2.43
2.58
2.69
2.64
2.34
1.74
0.92
0.02
-0.82
-1.55
-2.21
-2.92
-3.79
-4.85
-6.07
-7.35
-8.55
-9.52
-10.05
-9.96
-9.09
-7.43
-5.08
-2.36
0.36
2.68
4.34
5.26
5.49
5.20
4.55
3.68
2.71
1.80
1.12
0.82
0.92
1.32
1.77
1.99
1.84
1.34
0.68
0.05
-0.43
-0.82
-1.23
-1.83
-2.65
-3.68
-4.87
-6.20
-7.59
-8.94
-10.02
-10.48
-10.10
-8.78
-6.71
-4.33
-2.22
-0.95
-0.90
-2.24
-4.87
-8.61
-13.21
-18.37
-23.66
-28.55
-32.43
-34.74
-35.14
-33.55
-30.21
-25.48
-19.78
-13.45
-6.80
-0.16
6.11
11.60
15.93
18.88
20.37
20.52
19.52
17.69
15.46
13.27
11.54
10.60
10.60
11.41
12.74
14.12
15.16
15.61
15.46
14.84
13.92
12.90
11.84
10.78
9.76
8.86
8.15
7.69
7.45
7.29
7.03
6.50
5.64
4.53
3.36
2.34
1.60
1.13
0.78
0.33
-0.46
-1.65
-3.18
-4.83
-6.27
-7.20
-7.42
-6.86
-5.65
-4.02
-2.22
-0.48
1.03
2.25
3.14
3.70
3.94
3.89
3.64
3.33
3.08
2.96
2.96
3.03
3.09
3.09
3.03
2.94
2.85
2.74
2.55
2.20
1.64
0.89
0.01
-0.83
-1.49
-1.92
-2.19
-2.50
-3.09
-4.07
-5.37
-6.74
-7.80
-8.17
-7.60
-6.07
-3.78
-1.11
1.48
3.58
4.93
5.49
5.38
4.86
4.22
3.65
3.27
3.12
3.16
3.37
3.65
3.90
4.02
3.94
3.71
3.42
3.18
3.06
3.00
2.86
2.48
1.75
0.72
-0.47
-1.59
-2.46
-2.96
-3.12
-3.07
-3.03
-3.19
-3.67
-4.37
-5.10
-5.55
-5.50
-4.84
-3.62
-2.02
-0.30
1.32
2.63
3.49
3.81
3.64
3.10
2.40
1.79
1.43
1.37
1.55
1.82
2.05
2.17
2.20
2.20
2.22
2.27
2.29
2.20
1.96
1.55
1.06
0.59
0.26
0.07
-0.01
-0.08
-0.25
-0.58
-1.08
-1.73
-2.50
-3.35
-4.23
-5.07
-5.74
-6.06
-5.89
-5.14
-3.86
-2.22
-0.49
1.07
2.28
3.07
3.45
3.50
3.27
2.82
2.22
1.59
1.06
0.75
0.69
0.83
1.06
1.22
1.23
1.04
0.70
0.28
-0.16
-0.53
-0.79
-0.95
-1.06
-1.17
-1.30
-1.41
-1.42
-1.29
-1.02
-0.72
-0.55
-0.64
-1.10
-1.88
-2.87
-3.84
-4.54
-4.71
-4.21
-3.05
-1.44
0.26
1.66
2.50
2.72
2.47
1.96
1.40
0.90
0.48
0.14
-0.11
-0.19
-0.07
0.24
0.64
1.01
1.25
1.35
1.37
1.39
1.39
1.24
0.83
0.07
-0.92
-1.91
-2.65
-2.97
-2.92
-2.68
-2.55
-2.70
-3.18
-3.84
-4.44
-4.79
-4.74
-4.26
-3.40
-2.22
-0.82
0.66
2.04
3.13
3.77
3.90
3.59
3.00
2.32
1.66
1.09
0.57
0.12
-0.23
-0.40
-0.33
-0.05
0.31
0.56
0.55
0.23
-0.30
-0.90
-1.38
-1.68
-1.82
-1.89
-2.00
-2.24
-2.68
-3.31
-4.09
-4.91
-5.57
-5.85
-5.59
-4.76
-3.48
-2.00
-0.59
0.51
1.22
1.53
1.54
1.34
1.01
0.61
0.18
-0.22
-0.52
-0.71
-0.78
-0.77
-0.72
-0.70
-0.70
-0.75
-0.84
-0.98
-1.17
-1.40
-1.66
-1.90
-2.10
-2.31
-2.64
-3.21
-4.07
-5.15
-6.17
-6.81
-6.79
-6.01
-4.59
-2.85
-1.12
0.32
1.32
1.89
2.13
2.10
1.84
1.40
0.82
0.23
-0.25
-0.55
-0.66
-0.68
-0.68
-0.69
-0.70
-0.66
-0.56
-0.49
-0.56
-0.84
-1.34
-1.95
-2.57
-3.12
-3.63
-4.13
-4.61
-4.95
-4.99
-4.57
-3.65
-2.35
-0.91
0.37
1.28
1.72
1.75
1.49
1.09
0.68
0.32
0.04
-0.17
-0.29
-0.33
-0.28
-0.18
-0.07
-0.03
-0.09
-0.27
-0.55
-0.88
-1.23
-1.62
-2.08
-2.64
-3.31
-4.06
-4.82
-5.50
-5.98
-6.15
-5.91
-5.20
-4.04
-2.53
-0.88
0.67
1.87
2.56
2.68
2.33
1.70
1.02
0.50
0.27
0.33
0.61
0.97
1.28
1.45
1.44
1.27
0.96
0.56
0.11
-0.39
-0.94
-1.53
-2.17
-2.90
-3.72
-4.61
-5.47
-6.10
-6.25
-5.69
-4.35
-2.34
0.00
2.22
3.93
4.85
4.97
4.44
3.55
2.62
1.92
1.55
1.51
1.66
1.83
1.84
1.64
1.23
0.72
0.18
-0.32
-0.77
-1.21
-1.68
-2.23
-2.89
-3.62
-4.36
-5.01
-5.52
-5.88
-6.07
-6.09
-5.93
-5.65
-5.43
-5.59
-6.45
-8.29
-11.17
-14.87
-18.91
-22.72
-25.80
-27.78
-28.45
-27.68
-25.38
-21.59
-16.45
-10.29
-3.58
3.11
9.21
14.27
18.06
20.51
21.77
22.06
21.62
20.66
19.37
17.89
16.27
14.60
12.93
11.29
9.71
8.17
6.69
5.39
4.45
4.07
4.39
5.40
6.91
8.55
9.99
10.96
11.38
11.38
11.11
10.74
10.29
9.70
8.92
8.00
7.08
6.35
5.97
5.92
6.06
6.21
6.23
6.06
5.74
5.31
4.80
4.23
3.61
2.97
2.39
1.95
1.63
1.41
1.18
0.88
0.49
0.06
-0.35
-0.68
-0.96
-1.19
-1.41
-1.65
-1.92
-2.30
-2.88
-3.75
-4.89
-6.19
-7.35
-8.03
-7.94
-7.00
-5.32
-3.20
-0.98
1.04
2.66
3.78
4.35
4.41
4.10
3.58
3.05
2.65
2.43
2.36
2.37
2.45
2.66
3.08
3.70
4.45
5.13
5.57
5.69
5.51
5.11
4.57
3.92
3.17
2.35
1.55
0.89
0.45
0.21
0.05
-0.13
-0.38
-0.67
-0.90
-1.00
-1.01
-1.06
-1.29
-1.78
-2.49
-3.32
-4.16
-4.93
-5.54
-5.89
-5.89
-5.44
-4.53
-3.27
-1.87
-0.59
0.41
1.09
1.51
1.79
2.00
2.18
2.31
2.40
2.46
2.50
2.54
2.59
2.62
2.67
2.74
2.88
3.12
3.42
3.65
3.69
3.41
2.82
2.00
1.12
0.36
-0.14
-0.36
-0.34
-0.20
-0.09
-0.13
-0.34
-0.69
-1.05
-1.32
-1.42
-1.38
-1.33
-1.43
-1.79
-2.44
-3.30
-4.20
-4.99
-5.51
-5.70
-5.49
-4.89
-3.93
-2.71
-1.35
0.00
1.19
2.10
2.64
2.82
2.68
2.30
1.78
1.28
0.90
0.73
0.76
0.95
1.19
1.42
1.63
1.79
1.94
2.07
2.17
2.22
2.20
2.13
2.01
1.85
1.63
1.32
0.91
0.45
-0.05
-0.52
-0.94
-1.28
-1.55
-1.75
-1.88
-1.99
-2.07
-2.13
-2.21
-2.36
-2.65
-3.13
-3.80
-4.59
-5.33
-5.80
-5.82
-5.31
-4.31
-2.97
-1.47
0.01
1.33
2.36
3.02
3.29
3.16
2.74
2.17
1.59
1.13
0.83
0.69
0.69
0.77
0.93
1.16
1.41
1.67
1.82
1.83
1.62
1.26
0.84
0.47
0.26
0.20
0.23
0.24
0.13
-0.16
-0.59
-1.09
-1.56
-1.93
-2.18
-2.32
-2.43
-2.58
-2.80
-3.10
-3.40
-3.64
-3.77
-3.77
-3.63
-3.34
-2.87
-2.20
-1.35
-0.36
0.64
1.49
2.04
2.20
1.97
1.41
0.70
-0.00
-0.52
-0.75
-0.67
-0.32
0.20
0.77
1.34
1.83
2.22
2.48
2.60
2.55
2.36
2.06
1.72
1.41
1.17
0.99
0.83
0.66
0.43
0.17
-0.08
-0.28
-0.41
-0.52
-0.70
-1.00
-1.46
-2.06
-2.71
-3.35
-3.93
-4.43
-4.83
-5.06
-5.00
-4.54
-3.61
-2.26
-0.69
0.79
1.88
2.39
2.32
1.87
1.30
0.85
0.63
0.60
0.63
0.61
0.56
0.55
0.68
0.94
1.26
1.45
1.44
1.18
0.70
0.08
-0.67
-1.61
-2.85
-4.51
-6.69
-9.37
-12.56
-16.23
-20.28
-24.52
-28.63
-32.20
-34.78
-35.98
-35.53
-33.36
-29.53
-24.27
-17.93
-10.93
-3.75
3.08
9.14
14.09
17.77
20.17
21.42
21.68
21.20
20.28
19.20
18.16
17.26
16.47
15.70
14.86
13.89
12.87
11.91
11.10
10.42
9.80
9.08
8.21
7.21
6.21
5.40
4.89
4.69
4.69
4.68
4.46
3.93
3.13
2.25
1.50
1.01
0.76
0.59
0.34
-0.13
-0.82
-1.63
-2.41
-3.01
-3.33
-3.30
-2.91
-2.21
-1.27
-0.22
0.78
1.56
2.04
2.16
1.98
1.59
1.09
0.61
0.23
0.03
0.01
0.18
0.48
0.83
1.15
1.39
1.54
1.60
1.59
1.48
1.20
0.70
0.02
-0.74
-1.44
-1.97
-2.30
-2.48
-2.58
-2.68
-2.82
-3.06
-3.44
-3.99
-4.66
-5.27
-5.60
-5.43
-4.71
-3.57
-2.26
-1.01
0.04
0.87
1.51
1.97
2.20
2.17
1.86
1.34
0.79
0.38
0.28
0.50
0.97
1.47
1.79
1.81
1.51
1.02
0.54
0.20
0.07
0.12
0.23
0.28
0.20
-0.03
-0.38
-0.77
-1.16
-1.54
-1.93
-2.38
-2.94
-3.59
-4.20
-4.60
-4.60
-4.09
-3.13
-1.88
-0.60
0.51
1.34
1.88
2.21
2.39
2.48
2.46
2.30
2.01
1.63
1.29
1.11
1.12
1.28
1.45
1.50
1.33
0.97
0.54
0.15
-0.10
-0.21
-0.24
-0.29
-0.42
-0.68
-1.07
-1.57
-2.11
-2.62
-3.00
-3.21
-3.25
-3.17
-3.00
-2.75
-2.34
-1.70
-0.80
0.27
1.31
2.08
2.45
2.41
2.09
1.68
1.29
0.96
0.63
0.26
-0.15
-0.54
-0.80
-0.88
-0.77
-0.50
-0.15
0.20
0.45
0.54
0.40
0.08
-0.35
-0.77
-1.09
-1.33
-1.59
-1.99
-2.58
-3.34
-4.13
-4.78
-5.18
-5.23
-4.92
-4.30
-3.43
-2.38
-1.26
-0.17
0.82
1.61
2.16
2.41
2.35
2.04
1.57
1.08
0.68
0.41
0.24
0.12
0.03
-0.02
0.01
0.15
0.32
0.42
0.37
0.13
-0.22
-0.58
-0.81
-0.88
-0.87
-0.93
-1.23
-1.82
-2.64
-3.48
-4.06
-4.19
-3.82
-3.08
-2.17
-1.29
-0.51
0.20
0.92
1.66
2.33
2.75
2.79
2.46
1.90
1.38
1.13
1.21
1.52
1.84
1.99
1.92
1.68
1.41
1.20
1.02
0.79
0.44
-0.06
-0.64
-1.21
-1.72
-2.20
-2.71
-3.31
-3.94
-4.39
-4.44
-3.92
-2.81
-1.32
0.29
1.69
2.68
3.17
3.20
2.87
2.37
1.85
1.49
1.39
1.58
2.01
2.54
3.07
3.48
3.71
3.72
3.49
3.09
2.59
2.09
1.67
1.38
1.17
0.97
0.65
0.14
-0.60
-1.56
-2.69
-3.91
-5.03
-5.88
-6.22
-5.93
-4.98
-3.52
-1.78
-0.03
1.54
2.79
3.70
4.27
4.56
4.62
4.51
4.32
4.15
4.05
4.06
4.16
4.31
4.48
4.62
4.67
4.59
4.29
3.79
3.11
2.33
1.57
0.88
0.29
-0.23
-0.74
-1.29
-1.89
-2.55
-3.22
-3.87
-4.41
-4.72
-4.69
-4.24
-3.36
-2.14
-0.77
0.61
1.83
2.84
3.57
4.03
4.24
4.21
4.01
3.74
3.48
3.31
3.25
3.24
3.23
3.18
3.08
2.96
2.87
2.85
2.87
2.89
2.86
2.72
2.42
1.93
1.25
0.40
-0.51
-1.36
-2.01
-2.43
-2.67
-2.90
-3.30
-3.92
-4.68
-5.30
-5.49
-5.06
-4.02
-2.56
-0.97
0.52
1.76
2.70
3.33
3.64
3.64
3.42
3.09
2.85
2.82
3.04
3.44
3.89
4.25
4.45
4.48
4.32
4.02
3.60
3.09
2.55
2.03
1.55
1.12
0.72
0.30
-0.14
-0.63
-1.13
-1.62
-2.06
-2.48
-2.93
-3.49
-4.21
-5.09
-5.98
-6.67
-6.92
-6.55
-5.54
-4.01
-2.20
-0.40
1.19
2.41
3.22
3.63
3.69
3.47
3.13
2.80
2.63
2.68
2.87
3.06
3.05
2.74
2.13
1.40
0.72
0.25
0.05
0.07
0.20
0.33
0.34
0.15
-0.29
-0.93
-1.66
-2.31
-2.72
-2.85
-2.76
-2.62
-2.58
-2.76
-3.15
-3.70
-4.31
-4.91
-5.40
-5.64
-5.49
-4.85
-3.75
-2.31
-0.82
0.48
1.39
1.88
2.05
2.06
2.03
2.02
2.02
2.03
2.03
2.05
2.10
2.14
2.15
2.08
1.89
1.61
1.24
0.83
0.37
-0.13
-0.65
-1.19
-1.76
-2.47
-3.56
-5.29
-7.84
-11.31
-15.57
-20.33
-25.24
-29.92
-34.00
-37.09
-38.76
-38.57
-36.23
-31.70
-25.29
-17.63
-9.48
-1.58
5.52
11.55
16.40
20.06
22.56
23.96
24.31
23.82
22.75
21.37
19.94
18.63
17.53
16.61
15.83
15.06
14.20
13.19
12.03
10.80
9.64
8.63
7.77
6.95
6.03
4.97
3.83
2.71
1.72
0.83
-0.03
-0.96
-1.91
-2.72
-3.12
-2.95
-2.21
-1.11
0.06
1.05
1.73
2.11
2.29
2.34
2.32
2.24
2.11
1.96
1.84
1.79
1.82
1.84
1.75
1.49
1.04
0.46
-0.09
-0.48
-0.59
-0.47
-0.23
-0.03
-0.01
-0.19
-0.56
-1.05
-1.60
-2.18
-2.79
-3.46
-4.20
-4.96
-5.59
-5.93
-5.76
-4.99
-3.65
-1.95
-0.22
1.21
2.15
2.56
2.56
2.31
1.99
1.64
1.25
0.83
0.41
0.08
-0.05
0.06
0.37
0.76
1.07
1.18
1.07
0.76
0.34
-0.10
-0.52
-0.92
-1.34
-1.81
-2.36
-2.96
-3.59
-4.20
-4.78
-5.27
-5.64
-5.79
-5.63
-5.08
-4.13
-2.87
-1.49
-0.16
0.95
1.77
2.29
2.55
2.58
2.43
2.17
1.87
1.62
1.49
1.50
1.61
1.74
1.79
1.67
1.38
0.94
0.47
0.08
-0.16
-0.26
-0.33
-0.53
-1.00
-1.79
-2.85
-4.04
-5.18
-6.11
-6.71
-6.90
-6.64
-5.92
-4.82
-3.53
-2.25
-1.16
-0.34
0.23
0.65
1.03
1.38
1.68
1.88
2.00
2.11
2.33
2.71
3.16
3.54
3.69
3.54
3.15
2.65
2.19
1.78
1.37
0.87
0.23
-0.52
-1.28
-1.98
-2.65
-3.36
-4.19
-5.15
-6.09
-6.76
-6.91
-6.33
-4.98
-3.02
-0.76
1.42
3.16
4.28
4.75
4.68
4.26
3.70
3.14
2.66
2.33
2.20
2.26
2.47
2.75
3.01
3.15
3.13
2.94
2.61
2.17
1.63
1.01
0.33
-0.38
-1.07
-1.68
-2.18
-2.57
-2.91
-3.25
-3.71
-4.27
-4.82
-5.14
-4.93
-4.03
-2.43
-0.38
1.75
3.52
4.69
5.18
5.14
4.81
4.40
4.05
3.79
3.61
3.45
3.28
3.10
2.89
2.66
2.42
2.17
1.94
1.74
1.56
1.36
1.08
0.64
0.02
-0.77
-1.59
-2.33
-2.85
-3.15
-3.28
-3.39
-3.64
-4.11
-4.75
-5.36
-5.68
-5.40
-4.37
-2.61
-0.38
1.92
3.89
5.25
5.94
6.04
5.76
5.27
4.72
4.19
3.72
3.37
3.14
3.00
2.89
2.75
2.52
2.21
1.83
1.40
0.90
0.35
-0.25
-0.81
-1.27
-1.56
-1.68
-1.70
-1.76
-1.96
-2.34
-2.90
-3.61
-4.39
-5.14
-5.68
-5.75
-5.13
-3.71
-1.62
0.78
3.01
4.65
5.52
5.70
5.45
5.08
4.73
4.41
4.02
3.45
2.71
1.94
1.32
0.98
0.94
1.09
1.25
1.23
0.97
0.48
-0.14
-0.76
-1.32
-1.79
-2.20
-2.60
-3.03
-3.54
-4.13
-4.80
-5.45
-5.98
-6.25
-6.15
-5.60
-4.60
-3.19
-1.49
0.34
2.09
3.54
4.51
4.93
4.84
4.37
3.69
2.95
2.27
1.70
1.29
1.08
1.10
1.35
1.76
2.19
2.53
2.65
2.53
2.20
1.73
1.17
0.55
-0.09
-0.76
-1.42
-2.07
-2.74
-3.53
-4.50
-5.65
-6.82
-7.70
-7.96
-7.38
-5.96
-3.94
-1.69
0.45
2.21
3.47
4.22
4.49
4.35
3.90
3.26
2.61
2.07
1.72
1.55
1.49
1.51
1.56
1.66
1.78
1.87
1.86
1.68
1.27
0.65
-0.11
-0.87
-1.49
-1.90
-2.09
-2.22
-2.48
-3.08
-4.08
-5.39
-6.71
-7.67
-7.98
-7.46
-6.15
-4.24
-1.95
0.44
2.71
4.63
6.00
6.68
6.60
5.82
4.55
3.09
1.77
0.81
0.34
0.34
0.70
1.27
1.86
2.32
2.57
2.59
2.41
2.11
1.73
1.27
0.72
0.03
-0.79
-1.71
-2.66
-3.59
-4.49
-5.41
-6.35
-7.18
-7.68
-7.56
-6.63
-4.92
-2.69
-0.36
1.66
3.12
3.99
4.39
4.46
4.30
3.94
3.40
2.73
2.07
1.56
1.30
1.24
1.30
1.34
1.31
1.22
1.11
0.96
0.72
0.30
-0.33
-1.11
-1.90
-2.54
-2.95
-3.20
-3.46
-3.87
-4.52
-5.29
-5.98
-6.34
-6.14
-5.36
-4.10
-2.55
-0.96
0.45
1.56
2.34
2.82
3.07
3.11
2.94
2.55
1.96
1.27
0.63
0.21
0.12
0.37
0.85
1.38
1.76
1.80
1.45
0.71
-0.29
-1.37
-2.32
-3.01
-3.37
-3.42
-3.32
-3.25
-3.37
-3.76
-4.34
-4.89
-5.14
-4.86
-4.00
-2.67
-1.16
0.26
1.38
2.17
2.71
3.09
3.34
3.34
2.96
2.16
1.05
-0.09
-0.95
-1.31
-1.14
-0.61
-0.03
0.34
0.39
0.18
-0.14
-0.42
-0.61
-0.71
-0.78
-0.85
-0.94
-1.11
-1.43
-1.98
-2.77
-3.68
-4.42
-4.66
-4.16
-2.84
-0.89
1.35
3.50
5.24
6.41
6.96
6.95
6.50
5.74
4.84
3.96
3.27
2.90
2.89
3.20
3.67
4.06
4.17
3.84
3.06
1.98
0.82
-0.15
-0.78
-1.04
-1.07
-1.07
-1.28
-1.83
-2.70
-3.76
-4.77
-5.45
-5.58
-5.00
-3.71
-1.85
0.36
2.63
4.74
6.51
7.87
8.83
9.44
9.80
10.02
10.24
10.57
11.07
11.74
12.53
13.34
14.07
14.62
14.95
15.04
14.98
14.91
15.00
15.38
16.07
16.89
17.57
17.80
17.37
16.32
14.90
13.54
12.71
12.72
13.69
15.49
17.79
20.20
22.39
24.15
25.37
26.05
26.23
26.02
25.52
24.86
24.15
23.48
22.89
22.36
21.82
21.22
20.49
19.59
18.50
17.15
15.48
13.39
10.86
7.93
4.70
1.33
-1.98
-5.05
-7.76
-10.06
-11.98
-13.65
-15.18
-16.64
-17.96
-18.95
-19.41
-19.22
-18.44
-17.31
-16.13
-15.11
-14.32
-13.68
-13.08
-12.51
-12.06
-11.84
-11.92
-12.23
-12.58
-12.83
-12.91
-12.92
-13.02
-13.37
-13.99
-14.85
-15.83
-16.84
-17.84
-18.80
-19.66
-20.38
-20.88
-21.18
-21.32
-21.40
-21.52
-21.74
-22.10
-22.62
-23.32
-24.17
-25.06
-25.79
-26.03
-25.52
-24.11
-21.88
-19.11
-16.19
-13.48
-11.20
-9.45
-8.21
-7.43
-7.11
-7.23
-7.75
-8.54
-9.38
-10.02
-10.27
-10.09
-9.59
-8.96
-8.39
-7.96
-7.62
-7.24
-6.75
-6.15
-5.55
-5.06
-4.71
-4.45
-4.17
-3.78
-3.27
-2.70
-2.21
-1.90
-1.82
-2.00
-2.38
-2.92
-3.56
-4.20
-4.71
-4.89
-4.59
-3.73
-2.35
-0.64
1.14
2.68
3.75
4.23
4.16
3.68
2.97
2.15
1.31
0.41
-0.58
-1.72
-3.00
-4.43
-5.99
-7.77
-9.80
-12.11
-14.63
-17.21
-19.67
-21.85
-23.68
-25.13
-26.19
-26.86
-27.08
-26.80
-25.99
-24.69
-22.98
-21.03
-19.01
-17.09
-15.38
-13.88
-12.51
-11.09
-9.45
-7.51
-5.32
-2.99
-0.72
1.33
3.06
4.41
5.38
5.98
6.29
6.42
6.49
6.62
6.90
7.35
7.94
8.60
9.24
9.81
10.26
10.58
10.77
10.85
10.85
10.73
10.48
10.06
9.49
8.84
8.20
7.66
7.28
7.03
6.82
6.52
6.01
5.19
4.05
2.65
1.12
-0.32
-1.41
-1.93
-1.70
-0.71
0.89
2.83
4.77
6.44
7.66
8.37
8.59
8.42
7.97
7.38
6.81
6.39
6.22
6.26
6.42
6.54
6.51
6.34
6.16
6.11
6.25
6.51
6.69
6.57
6.04
5.16
4.13
3.18
2.44
1.92
1.51
1.09
0.62
0.15
-0.23
-0.48
-0.65
-0.87
-1.25
-1.79
-2.32
-2.56
-2.29
-1.43
-0.12
1.37
2.72
3.71
4.26
4.43
4.34
4.11
3.84
3.61
3.47
3.49
3.66
3.95
4.24
4.43
4.42
4.23
3.90
3.53
3.20
2.94
2.75
2.62
2.53
2.42
2.26
1.99
1.63
1.20
0.77
0.40
0.07
-0.30
-0.81
-1.47
-2.17
-2.73
-2.92
-2.59
-1.76
-0.57
0.78
2.14
3.41
4.52
5.41
6.02
6.30
6.26
5.96
5.54
5.11
4.72
4.36
3.96
3.50
3.02
2.59
2.30
2.14
2.07
1.99
1.84
1.58
1.23
0.84
0.44
0.07
-0.26
-0.53
-0.77
-1.03
-1.36
-1.83
-2.43
-3.08
-3.64
-3.93
-3.83
-3.25
-2.25
-0.91
0.61
2.11
3.42
4.41
5.02
5.25
5.19
4.88
4.39
3.78
3.13
2.55
2.13
1.92
1.94
2.14
2.48
2.95
3.50
4.04
4.43
4.50
4.14
3.39
2.44
1.53
0.87
0.47
0.22
-0.05
-0.48
-1.10
-1.84
-2.59
-3.26
-3.77
-4.03
-3.95
-3.45
-2.50
-1.19
0.30
1.69
2.77
3.42
3.66
3.60
3.38
3.10
2.81
2.51
2.16
1.75
1.30
0.90
0.63
0.58
0.76
1.12
1.50
1.77
1.81
1.59
1.12
0.40
-0.55
-1.63
-2.72
-3.63
-4.26
-4.61
-4.83
-5.14
-5.70
-6.47
-7.20
-7.54
-7.22
-6.15
-4.48
-2.50
-0.49
1.34
2.91
4.16
5.04
5.48
5.45
5.00
4.27
3.50
2.87
2.49
2.38
2.46
2.66
2.93
3.27
3.68
4.13
4.54
4.81
4.88
4.71
4.36
3.84
3.15
2.24
1.04
-0.47
-2.22
-4.06
-5.74
-6.99
-7.62
-7.50
-6.66
-5.22
-3.36
-1.28
0.83
2.79
4.45
5.64
6.26
6.28
5.79
5.03
4.28
3.76
3.57
3.64
3.80
3.87
3.78
3.55
3.26
2.98
2.69
2.31
1.76
1.03
0.20
-0.53
-1.01
-1.15
-1.02
-0.76
-0.57
-0.54
-0.66
-0.76
-0.62
-0.12
0.77
1.90
3.08
4.08
4.75
5.02
4.91
4.40
3.54
2.33
0.83
-0.83
-2.53
-4.06
-5.27
-6.03
-6.31
-6.15
-5.72
-5.18
-4.71
-4.36
-4.10
-3.84
-3.50
-3.06
-2.60
-2.26
-2.17
-2.38
-2.85
-3.44
-4.00
-4.30
-4.19
-3.58
-2.53
-1.20
0.16
1.37
2.32
3.02
3.51
3.82
3.92
3.77
3.32
2.64
1.85
1.05
0.34
-0.21
-0.61
-0.82
-0.85
-0.71
-0.45
-0.16
0.07
0.13
-0.01
-0.37
-0.90
-1.56
-2.31
-3.15
-4.07
-5.05
-6.05
-6.94
-7.59
-7.82
-7.56
-6.86
-5.78
-4.42
-2.90
-1.38
-0.15
0.41
-0.04
-1.73
-4.62
-8.39
-12.54
-16.51
-19.85
-22.22
-23.34
-23.03
-21.22
-18.01
-13.64
-8.56
-3.27
1.79
6.25
9.89
12.56
14.17
14.71
14.29
13.08
11.43
9.72
8.35
7.64
7.74
8.65
10.20
12.09
13.96
15.52
16.59
17.07
17.02
16.55
15.84
15.06
14.31
13.64
13.01
12.35
11.59
10.71
9.74
8.74
7.77
6.81
5.86
4.92
3.98
3.03
2.00
0.83
-0.58
-2.22
-3.96
-5.51
-6.53
-6.71
-5.93
-4.29
-2.15
0.04
1.84
2.95
3.29
3.02
2.40
1.70
1.11
0.67
0.34
0.04
-0.29
-0.65
-1.02
-1.37
-1.66
-1.85
-1.88
-1.67
-1.18
-0.39
0.66
1.87
3.08
4.12
4.83
5.08
4.78
3.91
2.54
0.83
-0.99
-2.62
-3.76
-4.20
-3.85
-2.83
-1.39
0.18
1.64
2.84
3.77
4.46
5.01
5.47
5.88
6.25
6.53
6.68
6.60
6.23
5.55
4.65
3.65
2.72
2.01
1.55
1.30
1.15
0.93
0.51
-0.23
-1.37
-2.88
-4.67
-6.54
-8.17
-9.23
-9.40
-8.57
-6.83
-4.48
-1.94
0.42
2.36
3.76
4.60
4.91
4.73
4.14
3.27
2.33
1.53
1.03
0.86
0.98
1.28
1.64
1.95
2.14
2.15
1.97
1.60
1.13
0.62
0.14
-0.26
-0.62
-0.98
-1.43
-2.00
-2.68
-3.35
-3.83
-3.95
-3.58
-2.73
-1.50
-0.05
1.49
2.96
4.28
5.36
6.14
6.56
6.67
6.54
6.36
6.29
6.44
6.85
7.43
7.95
8.11
7.61
6.26
4.02
1.03
-2.42
-5.97
-9.31
-12.18
-14.44
-16.04
-17.00
-17.37
-17.27
-16.80
-16.05
-15.05
-13.76
-12.19
-10.35
-8.30
-6.15
-4.00
-1.95
-0.08
1.53
2.81
3.71
4.20
4.33
4.21
3.99
3.78
3.64
3.57
3.53
3.49
3.44
3.40
3.37
3.36
3.35
3.31
3.19
2.90
2.41
1.68
0.73
-0.35
-1.44
-2.44
-3.29
-3.97
-4.48
-4.76
-4.68
-4.16
-3.12
-1.64
0.04
1.64
2.89
3.66
3.96
3.92
3.69
3.39
3.04
2.66
2.25
1.88
1.65
1.62
1.81
2.12
2.37
2.40
2.14
1.67
1.15
0.79
0.64
0.68
0.75
0.71
0.44
-0.08
-0.82
-1.75
-2.82
-3.96
-5.04
-5.90
-6.33
-6.23
-5.59
-4.56
-3.32
-2.10
-1.05
-0.24
0.31
0.60
0.70
0.62
0.41
0.12
-0.17
-0.36
-0.36
-0.10
0.37
0.97
1.53
1.85
1.86
1.59
1.17
0.76
0.46
0.31
0.24
0.15
-0.07
-0.49
-1.13
-1.95
-2.83
-3.64
-4.17
-4.24
-3.73
-2.70
-1.31
0.17
1.48
2.42
2.94
3.05
2.82
2.32
1.59
0.71
-0.24
-1.07
-1.56
-1.54
-0.97
0.07
1.37
2.61
3.55
3.97
3.80
3.10
2.08
1.00
0.12
-0.40
-0.56
-0.47
-0.39
-0.53
-1.02
-1.83
-2.77
-3.57
-3.99
-3.87
-3.13
-1.89
-0.33
1.25
2.62
3.60
4.15
4.36
4.36
4.32
4.35
4.49
4.71
4.87
4.79
4.26
3.15
1.49
-0.53
-2.65
-4.59
-6.14
-7.22
-7.78
-7.85
-7.41
-6.56
-5.56
-4.79
-4.63
-5.27
-6.55
-8.00
-9.05
-9.22
-8.40
-6.81
-4.92
-3.22
-2.05
-1.59
-1.79
-2.51
-3.48
-4.37
-4.80
-4.45
-3.16
-0.99
1.83
4.93
7.92
10.52
12.53
13.86
14.46
14.33
13.50
12.05
10.19
8.19
6.39
5.08
4.39
4.26
4.54
5.02
5.53
6.14
7.01
8.39
10.51
13.40
16.84
20.33
23.19
24.71
24.37
21.94
17.60
11.82
5.24
-1.48
-7.80
-13.33
-17.78
-20.97
-22.79
-23.24
-22.46
-20.75
-18.48
-16.10
-13.98
-12.38
-11.34
-10.76
-10.42
-10.12
-9.80
-9.45
-9.20
-9.17
-9.42
-9.95
-10.65
-11.32
-11.75
-11.73
-11.10
-9.87
-8.20
-6.30
-4.44
-2.78
-1.41
-0.37
0.33
0.60
0.31
-0.62
-2.17
-4.20
-6.43
-8.58
-10.43
-11.83
-12.70
-12.98
-12.62
-11.51
-9.56
-6.73
-3.00
1.60
7.03
13.18
19.85
26.61
32.90
38.08
41.58
43.10
42.66
40.51
37.04
32.63
27.54
21.99
16.20
10.47
5.13
0.51
-3.21
-6.04
-8.17
-9.80
-11.12
-12.14
-12.71
-12.55
-11.39
-9.05
-5.53
-1.04
3.99
9.03
13.63
17.47
20.50
22.81
24.55
25.79
26.46
26.37
25.31
23.18
20.05
16.17
11.96
7.81
4.07
0.99
-1.30
-2.64
-2.85
-1.67
1.18
5.82
12.13
19.69
27.89
36.05
43.56
49.88
54.57
57.32
58.00
56.67
53.56
48.88
42.59
34.17
22.70
7.26
-12.52
-36.02
-61.44
-86.08
-106.94
-121.52
-128.42
-127.59
-120.23
-108.47
-94.77
-81.47
-70.30
-62.21
-57.29
-54.96
-54.21
-53.95
-53.36
-51.98
-49.68
-46.45
-42.24
-36.88
-30.14
-21.89
-12.24
-1.67
9.11
19.34
28.40
35.94
41.89
46.28
49.18
50.63
50.56
48.85
45.21
39.30
30.86
20.02
7.44
-5.67
-17.88
-27.94
-35.24
-39.86
-42.41
-43.54
-43.54
-42.29
-39.41
-34.67
-28.20
-20.54
-12.43
-4.57
2.57
8.78
14.02
18.32
21.63
23.81
24.67
23.99
21.63
17.51
11.64
4.06
-5.22
-16.01
-27.93
-40.14
-51.39
-60.13
-64.92
-64.85
-59.87
-50.85
-39.24
-26.64
-14.19
-2.34
9.11
20.67
32.69
45.07
57.16
68.06
76.97
83.40
87.26
88.66
87.81
84.89
80.14
73.89
66.62
58.84
50.94
43.17
35.62
28.35
21.49
15.27
9.89
5.54
2.29
0.14
-0.97
-1.18
-0.68
0.18
1.05
1.59
1.64
1.22
0.48
-0.37
-1.13
-1.67
-1.90
-1.76
-1.30
-0.62
0.13
0.84
1.43
1.96
2.51
3.10
3.60
3.77
3.28
1.84
-0.68
-4.25
-8.68
-13.67
-18.79
-23.50
-27.18
-29.26
-29.34
-27.37
-23.68
-18.90
-13.80
-9.05
-5.10
-2.10
0.04
1.49
2.44
3.03
3.35
3.52
3.66
3.95
4.47
5.17
5.83
6.13
5.76
4.61
2.79
0.58
-1.67
-3.70
-5.47
-7.06
-8.68
-10.47
-12.49
-14.66
-16.84
-18.84
-20.44
-21.48
-21.79
-21.30
-20.07
-18.27
-16.19
-14.10
-12.21
-10.57
-9.17
-7.95
-6.89
-6.03
-5.44
-5.15
-5.15
-5.40
-5.88
-6.64
-7.79
-9.48
-11.80
-14.73
-18.14
-21.73
-25.16
-28.07
-30.19
-31.35
-31.44
-30.42
-28.24
-24.94
-20.60
-15.44
-9.68
-3.58
2.71
9.08
15.42
21.60
27.38
32.53
36.84
40.22
42.68
44.26
44.96
44.75
43.58
41.47
38.63
35.34
31.98
28.85
26.16
23.95
22.11
20.47
18.84
17.12
15.29
13.40
11.51
9.65
7.74
5.71
3.48
1.11
-1.31
-3.64
-5.79
-7.76
-9.54
-11.05
-12.13
-12.57
-12.24
-11.19
-9.68
-8.09
-6.74
-5.76
-5.08
-4.47
-3.74
-2.79
-1.63
-0.35
0.98
2.30
3.61
4.88
6.06
7.04
7.70
8.02
8.03
7.90
7.83
7.94
8.21
8.45
8.33
7.56
5.94
3.51
0.49
-2.82
-6.13
-9.17
-11.72
-13.53
-14.37
-14.07
-12.67
-10.43
-7.76
-5.13
-2.81
-0.86
0.81
2.27
3.54
4.47
4.89
4.73
4.09
3.19
2.27
1.44
0.72
0.00
-0.74
-1.48
-2.13
-2.63
-2.95
-3.15
-3.31
-3.47
-3.67
-3.93
-4.32
-4.91
-5.74
-6.73
-7.73
-8.48
-8.77
-8.54
-7.88
-7.04
-6.26
-5.76
-5.60
-5.70
-5.91
-6.05
-6.01
-5.79
-5.47
-5.18
-5.03
-5.09
-5.30
-5.58
-5.83
-5.99
-6.08
-6.12
-6.09
-5.96
-5.68
-5.24
-4.75
-4.39
-4.34
-4.64
-5.24
-5.98
-6.64
-7.07
-7.18
-6.96
-6.46
-5.71
-4.73
-3.58
-2.32
-1.03
0.23
1.38
2.33
2.99
3.27
3.17
2.77
2.24
1.78
1.53
1.48
1.50
1.42
1.13
0.66
0.13
-0.30
-0.55
-0.70
-0.89
-1.26
-1.84
-2.57
-3.36
-4.17
-4.98
-5.79
-6.55
-7.10
-7.22
-6.74
-5.63
-4.05
-2.24
-0.48
1.04
2.21
3.03
3.49
3.64
3.50
3.15
2.70
2.23
1.83
1.49
1.20
0.92
0.65
0.42
0.29
0.30
0.42
0.60
0.77
0.94
1.12
1.33
1.53
1.62
1.50
1.11
0.53
-0.03
-0.31
-0.10
0.60
1.64
2.78
3.82
4.65
5.29
5.76
6.07
6.15
5.92
5.39
4.65
3.89
3.28
2.92
2.79
2.73
2.61
2.32
1.85
1.27
0.73
0.31
0.07
-0.03
-0.11
-0.30
-0.74
-1.50
-2.54
-3.75
-4.93
-5.84
-6.26
-6.07
-5.24
-3.85
-2.11
-0.21
1.62
3.24
4.58
5.63
6.40
6.90
7.14
7.16
7.02
6.83
6.68
6.63
6.66
6.69
6.64
6.48
6.21
5.90
5.62
5.39
5.19
4.98
4.66
4.16
3.47
2.63
1.66
0.60
-0.52
-1.70
-2.89
-3.98
-4.78
-5.11
-4.82
-3.91
-2.48
-0.70
1.28
3.33
5.35
7.21
8.72
9.71
10.07
9.86
9.20
8.25
7.15
6.00
4.85
3.79
2.93
2.41
2.27
2.43
2.67
2.76
2.52
1.92
1.05
0.06
-0.89
-1.74
-2.50
-3.25
-4.08
-5.08
-6.30
-7.72
-9.26
-10.76
-12.03
-12.91
-13.26
-13.03
-12.22
-10.87
-9.06
-6.88
-4.49
-2.09
0.09
1.84
3.04
3.69
3.84
3.61
3.14
2.49
1.78
1.11
0.60
0.39
0.54
1.03
1.76
2.53
3.17
3.53
3.55
3.25
2.70
2.03
1.33
0.67
0.04
-0.58
-1.26
-2.03
-2.88
-3.75
-4.53
-5.09
-5.34
-5.28
-5.02
-4.77
-4.75
-5.09
-5.75
-6.52
-7.07
-7.04
-6.20
-4.45
-1.90
1.22
4.56
7.76
10.49
12.56
13.93
14.74
15.20
15.46
15.58
15.51
15.18
14.58
13.82
13.08
12.55
12.29
12.24
12.28
12.23
11.94
11.39
10.56
9.51
8.28
6.94
5.53
4.08
2.58
0.99
-0.68
-2.42
-4.15
-5.74
-7.08
-8.10
-8.77
-9.12
-9.24
-9.17
-8.98
-8.69
-8.28
-7.68
-6.76
-5.40
-3.53
-1.18
1.56
4.45
7.26
9.74
11.67
12.90
13.44
13.41
13.06
12.66
12.38
12.20
11.91
11.23
9.96
8.15
6.03
3.98
2.32
1.24
0.74
0.68
0.86
1.10
1.27
1.27
1.04
0.58
-0.08
-0.90
-1.81
-2.77
-3.72
-4.60
-5.35
-5.91
-6.24
-6.35
-6.30
-6.16
-6.01
-5.91
-5.85
-5.71
-5.26
-4.26
-2.48
0.16
3.68
7.93
12.71
17.70
22.53
26.85
30.42
33.14
35.10
36.53
37.69
38.75
39.74
40.52
40.81
40.24
38.46
35.26
30.70
25.22
19.55
14.63
11.27
9.84
10.17
11.58
13.09
13.79
13.02
10.55
6.58
1.66
-3.51
-8.19
-11.84
-14.27
-15.70
-16.67
-17.76
-19.36
-21.37
-23.26
-24.22
-23.55
-21.02
-16.92
-11.95
-6.95
-2.56
1.00
3.76
5.97
7.78
9.15
9.85
9.51
7.73
4.06
-1.91
-10.58
-22.06
-35.92
-51.05
-65.77
-78.21
-86.89
-91.19
-91.43
-88.68
-84.16
-78.75
-72.81
-66.24
-58.81
-50.49
-41.56
-32.55
-24.01
-16.30
-9.58
-3.86
0.88
4.60
7.26
8.85
9.57
9.85
10.20
11.06
12.58
14.55
16.45
17.71
17.89
16.89
14.94
12.46
9.89
7.55
5.58
3.99
2.71
1.59
0.43
-0.97
-2.80
-5.18
-8.11
-11.48
-15.09
-18.70
-22.05
-24.90
-26.98
-28.12
-28.20
-27.19
-25.14
-22.15
-18.30
-13.74
-8.70
-3.52
1.42
5.83
9.54
12.57
15.08
17.26
19.24
21.06
22.70
24.08
25.17
25.91
26.25
26.11
25.41
24.10
22.19
19.79
17.07
14.21
11.39
8.71
6.19
3.79
1.48
-0.76
-2.85
-4.69
-6.17
-7.22
-7.87
-8.19
-8.27
-8.17
-7.95
-7.65
-7.36
-7.22
-7.35
-7.81
-8.55
-9.44
-10.31
-11.03
-11.50
-11.62
-11.29
-10.40
-8.89
-6.78
-4.28
-1.70
0.67
2.58
3.95
4.82
5.28
5.42
5.29
4.94
4.48
4.04
3.78
3.79
4.03
4.33
4.50
4.46
4.22
3.92
3.71
3.65
3.67
3.61
3.36
2.89
2.30
1.74
1.28
0.87
0.35
-0.42
-1.54
-2.89
-4.22
-5.21
-5.62
-5.36
-4.54
-3.41
-2.21
-1.14
-0.21
0.68
1.64
2.68
3.72
4.54
4.99
5.05
4.84
4.59
4.48
4.57
4.80
5.02
5.13
5.14
5.14
5.21
5.39
5.58
5.60
5.29
4.54
3.40
2.06
0.82
-0.12
-0.65
-0.87
-1.04
-1.44
-2.19
-3.22
-4.24
-4.93
-5.07
-4.60
-3.66
-2.45
-1.09
0.39
2.00
3.68
5.27
6.50
7.18
7.24
6.81
6.20
5.68
5.39
5.30
5.26
5.10
4.71
4.17
3.61
3.24
3.15
3.31
3.55
3.60
3.30
2.59
1.59
0.53
-0.38
-1.03
-1.49
-1.89
-2.37
-3.02
-3.75
-4.38
-4.74
-4.69
-4.21
-3.32
-2.14
-0.77
0.69
2.12
3.42
4.49
5.26
5.75
6.02
6.16
6.28
6.45
6.65
6.86
7.04
7.20
7.33
7.44
7.49
7.41
7.10
6.48
5.48
4.14
2.57
0.96
-0.49
-1.57
-2.24
-2.54
-2.67
-2.83
-3.21
-3.88
-4.75
-5.73
-6.63
-7.33
-7.68
-7.57
-6.89
-5.64
-3.95
-2.04
-0.26
1.11
1.88
2.06
1.85
1.51
1.29
1.31
1.56
1.95
2.35
2.66
2.82
2.86
2.81
2.72
2.63
2.61
2.68
2.81
2.94
2.94
2.69
2.15
1.40
0.59
-0.15
-0.73
-1.21
-1.69
-2.28
-2.99
-3.78
-4.58
-5.35
-6.12
-6.95
-7.83
-8.73
-9.51
-10.03
-10.17
-9.86
-9.07
-7.81
-6.10
-4.03
-1.74
0.57
2.65
4.29
5.42
6.11
6.57
7.04
7.70
8.52
9.36
9.96
10.13
9.83
9.24
8.61
8.21
8.17
8.47
9.02
9.67
10.39
11.11
11.80
12.37
12.74
12.78
12.39
11.45
9.87
7.59
4.56
0.80
-3.55
-8.17
-12.64
-16.48
-19.31
-20.98
