1541510627.00
64.000000
-0.00
-0.00
-0.00
-0.00
-0.00
-0.00
-0.00
-0.00
-0.00
-0.00
0.00
0.01
0.01
-0.00
-0.03
-0.05
-0.05
0.00
0.13
0.36
0.66
1.01
1.37
1.72
2.06
2.40
2.79
3.24
3.80
4.42
5.06
5.66
6.20
6.68
7.15
7.68
8.31
9.15
10.10
11.07
11.93
12.64
13.26
13.94
14.90
16.31
18.37
20.90
23.63
26.25
28.61
30.77
33.04
35.86
39.54
44.46
50.27
56.44
62.39
67.78
72.65
77.48
83.00
89.71
98.15
107.82
117.93
127.58
136.22
143.88
151.16
159.43
167.40
177.31
189.77
204.88
221.43
236.52
245.81
244.65
229.70
200.12
158.28
108.02
53.65
-1.57
-56.12
-109.74
-162.57
-214.25
-263.90
-310.05
-351.79
-388.42
-419.37
-443.76
-460.26
-467.20
-462.84
-446.26
-417.52
-378.21
-330.89
-278.60
-224.28
-170.37
-119.38
-72.63
-30.78
5.98
37.48
63.72
84.85
101.32
113.74
122.97
129.98
135.56
140.22
144.12
147.25
149.50
150.79
151.10
150.48
149.12
147.14
144.55
141.25
137.09
131.86
125.88
119.33
112.37
105.22
98.01
90.84
83.77
76.85
70.10
63.57
57.25
51.11
45.20
39.53
34.10
28.93
24.04
19.45
15.20
11.26
7.62
4.29
1.26
-1.46
-3.90
-6.06
-7.95
-9.59
-11.01
-12.26
-13.34
-14.29
-15.12
-15.84
-16.45
-16.96
-17.38
-17.72
-18.00
-18.22
-18.38
-18.48
-18.52
-18.51
-18.42
-18.26
-18.03
-17.73
-17.38
-16.97
-16.53
-16.07
-15.59
-15.12
-14.67
-14.26
-13.88
-13.55
-13.27
-13.03
-12.84
-12.68
-12.54
-12.42
-12.31
-12.20
-12.08
-11.95
-11.79
-11.61
-11.38
-11.12
-10.80
-10.43
-10.01
-9.52
-8.96
-8.31
-7.58
-6.77
-5.90
-4.99
-4.07
-3.15
-2.21
-1.24
-0.17
1.03
2.37
3.84
5.41
7.03
8.68
10.36
12.11
14.00
16.04
18.22
20.48
22.66
24.61
26.15
27.14
27.41
26.87
25.36
22.64
18.41
12.34
4.24
-5.88
-17.69
-30.58
-43.77
-56.49
-68.25
-78.83
-88.35
-97.04
-105.06
-112.36
-118.64
-123.52
-126.79
-128.65
-129.76
-131.09
-133.58
-137.78
-143.62
-150.53
-157.66
-164.29
-170.18
-175.58
-181.14
-187.81
-196.57
-208.36
-223.60
-241.70
-260.48
-276.28
-284.66
-281.93
-266.55
-239.82
-205.39
-167.78
-130.77
-96.39
-65.01
-36.15
-9.44
14.90
36.32
54.46
69.62
82.64
94.55
105.90
116.68
126.23
133.69
138.45
140.44
140.12
138.39
136.11
133.88
131.82
129.60
126.73
122.83
117.77
111.85
105.57
99.46
93.85
88.81
84.17
79.70
75.25
70.78
66.38
62.17
58.19
54.37
50.62
46.90
43.29
39.97
37.06
34.59
32.40
30.31
28.16
26.00
23.95
22.18
20.72
19.51
18.43
17.39
16.46
15.73
15.20
14.74
14.10
13.09
11.73
10.26
8.95
8.03
7.48
7.11
6.75
6.37
6.12
6.18
6.65
7.39
8.12
8.52
8.45
8.01
7.46
7.04
6.85
6.81
6.71
6.42
5.92
5.32
4.83
4.58
4.55
4.61
4.57
4.30
3.84
3.37
3.10
3.18
3.62
4.26
4.85
5.15
5.02
4.51
3.81
3.17
2.78
2.69
2.81
3.02
3.26
3.53
3.96
4.61
5.42
6.16
6.53
6.38
5.69
4.70
3.76
3.15
2.98
3.18
3.52
3.77
3.76
3.46
2.98
2.51
2.21
2.12
2.22
2.43
2.64
2.84
3.03
3.22
3.38
3.46
3.42
3.25
2.98
2.70
2.48
2.36
2.35
2.37
2.38
2.33
2.21
2.02
1.79
1.54
1.31
1.11
1.00
1.01
1.14
1.36
1.58
1.73
1.79
1.80
1.80
1.85
1.92
1.93
1.82
1.61
1.35
1.13
0.99
0.91
0.79
0.64
0.47
0.42
0.55
0.89
1.37
1.88
2.34
2.69
2.96
3.09
3.07
2.81
2.35
1.81
1.37
1.27
1.61
2.29
3.09
3.68
3.79
3.34
2.50
1.56
0.86
0.59
0.73
1.08
1.44
1.68
1.81
1.97
2.24
2.60
2.93
3.09
3.01
2.81
2.65
2.67
2.90
3.20
3.37
3.24
2.81
2.17
1.47
0.80
0.20
-0.30
-0.63
-0.73
-0.51
-0.04
0.55
0.98
1.05
0.74
0.18
-0.39
-0.69
-0.64
-0.29
0.18
0.59
0.82
0.87
0.78
0.62
0.41
0.12
-0.27
-0.72
-1.15
-1.41
-1.41
-1.13
-0.69
-0.24
0.08
0.23
0.26
0.28
0.37
0.50
0.57
0.41
-0.04
-0.70
-1.29
-1.47
-1.05
-0.04
1.21
2.26
2.75
2.61
2.11
1.60
1.39
1.51
1.75
1.82
1.58
1.08
0.55
0.20
0.15
0.34
0.57
0.72
0.75
0.73
0.77
0.94
1.17
1.31
1.23
0.93
0.53
0.17
0.00
-0.03
-0.07
-0.28
-0.69
-1.15
-1.41
-1.21
-0.53
0.50
1.57
2.41
2.84
2.86
2.59
2.16
1.75
1.41
1.14
0.89
0.60
0.26
-0.04
-0.21
-0.22
-0.11
0.01
0.03
-0.07
-0.19
-0.17
0.07
0.53
1.10
1.66
2.15
2.58
2.93
3.16
3.23
3.07
2.78
2.50
2.30
2.18
1.97
1.52
0.73
-0.28
-1.27
-1.95
-2.15
-1.85
-1.23
-0.55
-0.02
0.26
0.35
0.43
0.61
0.92
1.21
1.29
1.02
0.46
-0.20
-0.70
-0.91
-0.82
-0.56
-0.24
0.08
0.40
0.72
0.98
1.10
1.01
0.76
0.44
0.16
-0.04
-0.19
-0.30
-0.40
-0.41
-0.34
-0.26
-0.32
-0.65
-1.22
-1.82
-2.13
-1.91
-1.14
-0.10
0.85
1.39
1.45
1.19
0.78
0.35
-0.10
-0.64
-1.25
-1.77
-1.91
-1.46
-0.39
1.06
2.55
3.68
4.23
4.12
3.46
2.44
1.25
0.09
-0.83
-1.38
-1.48
-1.18
-0.67
-0.20
-0.01
-0.23
-0.83
-1.57
-2.19
-2.45
-2.16
-1.32
-0.05
1.40
2.68
3.46
3.55
2.94
1.95
1.03
0.62
0.90
1.71
2.66
3.32
3.39
2.88
2.01
1.10
0.42
0.07
-0.04
-0.04
-0.08
-0.20
-0.33
-0.39
-0.28
-0.04
0.28
0.51
0.54
0.32
-0.09
-0.48
-0.65
-0.43
0.16
0.96
1.67
1.96
1.69
0.87
-0.22
-1.24
-1.88
-1.98
-1.53
-0.69
0.33
1.24
1.83
1.96
1.67
1.15
0.69
0.51
0.63
0.90
1.09
0.96
0.53
0.01
-0.27
-0.06
0.61
1.52
2.25
2.52
2.25
1.65
1.02
0.60
0.45
0.44
0.36
0.08
-0.35
-0.77
-0.93
-0.76
-0.36
0.04
0.17
-0.08
-0.62
-1.22
-1.58
-1.51
-1.05
-0.47
-0.09
-0.16
-0.71
-1.51
-2.23
-2.55
-2.31
-1.54
-0.44
0.70
1.56
1.92
1.75
1.13
0.32
-0.45
-1.01
-1.29
-1.38
-1.39
-1.39
-1.38
-1.34
-1.33
-1.45
-1.79
-2.27
-2.63
-2.54
-1.75
-0.33
1.36
2.77
3.44
3.23
2.40
1.42
0.72
0.54
0.79
1.21
1.55
1.65
1.63
1.64
1.87
2.36
2.96
3.45
3.61
3.33
2.63
1.66
0.58
-0.42
-1.16
-1.51
-1.38
-0.86
-0.12
0.57
1.02
1.12
0.95
0.60
0.19
-0.20
-0.48
-0.50
-0.13
0.64
1.63
2.49
2.85
2.52
1.65
0.65
0.00
-0.03
0.48
1.22
1.79
1.98
1.79
1.43
1.08
0.79
0.42
-0.20
-1.14
-2.20
-3.00
-3.19
-2.66
-1.67
-0.66
-0.05
0.05
-0.10
-0.03
0.60
1.73
2.89
3.44
2.92
1.41
-0.51
-2.07
-2.68
-2.26
-1.18
-0.06
0.63
0.77
0.57
0.33
0.22
0.18
0.05
-0.29
-0.76
-1.18
-1.39
-1.38
-1.27
-1.21
-1.29
-1.42
-1.46
-1.32
-1.04
-0.72
-0.43
-0.13
0.27
0.87
1.58
2.20
2.46
2.28
1.78
1.20
0.81
0.70
0.74
0.70
0.37
-0.36
-1.37
-2.43
-3.23
-3.54
-3.28
-2.54
-1.61
-0.82
-0.38
-0.33
-0.44
-0.41
-0.02
0.70
1.47
1.89
1.78
1.20
0.49
0.09
0.22
0.81
1.54
2.01
1.98
1.50
0.84
0.34
0.14
0.23
0.44
0.65
0.87
1.16
1.59
2.06
2.36
2.27
1.76
1.04
0.49
0.41
0.82
1.50
2.02
2.11
1.70
0.97
0.22
-0.31
-0.47
-0.30
0.11
0.65
1.16
1.51
1.60
1.39
0.99
0.61
0.40
0.51
0.90
1.42
1.87
2.03
1.81
1.25
0.49
-0.27
-0.87
-1.25
-1.41
-1.38
-1.19
-0.88
-0.53
-0.30
-0.37
-0.78
-1.41
-1.93
-2.07
-1.71
-1.05
-0.40
-0.01
0.12
0.17
0.35
0.74
1.20
1.49
1.43
0.99
0.30
-0.43
-1.03
-1.38
-1.41
-1.11
-0.54
0.12
0.66
0.92
0.93
0.82
0.73
0.68
0.57
0.29
-0.14
-0.55
-0.75
-0.59
-0.13
0.39
0.74
0.79
0.55
0.15
-0.32
-0.77
-1.16
-1.41
-1.42
-1.14
-0.65
-0.16
0.11
0.00
-0.43
-1.01
-1.49
-1.71
-1.63
-1.34
-0.95
-0.50
-0.04
0.37
0.62
0.62
0.37
0.05
-0.13
0.01
0.48
1.11
1.70
2.09
2.26
2.27
2.13
1.77
1.11
0.19
-0.73
-1.26
-1.06
-0.08
1.38
2.74
3.45
3.24
2.21
0.84
-0.33
-0.88
-0.67
0.11
1.15
2.05
2.60
2.73
2.50
2.06
1.58
1.17
0.90
0.74
0.60
0.37
0.06
-0.25
-0.49
-0.59
-0.63
-0.73
-1.00
-1.42
-1.78
-1.87
-1.54
-0.81
0.10
0.90
1.35
1.38
1.07
0.58
0.08
-0.35
-0.69
-1.01
-1.38
-1.79
-2.17
-2.44
-2.53
-2.46
-2.29
-2.07
-1.79
-1.41
-0.92
-0.33
0.26
0.75
1.09
1.24
1.23
1.09
0.88
0.63
0.43
0.32
0.36
0.55
0.77
0.90
0.86
0.64
0.33
0.04
-0.10
-0.05
0.17
0.50
0.90
1.30
1.64
1.87
1.92
1.74
1.32
0.70
-0.01
-0.70
-1.23
-1.53
-1.58
-1.40
-1.03
-0.50
0.16
0.93
1.71
2.41
2.88
3.01
2.78
2.21
1.45
0.66
-0.02
-0.47
-0.65
-0.54
-0.20
0.30
0.73
0.88
0.56
-0.21
-1.25
-2.24
-2.89
-3.12
-3.01
-2.78
-2.62
-2.52
-2.31
-1.80
-0.98
-0.06
0.63
0.83
0.56
0.07
-0.28
-0.18
0.39
1.25
2.08
2.62
2.69
2.29
1.58
0.80
0.17
-0.17
-0.22
-0.09
0.07
0.19
0.30
0.49
0.80
1.13
1.32
1.23
0.86
0.39
0.04
-0.06
0.08
0.28
0.41
0.37
0.24
0.12
0.10
0.25
0.54
0.89
1.21
1.41
1.41
1.23
0.92
0.63
0.50
0.60
0.91
1.34
1.71
1.89
1.80
1.40
0.71
-0.16
-0.98
-1.58
-1.82
-1.71
-1.40
-1.05
-0.72
-0.38
0.02
0.43
0.64
0.44
-0.24
-1.25
-2.20
-2.73
-2.69
-2.23
-1.62
-1.15
-0.89
-0.76
-0.56
-0.19
0.34
0.86
1.17
1.16
0.85
0.44
0.19
0.29
0.76
1.36
1.70
1.52
0.75
-0.33
-1.31
-1.87
-1.93
-1.66
-1.33
-1.15
-1.07
-0.97
-0.65
-0.11
0.48
0.89
0.93
0.58
-0.03
-0.67
-1.20
-1.53
-1.68
-1.76
-1.85
-2.04
-2.34
-2.70
-3.06
-3.31
-3.40
-3.31
-3.10
-2.85
-2.57
-2.23
-1.75
-1.14
-0.51
-0.05
0.09
-0.07
-0.32
-0.37
-0.02
0.71
1.59
2.33
2.70
2.70
2.51
2.32
2.29
2.43
2.66
2.89
3.07
3.23
3.36
3.45
3.46
3.37
3.17
2.92
2.68
2.48
2.30
2.08
1.80
1.49
1.26
1.22
1.38
1.65
1.81
1.62
1.01
0.08
-0.91
-1.62
-1.82
-1.45
-0.69
0.15
0.74
0.91
0.66
0.20
-0.23
-0.40
-0.29
-0.01
0.24
0.35
0.35
0.38
0.58
0.94
1.30
1.43
1.17
0.56
-0.12
-0.56
-0.57
-0.11
0.58
1.23
1.61
1.65
1.41
0.96
0.42
-0.15
-0.68
-1.08
-1.23
-1.08
-0.66
-0.18
0.10
-0.03
-0.62
-1.49
-2.28
-2.65
-2.38
-1.50
-0.29
0.90
1.72
1.99
1.73
1.09
0.27
-0.54
-1.21
-1.63
-1.74
-1.54
-1.15
-0.73
-0.46
-0.42
-0.55
-0.67
-0.66
-0.48
-0.19
0.06
0.24
0.40
0.64
1.02
1.44
1.68
1.55
1.01
0.21
-0.54
-0.98
-1.00
-0.72
-0.39
-0.24
-0.32
-0.49
-0.50
-0.18
0.44
1.07
1.38
1.17
0.53
-0.17
-0.54
-0.41
0.15
0.74
1.01
0.79
0.22
-0.40
-0.79
-0.86
-0.72
-0.55
-0.44
-0.38
-0.27
-0.04
0.26
0.55
0.78
0.93
1.07
1.25
1.43
1.55
1.54
1.41
1.19
0.92
0.62
0.25
-0.17
-0.58
-0.83
-0.87
-0.69
-0.38
-0.07
0.19
0.39
0.58
0.76
0.84
0.74
0.42
-0.05
-0.49
-0.72
-0.66
-0.37
0.01
0.32
0.50
0.54
0.50
0.38
0.09
-0.42
-1.16
-1.95
-2.57
-2.76
-2.42
-1.62
-0.57
0.49
1.36
1.91
2.08
1.91
1.46
0.87
0.34
0.05
0.06
0.27
0.51
0.57
0.37
0.03
-0.27
-0.31
-0.04
0.45
1.01
1.42
1.56
1.43
1.14
0.88
0.79
0.98
1.38
1.84
2.18
2.25
2.04
1.59
1.04
0.49
0.04
-0.31
-0.53
-0.68
-0.72
-0.67
-0.50
-0.22
0.08
0.28
0.25
-0.07
-0.67
-1.44
-2.20
-2.79
-3.04
-2.90
-2.37
-1.58
-0.71
0.05
0.52
0.65
0.56
0.41
0.41
0.59
0.90
1.12
1.07
0.68
0.03
-0.71
-1.35
-1.73
-1.74
-1.34
-0.57
0.44
1.46
2.18
2.34
1.80
0.67
-0.70
-1.86
-2.39
-2.07
-0.97
0.58
2.14
3.28
3.72
3.34
2.27
0.76
-0.82
-2.12
-2.91
-3.09
-2.74
-2.01
-1.10
-0.18
0.59
1.10
1.29
1.17
0.88
0.61
0.55
0.75
1.12
1.43
1.49
1.23
0.76
0.24
-0.17
-0.45
-0.67
-0.93
-1.19
-1.35
-1.26
-0.88
-0.31
0.23
0.54
0.57
0.36
0.03
-0.30
-0.58
-0.80
-0.92
-0.88
-0.64
-0.20
0.28
0.67
0.83
0.78
0.64
0.57
0.63
0.75
0.82
0.71
0.44
0.10
-0.20
-0.40
-0.53
-0.68
-0.89
-1.12
-1.27
-1.20
-0.92
-0.53
-0.16
0.06
0.12
0.13
0.22
0.49
0.95
1.51
2.04
2.40
2.43
2.07
1.32
0.32
-0.69
-1.42
-1.63
-1.29
-0.53
0.35
1.04
1.35
1.23
0.82
0.33
-0.00
-0.08
0.07
0.31
0.44
0.33
-0.01
-0.42
-0.72
-0.77
-0.61
-0.36
-0.17
-0.12
-0.18
-0.24
-0.20
-0.04
0.18
0.36
0.40
0.23
-0.14
-0.59
-0.95
-1.08
-0.90
-0.47
0.00
0.33
0.38
0.16
-0.18
-0.48
-0.61
-0.54
-0.28
0.05
0.38
0.63
0.75
0.73
0.57
0.35
0.12
-0.07
-0.24
-0.40
-0.54
-0.63
-0.60
-0.41
-0.08
0.28
0.59
0.77
0.87
0.95
1.04
1.11
1.08
0.84
0.33
-0.33
-0.97
-1.40
-1.43
-1.07
-0.39
0.39
1.05
1.42
1.41
1.05
0.44
-0.23
-0.79
-1.08
-1.07
-0.81
-0.41
-0.02
0.28
0.50
0.67
0.85
1.06
1.24
1.35
1.32
1.13
0.81
0.43
0.13
-0.01
0.04
0.23
0.38
0.37
0.13
-0.32
-0.83
-1.22
-1.38
-1.32
-1.13
-0.94
-0.90
-1.01
-1.22
-1.44
-1.53
-1.46
-1.22
-0.90
-0.65
-0.56
-0.64
-0.78
-0.85
-0.74
-0.40
0.07
0.58
1.06
1.47
1.81
2.07
2.20
2.19
2.02
1.74
1.39
0.98
0.58
0.21
-0.09
-0.24
-0.24
-0.12
0.03
0.09
-0.01
-0.21
-0.41
-0.45
-0.24
0.25
0.93
1.63
2.16
2.32
2.00
1.24
0.24
-0.67
-1.16
-1.08
-0.47
0.38
1.06
1.30
0.98
0.30
-0.38
-0.75
-0.66
-0.23
0.26
0.58
0.62
0.41
0.05
-0.38
-0.87
-1.45
-2.07
-2.58
-2.74
-2.40
-1.58
-0.50
0.51
1.14
1.24
0.86
0.21
-0.51
-1.08
-1.47
-1.70
-1.82
-1.82
-1.64
-1.22
-0.59
0.13
0.73
1.04
1.05
0.87
0.68
0.65
0.81
1.07
1.27
1.31
1.19
1.00
0.87
0.86
0.94
1.05
1.09
0.96
0.65
0.24
-0.15
-0.37
-0.31
0.05
0.59
1.13
1.47
1.50
1.26
0.82
0.27
-0.29
-0.81
-1.14
-1.17
-0.79
-0.11
0.61
1.03
0.91
0.24
-0.72
-1.62
-2.18
-2.32
-2.09
-1.57
-0.85
-0.01
0.80
1.36
1.49
1.13
0.42
-0.40
-1.03
-1.37
-1.46
-1.39
-1.23
-0.91
-0.30
0.60
1.64
2.50
2.87
2.55
1.62
0.36
-0.86
-1.71
-2.01
-1.77
-1.13
-0.28
0.60
1.37
1.90
2.11
1.98
1.56
0.95
0.36
-0.07
-0.25
-0.23
-0.18
-0.26
-0.57
-1.07
-1.61
-2.04
-2.21
-2.12
-1.84
-1.49
-1.13
-0.74
-0.24
0.40
1.12
1.71
1.93
1.64
0.93
0.08
-0.51
-0.63
-0.24
0.43
1.07
1.45
1.48
1.27
0.89
0.42
-0.19
-0.88
-1.52
-1.87
-1.72
-1.04
-0.08
0.79
1.25
1.22
0.88
0.55
0.48
0.73
1.10
1.31
1.16
0.68
0.05
-0.48
-0.75
-0.81
-0.81
-0.93
-1.17
-1.35
-1.27
-0.76
0.11
1.09
1.87
2.21
2.08
1.63
1.08
0.59
0.23
-0.01
-0.14
-0.19
-0.16
-0.10
-0.07
-0.11
-0.20
-0.28
-0.25
-0.13
-0.02
-0.06
-0.31
-0.67
-0.98
-1.10
-1.03
-0.89
-0.74
-0.59
-0.29
0.23
0.88
1.33
1.26
0.52
-0.66
-1.75
-2.27
-1.99
-1.17
-0.28
0.20
0.17
-0.18
-0.48
-0.50
-0.25
0.06
0.19
0.10
-0.09
-0.13
0.18
0.80
1.58
2.19
2.32
1.84
0.85
-0.33
-1.26
-1.59
-1.22
-0.33
0.69
1.42
1.64
1.36
0.76
0.11
-0.42
-0.78
-0.99
-1.03
-0.88
-0.46
0.18
0.87
1.35
1.41
1.00
0.26
-0.54
-1.17
-1.53
-1.68
-1.74
-1.73
-1.57
-1.11
-0.32
0.68
1.63
2.25
2.42
2.12
1.55
0.86
0.20
-0.36
-0.78
-0.98
-0.94
-0.66
-0.32
-0.10
-0.16
-0.47
-0.87
-1.10
-1.05
-0.79
-0.50
-0.39
-0.55
-0.87
-1.12
-1.06
-0.55
0.40
1.59
2.75
3.53
3.67
3.03
1.74
0.20
-1.05
-1.49
-0.98
0.24
1.63
2.61
2.84
2.35
1.45
0.54
-0.10
-0.42
-0.53
-0.58
-0.60
-0.54
-0.32
0.07
0.51
0.82
0.85
0.56
-0.01
-0.74
-1.53
-2.26
-2.83
-3.16
-3.16
-2.75
-1.94
-0.81
0.45
1.55
2.21
2.24
1.63
0.59
-0.50
-1.33
-1.68
-1.57
-1.16
-0.69
-0.26
0.15
0.55
0.91
1.10
0.97
0.50
-0.15
-0.69
-0.87
-0.61
-0.08
0.37
0.49
0.24
-0.16
-0.40
-0.25
0.26
0.85
1.22
1.18
0.81
0.37
0.14
0.29
0.77
1.35
1.76
1.87
1.66
1.24
0.77
0.42
0.29
0.37
0.55
0.64
0.47
-0.02
-0.78
-1.65
-2.44
-3.03
-3.38
-3.44
-3.19
-2.58
-1.68
-0.65
0.28
0.89
1.06
0.84
0.42
0.02
-0.21
-0.21
-0.03
0.30
0.67
1.02
1.24
1.22
0.91
0.38
-0.17
-0.55
-0.64
-0.49
-0.16
0.26
0.77
1.39
2.08
2.65
2.87
2.57
1.81
0.90
0.30
0.34
1.08
2.18
3.10
3.37
2.76
1.42
-0.25
-1.76
-2.76
-3.05
-2.71
-1.98
-1.12
-0.36
0.21
0.58
0.73
0.64
0.32
-0.25
-1.00
-1.81
-2.50
-2.87
-2.80
-2.26
-1.43
-0.55
0.08
0.28
0.07
-0.37
-0.73
-0.82
-0.63
-0.32
-0.17
-0.32
-0.72
-1.13
-1.31
-1.15
-0.79
-0.50
-0.50
-0.80
-1.18
-1.29
-0.92
-0.15
0.72
1.30
1.43
1.17
0.78
0.50
0.40
0.37
0.25
-0.06
-0.53
-1.01
-1.39
-1.59
-1.56
-1.23
-0.53
0.50
1.65
2.56
2.91
2.56
1.75
0.83
0.15
-0.18
-0.24
-0.24
-0.21
-0.09
0.25
0.82
1.35
1.52
1.09
0.18
-0.78
-1.24
-0.86
0.31
1.83
3.14
3.74
3.44
2.39
0.99
-0.29
-1.06
-1.15
-0.61
0.28
1.21
1.95
2.39
2.48
2.21
1.49
0.30
-1.20
-2.67
-3.62
-3.72
-2.95
-1.64
-0.36
0.46
0.64
0.29
-0.34
-1.06
-1.72
-2.23
-2.52
-2.47
-2.06
-1.41
-0.74
-0.30
-0.24
-0.54
-1.06
-1.53
-1.75
-1.63
-1.19
-0.55
0.14
0.70
1.06
1.18
1.11
0.99
0.98
1.21
1.70
2.29
2.68
2.55
1.79
0.56
-0.68
-1.47
-1.55
-1.05
-0.40
-0.06
-0.22
-0.70
-1.09
-1.01
-0.30
0.79
1.80
2.28
1.97
0.95
-0.39
-1.52
-1.94
-1.38
0.06
1.96
3.74
4.82
4.89
3.99
2.50
0.97
-0.10
-0.44
-0.15
0.39
0.72
0.59
0.05
-0.58
-0.98
-0.98
-0.64
-0.18
0.21
0.46
0.64
0.77
0.84
0.77
0.48
-0.02
-0.60
-1.13
-1.56
-1.96
-2.38
-2.79
-3.01
-2.84
-2.23
-1.31
-0.37
0.31
0.65
0.74
0.80
0.95
1.14
1.23
1.05
0.62
0.09
-0.34
-0.53
-0.51
-0.36
-0.13
0.19
0.63
1.12
1.47
1.36
0.62
-0.70
-2.25
-3.51
-4.07
-3.77
-2.79
-1.51
-0.28
0.66
1.27
1.61
1.71
1.55
1.09
0.39
-0.40
-1.05
-1.38
-1.37
-1.14
-0.81
-0.53
-0.28
-0.02
0.31
0.66
0.94
1.07
1.02
0.91
0.82
0.83
0.88
0.86
0.68
0.34
-0.05
-0.36
-0.52
-0.54
-0.54
-0.63
-0.91
-1.39
-1.93
-2.30
-2.27
-1.69
-0.60
0.76
2.00
2.76
2.85
2.38
1.62
0.90
0.43
0.23
0.19
0.19
0.17
0.16
0.22
0.38
0.59
0.77
0.78
0.55
0.07
-0.56
-1.12
-1.42
-1.36
-1.01
-0.52
-0.10
0.12
0.19
0.25
0.49
0.97
1.65
2.38
2.98
3.33
3.44
3.36
3.20
2.97
2.59
1.95
0.96
-0.30
-1.58
-2.55
-3.05
-3.13
-3.08
-3.22
-3.67
-4.27
-4.64
-4.44
-3.53
-2.18
-0.76
0.35
1.01
1.34
1.54
1.78
2.04
2.17
2.00
1.48
0.72
-0.07
-0.69
-1.01
-1.03
-0.83
-0.55
-0.32
-0.18
-0.12
-0.06
0.09
0.36
0.71
1.01
1.15
1.05
0.77
0.39
0.01
-0.24
-0.34
-0.27
-0.08
0.14
0.27
0.20
-0.10
-0.48
-0.72
-0.57
0.03
0.94
1.83
2.35
2.26
1.64
0.71
-0.24
-0.93
-1.21
-1.05
-0.57
-0.01
0.31
0.18
-0.38
-1.08
-1.48
-1.27
-0.50
0.42
0.92
0.64
-0.35
-1.53
-2.26
-2.13
-1.22
0.04
1.07
1.54
1.39
0.85
0.13
-0.58
-1.21
-1.80
-2.27
-2.53
-2.47
-2.09
-1.49
-0.91
-0.55
-0.52
-0.67
-0.74
-0.51
0.10
0.96
1.83
2.41
2.54
2.28
1.82
1.32
0.85
0.40
-0.08
-0.53
-0.77
-0.64
-0.11
0.60
1.17
1.27
0.91
0.34
-0.04
-0.02
0.31
0.63
0.59
0.17
-0.28
-0.24
0.62
2.17
3.86
4.96
5.00
3.95
2.26
0.48
-0.95
-1.98
-2.81
-3.65
-4.54
-5.25
-5.38
-4.64
-3.05
-0.97
1.07
2.58
3.32
3.34
2.84
2.08
1.22
0.36
-0.42
-0.99
-1.26
-1.19
-0.86
-0.48
-0.21
-0.15
-0.26
-0.41
-0.46
-0.34
-0.15
-0.00
-0.05
-0.30
-0.72
-1.13
-1.37
-1.34
-1.00
-0.42
0.25
0.81
1.14
1.13
0.84
0.36
-0.13
-0.47
-0.62
-0.60
-0.47
-0.24
0.08
0.60
1.31
2.06
2.57
2.55
1.90
0.78
-0.39
-1.11
-1.05
-0.26
0.90
1.93
2.44
2.33
1.76
1.05
0.43
-0.01
-0.36
-0.75
-1.21
-1.64
-1.81
-1.52
-0.71
0.41
1.38
1.74
1.21
-0.08
-1.61
-2.75
-3.09
-2.64
-1.85
-1.22
-1.03
-1.20
-1.32
-1.13
-0.56
0.12
0.60
0.79
0.84
1.00
1.33
1.68
1.75
1.38
0.66
-0.06
-0.46
-0.40
-0.04
0.35
0.56
0.56
0.46
0.41
0.53
0.77
1.05
1.24
1.22
1.02
0.63
0.18
-0.23
-0.50
-0.59
-0.52
-0.38
-0.28
-0.30
-0.47
-0.72
-0.94
-1.06
-1.07
-1.00
-0.89
-0.73
-0.42
0.11
0.81
1.43
1.60
1.10
0.02
-1.16
-1.85
-1.64
-0.67
0.54
1.26
1.08
0.09
-1.16
-2.12
-2.44
-2.22
-1.77
-1.35
-1.05
-0.63
0.05
0.99
1.91
2.41
2.24
1.47
0.48
-0.24
-0.33
0.22
1.08
1.84
2.11
1.80
1.07
0.25
-0.34
-0.46
-0.12
0.55
1.28
1.84
2.11
2.05
1.68
1.06
0.27
-0.65
-1.49
-2.05
-2.10
-1.53
-0.51
0.58
1.31
1.38
0.80
-0.14
-1.05
-1.64
-1.88
-1.89
-1.89
-1.96
-2.04
-2.03
-1.83
-1.49
-1.17
-1.04
-1.17
-1.45
-1.63
-1.45
-0.76
0.37
1.64
2.61
2.96
2.59
1.67
0.53
-0.47
-1.08
-1.28
-1.14
-0.81
-0.39
0.01
0.33
0.57
0.77
1.04
1.50
2.13
2.69
2.88
2.44
1.39
0.01
-1.26
-1.99
-2.06
-1.61
-0.97
-0.41
-0.08
0.10
0.25
0.48
0.82
1.20
1.47
1.47
1.07
0.28
-0.71
-1.61
-2.09
-2.01
-1.50
-0.86
-0.41
-0.27
-0.35
-0.43
-0.33
-0.01
0.43
0.78
0.99
1.08
1.10
1.10
1.00
0.68
0.12
-0.53
-1.03
-1.11
-0.74
-0.09
0.47
0.62
0.25
-0.39
-0.88
-0.87
-0.25
0.70
1.53
1.82
1.45
0.61
-0.25
-0.72
-0.58
0.09
0.99
1.70
1.94
1.60
0.81
-0.22
-1.25
-2.13
-2.73
-2.96
-2.75
-2.01
-0.72
0.96
2.71
4.02
4.50
4.01
2.70
1.06
-0.43
-1.44
-1.93
-2.10
-2.16
-2.20
-2.14
-1.89
-1.44
-0.94
-0.62
-0.53
-0.55
-0.35
0.33
1.45
2.67
3.51
3.61
2.88
1.53
-0.02
-1.40
-2.33
-2.70
-2.51
-1.87
-1.00
-0.17
0.32
0.26
-0.35
-1.30
-2.24
-2.80
-2.85
-2.39
-1.64
-0.81
-0.04
0.68
1.32
1.83
2.11
2.04
1.63
1.05
0.56
0.35
0.41
0.50
0.38
-0.10
-0.75
-1.18
-1.06
-0.33
0.71
1.55
1.76
1.26
0.39
-0.33
-0.45
0.14
1.18
2.24
2.84
2.81
2.24
1.40
0.58
0.02
-0.18
-0.02
0.43
1.03
1.60
1.94
1.85
1.23
0.08
-1.40
-2.92
-4.11
-4.72
-4.61
-3.87
-2.69
-1.41
-0.31
0.32
0.34
-0.31
-1.50
-2.87
-3.95
-4.24
-3.44
-1.65
0.66
2.78
4.11
4.38
3.76
2.68
1.62
0.87
0.47
0.26
0.04
-0.22
-0.46
-0.48
-0.13
0.57
1.40
2.00
2.02
1.38
0.31
-0.71
-1.26
-1.20
-0.78
-0.43
-0.45
-0.73
-0.89
-0.48
0.61
2.05
3.22
3.58
2.97
1.64
0.03
-1.37
-2.27
-2.62
-2.42
-1.78
-0.85
0.18
1.09
1.71
2.05
2.23
2.41
2.63
2.78
2.66
2.10
1.12
-0.05
-1.11
-1.88
-2.35
-2.68
-3.04
-3.46
-3.84
-3.91
-3.48
-2.50
-1.10
0.43
1.80
2.75
3.20
3.19
2.79
2.22
1.65
1.24
1.10
1.15
1.23
1.08
0.51
-0.52
-1.81
-3.04
-3.84
-3.96
-3.40
-2.37
-1.19
-0.19
0.44
0.68
0.59
0.24
-0.30
-0.98
-1.68
-2.24
-2.43
-2.08
-1.17
0.08
1.31
2.12
2.23
1.61
0.56
-0.51
-1.17
-1.20
-0.71
-0.00
0.56
0.76
0.62
0.38
0.30
0.52
1.02
1.65
2.22
2.57
2.59
2.20
1.41
0.30
-0.84
-1.69
-1.96
-1.62
-0.85
0.00
0.68
1.12
1.37
1.53
1.50
1.11
0.21
-1.09
-2.41
-3.21
-3.16
-2.26
-0.90
0.41
1.29
1.60
1.39
0.87
0.19
-0.47
-0.93
-1.01
-0.65
0.08
0.94
1.62
1.91
1.73
1.21
0.52
-0.10
-0.46
-0.49
-0.13
0.54
1.37
2.09
2.44
2.26
1.61
0.67
-0.34
-1.29
-2.14
-2.89
-3.47
-3.74
-3.52
-2.74
-1.55
-0.28
0.65
0.92
0.51
-0.29
-1.03
-1.23
-0.73
0.30
1.38
1.91
1.48
0.12
-1.66
-3.13
-3.69
-3.16
-1.87
-0.46
0.53
0.89
0.84
0.75
0.87
1.14
1.26
1.00
0.38
-0.27
-0.51
-0.12
0.80
1.84
2.50
2.52
1.94
1.15
0.60
0.55
0.92
1.32
1.35
0.84
-0.00
-0.75
-1.03
-0.78
-0.32
-0.09
-0.34
-0.92
-1.38
-1.28
-0.52
0.55
1.27
1.10
-0.03
-1.66
-3.05
-3.60
-3.14
-1.99
-0.75
0.07
0.21
-0.22
-0.87
-1.42
-1.66
-1.59
-1.29
-0.86
-0.28
0.49
1.37
2.23
2.83
3.03
2.78
2.28
1.78
1.54
1.66
2.08
2.62
2.99
2.93
2.31
1.14
-0.34
-1.76
-2.69
-2.83
-2.12
-0.78
0.68
1.78
2.23
2.04
1.48
0.86
0.39
0.10
-0.09
-0.26
-0.43
-0.59
-0.73
-0.85
-0.95
-1.01
-0.92
-0.65
-0.18
0.32
0.64
0.61
0.32
-0.01
-0.14
0.02
0.28
0.33
-0.06
-0.80
-1.54
-1.83
-1.39
-0.29
1.09
2.23
2.72
2.38
1.36
-0.01
-1.32
-2.23
-2.51
-2.15
-1.35
-0.48
0.13
0.28
0.08
-0.23
-0.40
-0.38
-0.33
-0.52
-1.05
-1.80
-2.48
-2.84
-2.80
-2.45
-1.98
-1.47
-0.89
-0.20
0.62
1.43
2.05
2.34
2.26
1.89
1.33
0.70
0.09
-0.42
-0.74
-0.91
-0.96
-1.04
-1.22
-1.48
-1.73
-1.81
-1.60
-1.10
-0.38
0.43
1.28
2.09
2.78
3.23
3.29
2.94
2.30
1.64
1.20
1.10
1.23
1.30
1.07
0.52
-0.21
-0.80
-1.04
-0.98
-0.80
-0.80
-1.01
-1.25
-1.15
-0.48
0.67
1.88
2.58
2.45
1.51
0.24
-0.77
-1.05
-0.58
0.25
0.90
0.93
0.29
-0.70
-1.52
-1.77
-1.39
-0.66
-0.02
0.19
-0.12
-0.72
-1.25
-1.44
-1.16
-0.50
0.38
1.24
1.84
2.00
1.64
0.89
0.06
-0.47
-0.44
0.11
0.86
1.40
1.45
1.06
0.48
-0.01
-0.30
-0.58
-1.06
-1.83
-2.69
-3.24
-3.18
-2.47
-1.39
-0.29
0.52
0.99
1.22
1.34
1.32
1.04
0.30
-0.88
-2.25
-3.36
-3.79
-3.32
-2.10
-0.53
0.87
1.80
2.14
2.07
1.82
1.58
1.38
1.17
0.90
0.55
0.22
0.09
0.29
0.86
1.71
2.64
3.34
3.60
3.32
2.61
1.68
0.82
0.24
0.01
0.06
0.27
0.46
0.43
0.04
-0.76
-1.81
-2.76
-3.19
-2.82
-1.74
-0.39
0.61
0.82
0.24
-0.75
-1.61
-1.95
-1.77
-1.35
-1.09
-1.19
-1.57
-1.90
-1.88
-1.41
-0.67
-0.03
0.17
-0.15
-0.91
-1.83
-2.72
-3.39
-3.78
-3.83
-3.50
-2.71
-1.49
0.00
1.51
2.78
3.67
4.13
4.27
4.17
3.90
3.54
3.12
2.73
2.39
2.12
1.89
1.72
1.62
1.58
1.54
1.33
0.81
-0.02
-1.01
-1.87
-2.37
-2.44
-2.24
-2.01
-1.98
-2.13
-2.28
-2.19
-1.70
-0.86
0.10
0.92
1.46
1.68
1.68
1.52
1.25
0.87
0.44
0.06
-0.15
-0.12
0.08
0.34
0.50
0.44
0.18
-0.20
-0.59
-0.86
-0.98
-0.92
-0.67
-0.33
0.03
0.33
0.53
0.67
0.73
0.65
0.31
-0.38
-1.30
-2.14
-2.46
-1.99
-0.80
0.72
1.98
2.52
2.26
1.44
0.51
-0.20
-0.56
-0.70
-0.85
-1.08
-1.31
-1.29
-0.83
0.06
1.09
1.85
1.99
1.48
0.63
-0.09
-0.29
0.14
0.94
1.68
2.02
1.84
1.31
0.68
0.18
-0.15
-0.39
-0.58
-0.74
-0.87
-0.93
-0.92
-0.92
-0.96
-1.04
-1.07
-0.91
-0.53
-0.02
0.38
0.42
0.01
-0.71
-1.43
-1.79
-1.64
-1.11
-0.53
-0.22
-0.29
-0.57
-0.76
-0.63
-0.13
0.61
1.30
1.71
1.70
1.23
0.39
-0.63
-1.59
-2.25
-2.43
-2.08
-1.27
-0.18
0.90
1.73
2.07
1.82
0.96
-0.20
-1.27
-1.84
-1.72
-1.04
-0.16
0.54
0.85
0.83
0.69
0.62
0.66
0.72
0.65
0.48
0.39
0.68
1.44
2.51
3.44
3.78
3.39
2.39
1.16
0.03
-0.83
-1.42
-1.77
-1.91
-1.77
-1.31
-0.69
-0.17
-0.03
-0.33
-0.87
-1.32
-1.45
-1.26
-0.97
-0.82
-0.90
-1.17
-1.44
-1.53
-1.32
-0.84
-0.24
0.29
0.59
0.60
0.34
-0.04
-0.40
-0.64
-0.73
-0.73
-0.78
-0.94
-1.12
-1.11
-0.67
0.30
1.64
2.97
3.83
3.92
3.23
2.07
0.90
0.08
-0.25
-0.19
0.03
0.22
0.27
0.20
-0.00
-0.33
-0.78
-1.27
-1.62
-1.60
-1.06
-0.03
1.24
2.34
2.87
2.60
1.59
0.22
-1.04
-1.84
-2.12
-2.04
-1.85
-1.65
-1.36
-0.83
-0.01
0.91
1.62
1.82
1.40
0.57
-0.29
-0.82
-0.88
-0.50
0.11
0.77
1.35
1.82
2.18
2.41
2.46
2.26
1.80
1.09
0.27
-0.44
-0.93
-1.15
-1.18
-1.14
-1.13
-1.15
-1.15
-1.08
-0.89
-0.61
-0.31
-0.07
0.06
0.01
-0.22
-0.56
-0.90
-1.01
-0.73
-0.03
0.88
1.64
1.82
1.22
0.00
-1.36
-2.25
-2.30
-1.55
-0.42
0.51
0.84
0.51
-0.21
-0.91
-1.34
-1.46
-1.44
-1.43
-1.48
-1.49
-1.33
-0.96
-0.45
0.10
0.55
0.81
0.85
0.71
0.50
0.33
0.24
0.19
0.09
-0.11
-0.36
-0.49
-0.35
0.14
0.87
1.59
2.08
2.18
1.91
1.40
0.85
0.42
0.23
0.28
0.47
0.60
0.44
-0.15
-1.16
-2.35
-3.33
-3.77
-3.48
-2.57
-1.36
-0.29
0.37
0.57
0.55
0.57
0.83
1.25
1.53
1.40
0.83
0.09
-0.48
-0.65
-0.46
-0.23
-0.24
-0.52
-0.83
-0.84
-0.35
0.49
1.33
1.85
1.92
1.72
1.45
1.19
0.89
0.38
-0.36
-1.19
-1.75
-1.74
-1.05
0.09
1.31
2.19
2.52
2.36
1.94
1.51
1.23
1.05
0.82
0.42
-0.11
-0.58
-0.67
-0.19
0.77
1.81
2.36
1.99
0.65
-1.28
-3.17
-4.39
-4.59
-3.82
-2.42
-0.85
0.50
1.44
1.86
1.86
1.60
1.25
0.97
0.81
0.63
0.23
-0.57
-1.70
-2.85
-3.54
-3.39
-2.34
-0.69
0.99
2.14
2.48
2.06
1.25
0.55
0.28
0.47
0.89
1.20
1.16
0.75
0.21
-0.19
-0.32
-0.26
-0.27
-0.55
-1.07
-1.53
-1.58
-1.03
-0.07
0.94
1.60
1.72
1.48
1.17
1.02
1.05
1.16
1.19
1.08
0.85
0.55
0.14
-0.47
-1.30
-2.24
-3.00
-3.29
-2.94
-2.02
-0.77
0.52
1.56
2.21
2.48
2.52
2.50
2.57
2.78
3.04
3.20
3.13
2.90
2.66
2.62
2.86
3.30
3.72
3.97
4.07
4.14
4.44
5.07
5.93
6.77
7.31
7.44
7.20
6.76
6.21
5.49
4.35
2.54
0.01
-3.01
-6.07
-8.63
-10.33
-11.15
-11.27
-11.04
-10.76
-10.57
-10.46
-10.39
-10.40
-10.52
-10.83
-11.35
-11.99
-12.54
-12.78
-12.52
-11.72
-10.48
-8.96
-7.37
-5.84
-4.43
-3.09
-1.73
-0.28
1.29
2.86
4.28
5.34
5.91
6.02
5.77
5.35
4.90
4.51
4.26
4.24
4.53
5.16
5.99
6.76
7.18
7.05
6.43
5.54
4.67
3.96
3.37
2.74
2.01
1.26
0.75
0.75
1.30
2.19
2.98
3.24
2.81
1.82
0.67
-0.23
-0.68
-0.74
-0.69
-0.80
-1.14
-1.64
-2.07
-2.26
-2.13
-1.73
-1.19
-0.69
-0.37
-0.33
-0.59
-1.07
-1.56
-1.78
-1.59
-0.97
-0.11
0.68
1.16
1.18
0.79
0.17
-0.42
-0.77
-0.72
-0.26
0.50
1.34
1.99
2.26
2.09
1.58
0.96
0.49
0.30
0.35
0.50
0.61
0.66
0.71
0.84
1.04
1.18
1.00
0.37
-0.63
-1.65
-2.16
-1.82
-0.64
0.99
2.38
2.93
2.39
0.94
-0.88
-2.48
-3.42
-3.61
-3.20
-2.52
-1.82
-1.24
-0.81
-0.46
-0.16
0.11
0.34
0.56
0.79
1.07
1.37
1.64
1.85
1.93
1.81
1.40
0.68
-0.30
-1.28
-1.90
-1.81
-0.91
0.59
2.16
3.25
3.50
2.85
1.54
-0.04
-1.50
-2.52
-2.91
-2.60
-1.62
-0.19
1.35
2.64
3.41
3.52
3.01
2.06
0.90
-0.22
-1.11
-1.63
-1.75
-1.56
-1.24
-0.95
-0.76
-0.63
-0.42
-0.01
0.60
1.22
1.55
1.35
0.56
-0.67
-1.98
-2.97
-3.31
-2.94
-2.08
-1.11
-0.43
-0.32
-0.82
-1.73
-2.69
-3.25
-3.11
-2.16
-0.62
1.06
2.34
2.86
2.52
1.58
0.49
-0.31
-0.59
-0.39
0.02
0.34
0.38
0.18
-0.07
-0.14
0.07
0.44
0.74
0.83
0.76
0.79
1.12
1.75
2.43
2.77
2.52
1.75
0.83
0.23
0.24
0.81
1.59
2.18
2.36
2.15
1.73
1.21
0.57
-0.30
-1.49
-2.87
-4.12
-4.80
-4.57
-3.39
-1.58
0.25
1.52
1.89
1.41
0.42
-0.59
-1.26
-1.51
-1.46
-1.28
-1.10
-0.93
-0.72
-0.49
-0.30
-0.26
-0.44
-0.72
-0.94
-0.90
-0.49
0.18
0.91
1.46
1.67
1.51
1.07
0.53
0.08
-0.16
-0.14
0.11
0.52
1.01
1.52
2.04
2.48
2.78
2.80
2.47
1.81
0.95
0.11
-0.51
-0.83
-0.93
-0.93
-0.97
-1.14
-1.42
-1.77
-2.13
-2.37
-2.43
-2.25
-1.83
-1.26
-0.67
-0.19
0.12
0.28
0.39
0.52
0.70
0.80
0.72
0.38
-0.16
-0.73
-1.04
-0.85
-0.12
0.96
1.97
2.46
2.23
1.37
0.35
-0.36
-0.46
-0.02
0.68
1.23
1.34
0.96
0.21
-0.59
-1.14
-1.21
-0.83
-0.26
0.14
0.06
-0.53
-1.41
-2.16
-2.47
-2.27
-1.79
-1.32
-1.05
-0.89
-0.61
-0.01
0.88
1.84
2.55
2.78
2.55
2.04
1.51
1.15
0.93
0.66
0.05
-1.06
-2.50
-3.87
-4.61
-4.36
-3.14
-1.36
0.41
1.68
2.32
2.45
2.33
2.10
1.77
1.26
0.56
-0.18
-0.72
-0.91
-0.76
-0.48
-0.27
-0.27
-0.44
-0.64
-0.71
-0.65
-0.53
-0.44
-0.40
-0.36
-0.22
0.07
0.46
0.86
1.20
1.51
1.85
2.25
2.60
2.70
2.35
1.55
0.55
-0.34
-0.83
-0.84
-0.50
-0.04
0.40
0.74
0.93
0.91
0.56
-0.16
-1.11
-1.97
-2.34
-2.01
-1.06
0.09
1.01
1.42
1.32
0.97
0.64
0.46
0.36
0.15
-0.38
-1.28
-2.39
-3.39
-3.92
-3.72
-2.77
-1.30
0.27
1.51
2.14
2.13
1.65
0.99
0.39
0.01
-0.20
-0.33
-0.49
-0.69
-0.85
-0.86
-0.56
0.06
0.83
1.48
1.67
1.20
0.14
-1.17
-2.21
-2.62
-2.31
-1.53
-0.71
-0.20
-0.16
-0.41
-0.70
-0.80
-0.72
-0.59
-0.56
-0.64
-0.71
-0.58
-0.17
0.49
1.22
1.86
2.35
2.72
3.02
3.27
3.38
3.24
2.82
2.15
1.40
0.76
0.39
0.37
0.65
1.06
1.38
1.38
1.01
0.34
-0.39
-0.96
-1.27
-1.36
-1.36
-1.38
-1.39
-1.24
-0.85
-0.27
0.27
0.46
0.18
-0.45
-1.07
-1.30
-1.01
-0.35
0.29
0.54
0.28
-0.28
-0.83
-1.08
-1.00
-0.78
-0.67
-0.82
-1.13
-1.43
-1.53
-1.44
-1.29
-1.28
-1.42
-1.56
-1.44
-0.81
0.38
1.91
3.34
4.21
4.16
3.20
1.59
-0.14
-1.48
-2.08
-1.87
-1.03
0.12
1.24
2.08
2.51
2.40
1.73
0.62
-0.70
-1.83
-2.40
-2.29
-1.65
-0.89
-0.41
-0.41
-0.76
-1.18
-1.40
-1.35
-1.15
-1.01
-0.98
-0.99
-0.88
-0.59
-0.20
0.13
0.32
0.43
0.61
0.99
1.50
1.95
2.10
1.88
1.43
1.01
0.84
0.94
1.10
1.06
0.71
0.10
-0.55
-1.06
-1.41
-1.67
-1.83
-1.79
-1.35
-0.41
0.88
2.09
2.74
2.58
1.74
0.70
-0.03
-0.21
0.05
0.42
0.60
0.56
0.43
0.40
0.41
0.24
-0.37
-1.44
-2.64
-3.48
-3.55
-2.85
-1.69
-0.62
0.03
0.23
0.27
0.55
1.25
2.27
3.25
3.81
3.70
2.86
1.50
-0.09
-1.55
-2.60
-3.09
-3.05
-2.66
-2.13
-1.59
-1.10
-0.58
0.09
0.87
1.67
2.30
2.61
2.54
2.15
1.58
0.99
0.51
0.20
0.06
0.00
-0.12
-0.41
-0.86
-1.33
-1.63
-1.59
-1.27
-0.89
-0.71
-0.87
-1.25
-1.55
-1.45
-0.87
0.06
1.01
1.72
2.12
2.26
2.29
2.18
1.77
0.90
-0.42
-1.95
-3.21
-3.76
-3.38
-2.22
-0.73
0.54
1.16
0.99
0.21
-0.77
-1.51
-1.76
-1.45
-0.74
0.12
0.91
1.52
1.94
2.13
2.04
1.57
0.67
-0.52
-1.72
-2.48
-2.46
-1.62
-0.30
0.91
1.45
1.10
0.07
-1.08
-1.78
-1.71
-0.93
0.16
1.12
1.64
1.71
1.52
1.33
1.29
1.36
1.38
1.21
0.76
0.07
-0.64
-1.18
-1.41
-1.31
-1.02
-0.78
-0.73
-0.90
-1.15
-1.24
-0.93
-0.14
1.02
2.29
3.26
3.61
3.12
1.81
0.03
-1.66
-2.70
-2.80
-2.11
-1.06
-0.15
0.33
0.45
0.51
0.75
1.16
1.52
1.47
0.87
-0.14
-1.17
-1.84
-1.97
-1.66
-1.23
-0.99
-1.08
-1.46
-1.97
-2.37
-2.47
-2.16
-1.46
-0.51
0.51
1.34
1.78
1.75
1.29
0.57
-0.18
-0.71
-0.83
-0.48
0.31
1.33
2.23
2.68
2.51
1.81
1.03
0.62
0.92
1.77
2.71
3.15
2.79
1.74
0.51
-0.34
-0.54
-0.17
0.44
0.97
1.26
1.36
1.39
1.39
1.33
1.11
0.67
0.03
-0.69
-1.28
-1.49
-1.14
-0.19
1.16
2.40
3.01
2.54
0.93
-1.44
-3.92
-5.84
-6.78
-6.75
-6.01
-4.94
-3.78
-2.57
-1.24
0.20
1.59
2.64
3.09
2.86
2.15
1.35
0.79
0.64
0.79
1.01
1.05
0.85
0.44
-0.10
-0.69
-1.33
-1.92
-2.31
-2.23
-1.56
-0.37
0.95
1.94
2.22
1.72
0.68
-0.49
-1.48
-2.07
-2.27
-2.14
-1.74
-1.14
-0.46
0.15
0.56
0.75
0.84
1.04
1.46
2.05
2.60
2.84
2.63
1.99
1.17
0.45
-0.02
-0.26
-0.42
-0.67
-1.01
-1.28
-1.27
-0.94
-0.45
-0.10
-0.17
-0.69
-1.40
-1.89
-1.85
-1.30
-0.53
0.07
0.26
0.08
-0.25
-0.52
-0.64
-0.66
-0.58
-0.37
0.06
0.76
1.59
2.30
2.65
2.55
2.10
1.47
0.80
0.10
-0.63
-1.34
-1.78
-1.75
-1.13
-0.13
0.84
1.42
1.46
1.16
0.84
0.82
1.09
1.42
1.52
1.22
0.61
-0.01
-0.37
-0.41
-0.29
-0.28
-0.56
-1.05
-1.48
-1.51
-0.91
0.25
1.64
2.76
3.21
2.80
1.71
0.30
-0.99
-1.85
-2.17
-2.01
-1.61
-1.20
-0.96
-0.93
-1.07
-1.26
-1.42
-1.45
-1.34
-1.10
-0.80
-0.52
-0.30
-0.11
0.15
0.61
1.26
1.99
2.53
2.64
2.13
1.06
-0.38
-1.81
-2.90
-3.37
-3.17
-2.40
-1.35
-0.35
0.33
0.54
0.41
0.19
0.11
0.29
0.65
0.99
1.16
1.20
1.21
1.40
1.75
2.10
2.21
1.91
1.23
0.38
-0.33
-0.80
-1.07
-1.34
-1.75
-2.26
-2.62
-2.51
-1.76
-0.48
0.92
1.93
2.15
1.51
0.34
-0.82
-1.45
-1.39
-0.83
-0.25
-0.09
-0.55
-1.44
-2.33
-2.81
-2.63
-1.88
-0.88
0.02
0.62
0.92
1.08
1.28
1.56
1.80
1.81
1.47
0.77
-0.09
-0.83
-1.16
-0.98
-0.40
0.32
0.87
1.03
0.74
0.08
-0.74
-1.48
-1.87
-1.78
-1.22
-0.35
0.56
1.28
1.73
1.97
2.16
2.44
2.79
3.10
3.14
2.75
1.98
1.05
0.21
-0.30
-0.44
-0.32
-0.12
-0.00
-0.03
-0.19
-0.41
-0.66
-0.91
-1.17
-1.39
-1.49
-1.37
-0.97
-0.37
0.25
0.65
0.70
0.37
-0.21
-0.85
-1.32
-1.50
-1.41
-1.11
-0.76
-0.46
-0.29
-0.25
-0.24
-0.19
-0.00
0.35
0.80
1.24
1.57
1.75
1.81
1.77
1.63
1.39
1.06
0.75
0.58
0.60
0.71
0.67
0.21
-0.70
-1.79
-2.52
-2.50
-1.64
-0.33
0.79
1.17
0.69
-0.35
-1.39
-1.92
-1.75
-1.02
-0.05
0.88
1.57
1.95
2.01
1.79
1.40
0.98
0.72
0.67
0.82
1.01
1.04
0.80
0.28
-0.41
-1.12
-1.69
-2.00
-1.93
-1.44
-0.60
0.37
1.16
1.49
1.26
0.55
-0.42
-1.39
-2.16
-2.58
-2.60
-2.24
-1.58
-0.78
-0.04
0.48
0.73
0.81
0.85
0.98
1.16
1.27
1.15
0.76
0.16
-0.46
-0.96
-1.25
-1.36
-1.35
-1.29
-1.22
-1.12
-0.94
-0.63
-0.13
0.50
1.14
1.58
1.68
1.38
0.74
-0.10
-0.96
-1.69
-2.22
-2.50
-2.45
-2.00
-1.11
0.13
1.45
2.44
2.72
2.09
0.73
-0.89
-2.18
-2.66
-2.19
-1.00
0.40
1.44
1.76
1.30
0.35
-0.67
-1.32
-1.34
-0.72
0.30
1.30
1.92
1.93
1.40
0.55
-0.27
-0.79
-0.86
-0.48
0.24
1.05
1.61
1.62
1.00
-0.05
-1.05
-1.51
-1.17
-0.20
0.82
1.22
0.60
-0.95
-2.80
-4.19
-4.57
-3.87
-2.47
-0.88
0.44
1.31
1.83
2.23
2.67
3.19
3.57
3.50
2.81
1.54
0.07
-1.16
-1.78
-1.75
-1.26
-0.62
-0.06
0.41
0.86
1.36
1.77
1.87
1.50
0.75
-0.06
-0.59
-0.66
-0.38
-0.02
0.22
0.35
0.55
0.89
1.28
1.45
1.12
0.29
-0.75
-1.56
-1.82
-1.48
-0.78
-0.06
0.43
0.63
0.60
0.39
0.06
-0.35
-0.76
-1.10
-1.30
-1.42
-1.48
-1.51
-1.41
-0.99
-0.18
0.92
2.00
2.68
2.72
2.08
0.95
-0.41
-1.72
-2.72
-3.27
-3.25
-2.67
-1.67
-0.52
0.51
1.20
1.50
1.52
1.45
1.45
1.61
1.93
2.30
2.62
2.67
2.39
1.74
0.85
-0.11
-0.95
-1.50
-1.71
-1.58
-1.19
-0.68
-0.21
-0.01
-0.23
-0.85
-1.69
-2.41
-2.68
-2.37
-1.62
-0.77
-0.17
0.03
-0.15
-0.46
-0.72
-0.77
-0.62
-0.33
0.01
0.31
0.51
0.60
0.57
0.48
0.47
0.62
1.01
1.60
2.30
2.92
3.24
3.12
2.51
1.52
0.41
-0.51
-1.03
-1.09
-0.81
-0.42
-0.12
0.01
-0.06
-0.36
-0.93
-1.75
-2.68
-3.46
-3.79
-3.50
-2.68
-1.63
-0.67
0.01
0.43
0.76
1.17
1.67
2.17
2.52
2.65
2.57
2.30
1.88
1.29
0.47
-0.54
-1.67
-2.72
-3.45
-3.62
-3.07
-1.92
-0.47
0.82
1.55
1.58
1.04
0.36
-0.00
0.20
0.98
2.06
3.00
3.45
3.20
2.26
0.88
-0.49
-1.38
-1.50
-0.88
0.10
0.90
1.17
0.82
0.12
-0.58
-1.02
-1.17
-1.22
-1.31
-1.44
-1.45
-1.19
-0.66
-0.06
0.34
0.38
0.09
-0.28
-0.44
-0.27
0.18
0.70
1.03
1.06
0.82
0.48
0.24
0.20
0.29
0.26
-0.06
-0.70
-1.44
-1.85
-1.55
-0.43
1.18
2.66
3.35
2.88
1.31
-0.82
-2.74
-3.80
-3.68
-2.46
-0.61
1.24
2.50
2.82
2.22
1.04
-0.20
-1.05
-1.29
-1.00
-0.44
0.02
0.14
-0.14
-0.68
-1.22
-1.46
-1.25
-0.68
0.01
0.51
0.64
0.45
0.15
-0.01
0.09
0.31
0.41
0.24
-0.18
-0.64
-0.93
-0.98
-0.88
-0.74
-0.59
-0.33
0.21
1.05
2.02
2.85
3.30
3.28
2.87
2.22
1.44
0.61
-0.27
-1.13
-1.80
-2.06
-1.79
-1.04
-0.12
0.60
0.84
0.61
0.09
-0.42
-0.71
-0.78
-0.71
-0.66
-0.65
-0.61
-0.47
-0.28
-0.22
-0.56
-1.35
-2.40
-3.27
-3.53
-3.00
-1.84
-0.42
0.85
1.67
1.97
1.85
1.45
0.93
0.42
0.02
-0.20
-0.25
-0.12
0.13
0.49
0.96
1.51
2.01
2.28
2.17
1.63
0.85
0.08
-0.47
-0.72
-0.80
-0.83
-0.90
-0.95
-0.87
-0.61
-0.19
0.26
0.63
0.87
0.97
1.00
0.97
0.89
0.74
0.56
0.35
0.12
-0.20
-0.66
-1.30
-2.02
-2.66
-3.03
-3.06
-2.74
-2.20
-1.56
-0.87
-0.18
0.49
1.09
1.54
1.79
1.80
1.61
1.27
0.80
0.25
-0.37
-0.99
-1.44
-1.55
-1.19
-0.39
0.61
1.48
1.95
1.92
1.55
1.13
0.92
1.01
1.31
1.55
1.48
1.00
0.25
-0.54
-1.07
-1.19
-0.95
-0.53
-0.14
0.09
0.23
0.37
0.60
0.87
0.91
0.53
-0.33
-1.44
-2.34
-2.65
-2.25
-1.33
-0.25
0.56
0.88
0.75
0.35
-0.04
-0.23
-0.14
0.20
0.70
1.15
1.38
1.29
0.92
0.37
-0.16
-0.53
-0.72
-0.75
-0.65
-0.39
0.08
0.77
1.59
2.35
2.83
2.82
2.30
1.38
0.29
-0.70
-1.39
-1.65
-1.50
-1.08
-0.60
-0.26
-0.19
-0.38
-0.73
-1.09
-1.36
-1.53
-1.69
-1.88
-2.13
-2.37
-2.50
-2.45
-2.20
-1.76
-1.17
-0.43
0.43
1.33
2.09
2.52
2.51
2.08
1.45
0.83
0.41
0.19
0.11
0.09
0.11
0.26
0.63
1.23
1.89
2.37
2.48
2.21
1.73
1.28
0.96
0.71
0.35
-0.27
-1.08
-1.76
-1.96
-1.51
-0.61
0.32
0.83
0.68
0.02
-0.75
-1.18
-1.11
-0.67
-0.23
-0.17
-0.63
-1.47
-2.25
-2.54
-2.08
-0.97
0.37
1.44
1.87
1.63
0.92
0.17
-0.36
-0.58
-0.64
-0.73
-0.94
-1.21
-1.33
-1.18
-0.79
-0.31
0.02
0.10
-0.03
-0.22
-0.28
-0.12
0.16
0.39
0.41
0.18
-0.14
-0.38
-0.40
-0.16
0.26
0.78
1.35
1.93
2.49
2.95
3.13
2.89
2.18
1.10
-0.07
-1.02
-1.51
-1.53
-1.23
-0.93
-0.90
-1.20
-1.69
-1.99
-1.78
-1.02
0.07
1.00
1.37
1.04
0.23
-0.68
-1.31
-1.53
-1.44
-1.29
-1.31
-1.57
-1.93
-2.14
-1.93
-1.16
0.09
1.56
2.81
3.48
3.35
2.52
1.30
0.06
-0.85
-1.30
-1.24
-0.79
-0.08
0.67
1.35
1.84
2.12
2.26
2.31
2.30
2.19
1.92
1.40
0.66
-0.19
-0.96
-1.47
-1.63
-1.54
-1.42
-1.44
-1.70
-2.10
-2.42
-2.43
-1.96
-1.12
-0.16
0.53
0.70
0.35
-0.23
-0.58
-0.39
0.42
1.53
2.40
2.53
1.66
-0.02
-1.97
-3.54
-4.25
-3.93
-2.76
-1.14
0.48
1.75
2.50
2.73
2.58
2.24
1.91
1.67
1.48
1.17
0.59
-0.29
-1.26
-1.97
-2.09
-1.52
-0.53
0.42
0.88
0.75
0.31
0.06
0.35
1.16
2.08
2.62
2.49
1.77
0.86
0.11
-0.31
-0.56
-0.90
-1.51
-2.33
-3.02
-3.22
-2.72
-1.61
-0.25
0.90
1.53
1.58
1.25
0.86
0.63
0.59
0.54
0.31
-0.10
-0.50
-0.63
-0.36
0.20
0.74
0.96
0.74
0.21
-0.37
-0.71
-0.71
-0.40
0.06
0.43
0.52
0.26
-0.32
-1.05
-1.68
-1.93
-1.65
-0.81
0.42
1.74
2.84
3.43
3.40
2.75
1.67
0.44
-0.67
-1.46
-1.91
-2.11
-2.13
-2.01
-1.72
-1.24
-0.65
-0.13
0.17
0.15
-0.13
-0.53
-0.86
-1.02
-0.98
-0.75
-0.41
0.01
0.43
0.76
0.93
0.90
0.76
0.65
0.65
0.82
1.11
1.37
1.47
1.31
0.92
0.45
0.08
-0.06
0.01
0.11
0.01
-0.48
-1.28
-2.12
-2.62
-2.53
-1.87
-0.91
-0.09
0.29
0.15
-0.28
-0.71
-0.86
-0.62
-0.14
0.34
0.58
0.53
0.30
0.12
0.17
0.50
1.00
1.47
1.73
1.68
1.33
0.77
0.11
-0.50
-0.90
-0.97
-0.71
-0.21
0.34
0.77
0.97
0.96
0.85
0.76
0.73
0.71
0.53
0.09
-0.63
-1.46
-2.17
-2.51
-2.34
-1.71
-0.82
0.05
0.68
1.02
1.20
1.37
1.59
1.73
1.58
0.98
0.06
-0.88
-1.46
-1.45
-0.95
-0.32
0.06
0.00
-0.39
-0.78
-0.83
-0.42
0.34
1.11
1.52
1.42
0.87
0.10
-0.60
-1.03
-1.11
-0.90
-0.56
-0.25
-0.07
-0.06
-0.15
-0.30
-0.50
-0.76
-1.07
-1.32
-1.30
-0.93
-0.23
0.54
1.07
1.16
0.82
0.24
-0.26
-0.47
-0.38
-0.07
0.26
0.47
0.52
0.44
0.30
0.22
0.25
0.39
0.61
0.80
0.89
0.87
0.76
0.62
0.49
0.39
0.36
0.43
0.57
0.70
0.65
0.27
-0.40
-1.12
-1.56
-1.45
-0.72
0.34
1.29
1.77
1.66
1.07
0.30
-0.36
-0.78
-0.91
-0.85
-0.63
-0.25
0.28
0.96
1.59
1.96
1.82
1.18
0.21
-0.67
-1.07
-0.83
-0.08
0.82
1.46
1.54
1.01
0.09
-0.79
-1.25
-1.05
-0.24
0.85
1.76
2.16
1.93
1.27
0.57
0.21
0.32
0.76
1.17
1.18
0.72
-0.03
-0.62
-0.56
0.45
2.32
4.59
6.50
7.41
7.04
5.75
4.41
4.09
5.54
8.78
12.94
16.63
18.55
18.28
16.48
14.80
15.11
18.55
24.88
32.43
38.90
42.39
42.58
40.53
38.60
39.39
44.75
55.12
68.96
83.33
94.41
98.56
93.44
79.77
61.99
47.76
45.49
61.00
94.89
141.62
190.58
228.40
242.91
226.93
180.69
111.75
32.55
-43.55
-106.54
-149.44
-171.10
-175.74
-170.43
-161.41
-151.73
-141.86
-131.50
-121.32
-112.66
-106.54
-102.66
-98.95
-92.74
-82.58
-69.08
-54.62
-42.32
-34.35
-31.40
-32.39
-35.09
-37.16
-37.24
-35.49
-33.28
-32.53
-34.64
-40.16
-48.54
-58.55
-68.82
-78.51
-87.65
-96.91
-107.39
-119.98
-135.10
-152.67
-172.20
-193.03
-214.65
-236.76
-259.05
-281.19
-302.50
-321.88
-337.84
-348.64
-352.58
-348.28
-335.89
-315.20
-286.49
-250.73
-209.43
-164.56
-118.36
-73.18
-31.29
5.42
35.83
59.58
77.24
90.27
100.62
110.41
121.46
134.93
151.35
170.78
192.89
217.19
243.14
270.10
296.96
322.11
343.59
359.55
369.10
372.27
370.12
364.32
356.59
348.44
341.57
338.13
340.69
351.03
368.45
388.34
402.65
402.08
379.71
333.57
266.78
185.85
98.11
10.13
-71.99
-141.49
-190.68
-213.07
-205.78
-172.83
-125.20
-77.64
-42.87
-27.18
-28.97
-41.30
-56.13
-68.50
-78.39
-89.21
-104.51
-125.05
-148.12
-169.29
-185.30
-195.39
-200.65
-202.11
-198.90
-188.02
-165.95
-130.83
-84.07
-30.57
23.63
73.63
116.74
152.01
178.90
196.46
203.41
201.01
190.37
172.40
147.61
115.72
75.97
27.48
-30.25
-97.48
-172.69
-252.29
-329.36
-393.42
-432.70
-438.17
-407.86
-348.68
-274.99
-203.54
-148.06
-114.76
-101.61
-101.89
-108.59
-116.69
-121.96
-118.94
-100.40
-60.02
3.30
83.21
166.76
239.15
288.40
311.13
313.18
305.39
297.53
293.38
290.86
284.44
268.87
241.93
205.66
165.62
129.28
106.35
100.75
111.75
134.27
160.52
182.65
195.29
196.88
189.07
174.88
156.60
135.83
113.69
90.34
67.44
46.31
28.31
13.40
-0.06
-14.87
-33.22
-55.69
-81.03
-106.55
-129.23
-146.75
-158.35
-164.78
-167.97
-169.79
-171.46
-173.26
-174.68
-174.86
-173.19
-169.73
-165.23
-160.91
-157.77
-156.36
-156.74
-158.43
-160.60
-162.43
-163.24
-162.50
-159.76
-154.45
-145.80
-133.03
-116.25
-95.02
-69.24
-39.40
-6.65
27.28
60.24
89.96
114.22
131.07
139.15
137.59
126.14
105.19
75.77
39.46
-1.76
-45.80
-90.70
-134.56
-175.85
-213.39
-246.25
-273.76
-296.03
-313.10
-325.07
-332.19
-334.66
-332.83
-327.03
-317.53
-304.57
-288.42
-269.37
-247.88
-224.57
-200.16
-175.34
-150.67
-126.37
-102.38
-78.47
-54.26
-29.50
-4.12
21.75
47.90
74.10
100.33
126.67
153.22
179.96
206.60
232.56
257.02
279.12
297.67
312.03
322.32
329.58
335.82
343.46
354.38
368.85
384.96
398.97
406.58
404.48
391.55
369.16
340.53
309.59
279.83
253.57
231.61
213.07
195.53
175.67
150.45
118.54
81.30
42.79
8.56
-16.07
-27.79
-26.16
-13.47
6.16
28.02
48.00
63.48
73.07
77.44
78.74
79.62
82.17
87.25
94.30
101.71
107.45
109.54
106.51
97.49
82.24
61.29
36.01
8.34
-19.57
-45.81
-69.17
-89.12
-105.83
-119.79
-131.53
-141.28
-148.97
-154.35
-157.18
-157.49
-155.58
-152.01
-147.46
-142.52
-137.52
-132.53
-127.46
-122.09
-116.34
-110.20
-103.84
-97.47
-91.34
-85.57
-80.21
-75.19
-70.41
-65.77
-61.22
-56.76
-52.43
-48.30
-44.42
-40.80
-37.45
-34.35
-31.46
-28.77
-26.27
-23.95
-21.79
-19.80
-17.95
-16.27
-14.73
-13.34
-12.04
-10.84
-9.76
-8.80
-7.94
-7.18
-6.51
-5.92
-5.40
-4.94
-4.54
-4.19
-3.86
-3.54
-3.23
-2.92
-2.67
-2.47
-2.35
-2.29
-2.24
-2.16
-1.99
-1.74
-1.46
-1.19
-1.00
-0.93
-0.96
-1.04
-1.08
-1.03
-0.87
-0.64
-0.44
-0.33
-0.37
-0.52
-0.69
-0.69
-0.43
0.08
0.71
1.22
1.39
1.12
0.55
-0.03
-0.24
0.18
1.25
2.67
3.89
4.47
4.16
3.14
1.95
1.30
1.71
3.25
5.44
7.42
8.40
7.96
6.36
4.40
3.11
3.06
4.44
6.83
9.55
11.87
13.11
12.34
8.37
0.43
-10.71
-22.14
-29.46
-28.62
-18.40
-1.80
14.86
24.47
22.32
8.29
-13.13
-35.35
-52.32
-60.22
-58.41
-47.94
-30.79
-9.42
12.85
32.20
45.07
49.62
46.28
37.31
26.06
16.16
10.52
10.85
17.28
27.50
37.18
42.02
40.33
34.53
29.66
30.12
36.11
42.85
43.19
32.54
12.09
-11.05
-27.61
-31.75
-23.23
-7.98
6.84
16.74
22.04
25.39
29.21
33.94
37.63
37.72
32.38
21.75
7.80
-6.68
-19.70
-30.53
-38.96
-46.92
-56.01
-66.95
-79.25
-91.08
-100.75
-107.24
-110.45
-111.16
-110.88
-110.69
-111.00
-112.56
-113.13
-111.10
-105.45
-95.81
-82.44
-66.33
-48.55
-29.32
-10.42
7.52
23.88
38.13
49.81
58.59
64.24
66.91
67.07
65.25
62.46
59.31
56.19
53.26
50.46
47.63
44.61
41.42
38.08
34.96
32.35
30.30
28.69
27.16
25.30
22.78
19.59
16.08
13.01
11.01
10.39
10.80
11.43
11.26
9.54
6.21
2.08
-1.48
-3.18
-2.44
0.21
3.27
4.89
3.77
-0.18
-5.63
-10.30
-12.34
-10.75
-6.25
-0.80
3.32
4.45
1.86
-4.08
-12.04
-19.87
-24.26
-21.24
-7.47
17.70
50.45
82.82
104.92
109.00
92.92
61.39
23.85
-9.83
-32.48
-42.86
-43.96
-40.14
-34.45
-27.73
-19.41
-9.36
1.20
9.88
13.89
12.25
6.63
1.04
0.15
7.64
23.97
46.17
69.29
87.90
98.37
99.91
93.81
81.91
65.33
44.07
18.16
-11.01
-39.96
-64.09
-79.43
-84.43
-80.63
-71.91
-62.76
-56.51
-54.45
-55.51
-57.94
-59.92
-60.56
-59.93
-58.33
-56.01
-53.09
-49.94
-47.75
-47.75
-50.39
-54.57
-57.63
-56.47
-49.39
-37.12
-22.57
-9.61
-0.96
3.10
4.49
5.93
9.51
15.79
24.13
33.47
42.99
52.38
61.35
69.17
74.56
76.37
73.58
65.92
54.65
41.39
27.84
15.31
4.45
-4.67
-12.32
-18.76
-24.01
-27.81
-30.02
-30.78
-30.48
-29.93
-29.81
-30.39
-31.40
-31.91
-30.69
-26.74
-19.56
-9.24
3.67
18.40
34.28
50.84
67.60
84.29
100.63
116.62
132.19
146.44
156.85
159.25
149.00
123.06
82.14
31.15
-21.96
-68.77
-103.56
-125.38
-137.27
-143.76
-148.47
-153.02
-157.69
-162.61
-168.13
-174.28
-179.44
-179.88
-170.93
-150.41
-117.99
-77.95
-37.13
-1.61
25.48
44.84
59.70
73.58
88.25
103.06
116.67
127.55
135.79
141.00
143.13
141.79
136.36
126.34
111.83
93.85
74.04
53.70
35.02
18.91
5.27
-6.50
-17.24
-27.24
-36.19
-43.40
-48.09
-49.97
-49.55
-47.97
-46.52
-46.26
-47.54
-49.78
-51.94
-52.75
-51.39
-47.74
-42.19
-35.20
-26.92
-17.21
-5.66
7.98
23.79
41.73
61.82
83.66
106.64
128.38
144.72
150.73
142.87
121.19
90.01
56.75
28.42
9.51
0.21
-2.69
-3.91
-7.36
-15.16
-27.82
-45.19
-66.34
-89.32
-110.09
-122.98
-122.63
-106.86
-78.34
-44.11
-13.16
7.99
17.37
17.94
15.57
16.16
23.23
36.76
53.52
68.19
75.07
70.05
52.12
23.94
-9.09
-40.53
-65.80
-83.40
-94.20
-101.86
-109.52
-118.65
-128.91
-138.56
-144.94
-145.13
-136.55
-118.16
-91.44
-60.27
-30.07
-5.11
12.22
22.32
27.08
28.75
28.50
26.47
22.70
17.84
13.32
10.46
9.81
10.76
12.30
13.48
14.09
15.27
18.78
26.15
37.96
53.32
70.19
85.95
97.90
104.18
104.22
98.46
87.84
73.51
56.32
36.08
14.40
-7.56
-28.43
-46.50
-59.91
-67.72
-69.38
-65.22
-56.19
-43.90
-30.46
-17.70
-6.87
1.25
6.10
7.40
4.80
-1.28
-9.85
-19.88
-29.67
-37.27
-41.14
-40.77
-37.11
-32.39
-28.64
-27.65
-30.48
-36.46
-43.62
-49.33
-51.60
-49.91
-45.44
-39.22
-32.20
-24.88
-15.93
-3.01
16.53
44.78
83.04
123.85
161.78
191.47
206.89
202.95
176.99
131.81
77.22
27.67
-3.13
-7.63
10.85
40.12
66.25
79.90
79.90
71.68
62.53
57.75
58.96
66.59
75.06
79.81
76.67
61.83
33.02
-8.55
-56.11
-98.38
-123.83
-125.33
-102.19
-61.34
-14.14
28.24
54.65
61.95
54.53
39.32
21.64
4.45
-11.67
-26.47
-39.00
-47.38
-49.45
-44.34
-33.93
-20.83
-6.40
8.86
24.96
41.00
54.21
60.74
56.56
39.61
9.72
-25.22
-55.30
-73.35
-77.61
-71.34
-59.47
-46.14
-33.37
-21.43
-9.90
0.54
8.37
12.41
12.41
10.02
7.59
7.04
9.10
12.71
15.24
13.59
5.35
-10.80
-33.55
-59.81
-85.85
-108.57
-126.22
-138.37
-145.60
-149.44
-152.86
-158.10
-166.08
-175.83
-184.32
-187.11
-179.15
-157.20
-116.50
-60.24
4.28
68.72
126.44
174.02
206.03
218.84
213.33
194.26
166.46
134.37
101.92
72.73
49.56
33.27
23.57
18.76
16.12
12.42
6.37
-1.28
-8.45
-13.06
-14.32
-12.50
-9.08
-5.95
-5.10
-6.58
-8.56
-8.17
-2.59
9.99
30.54
58.49
91.07
121.50
142.43
147.60
134.27
105.04
67.33
31.05
4.28
-9.98
-14.32
-14.67
-16.16
-20.97
-28.38
-36.67
-44.73
-53.40
-65.03
-80.60
-100.33
-122.99
-146.57
-168.82
-187.64
-200.56
-204.56
-196.90
-176.37
-144.92
-107.87
-72.19
-43.91
-25.87
-17.03
-13.63
-12.11
-9.87
-6.17
-1.19
5.09
13.22
23.74
36.39
49.52
60.36
66.68
66.92
61.16
51.22
39.71
29.08
20.94
15.57
11.88
9.12
6.52
3.82
1.86
1.84
4.80
11.37
21.45
34.20
49.76
68.68
89.30
111.63
136.32
164.39
197.03
235.20
271.65
299.84
314.38
312.37
293.65
259.35
211.30
152.81
89.09
26.50
-27.51
-67.47
-91.39
-100.57
-98.79
-90.93
-80.84
-70.65
-61.64
-53.61
-46.53
-40.70
-36.62
-33.97
-32.91
-33.15
-33.69
-34.05
-33.35
-31.24
-27.82
-23.27
-17.73
-12.82
-9.71
-8.66
-9.99
-13.51
-19.32
-27.86
-39.61
-54.91
-76.08
-105.34
-139.40
-175.30
-209.94
-240.96
-267.03
-287.61
-290.58
-270.05
-227.98
-173.24
-116.74
-65.92
-23.84
9.36
35.02
54.90
68.78
76.79
80.18
80.72
80.47
80.92
82.65
85.68
89.77
93.19
94.74
94.41
93.00
91.75
91.60
92.71
94.82
97.54
99.48
99.63
97.77
94.38
90.35
86.56
83.20
80.41
78.29
76.53
74.95
73.72
73.32
74.27
77.11
81.42
86.78
92.83
99.02
104.91
110.27
115.14
119.72
124.43
128.73
132.33
135.03
136.07
134.81
130.81
123.41
110.86
97.34
83.93
71.30
59.90
49.57
40.29
32.40
26.50
23.10
22.56
24.17
27.46
32.10
36.63
40.18
42.98
45.89
49.48
53.80
57.79
60.48
61.13
55.88
42.67
22.70
-0.63
-24.32
-46.72
-67.51
-86.47
-103.38
-124.68
-153.82
-188.19
-221.57
-249.24
-269.81
-284.24
-293.95
-300.06
-314.03
-341.99
-380.17
-418.72
-450.07
-471.96
-485.69
-493.52
-497.57
-513.43
-549.95
-603.15
-661.18
-715.04
-762.35
-804.86
-845.18
-797.15
-629.19
-382.17
-132.71
68.92
212.15
307.24
369.08
410.53
440.44
450.26
435.44
402.92
367.27
340.10
325.91
323.56
329.26
338.08
335.20
312.73
274.85
233.37
198.13
173.23
158.24
151.10
149.11
143.50
129.14
107.28
83.23
60.99
42.63
27.24
17.09
13.41
13.47
15.01
17.77
22.63
29.00
35.03
38.42
38.39
36.02
33.52
34.43
41.81
57.58
76.58
91.79
97.27
91.36
76.66
58.49
41.98
29.73
21.35
14.44
7.43
0.06
-6.46
-10.77
-12.26
-11.52
-10.15
-10.01
-12.61
-17.88
-24.83
-31.54
-36.08
-37.01
-33.99
-27.62
-19.28
-11.13
-3.54
3.55
10.94
19.70
30.61
43.94
59.92
78.85
100.65
124.41
147.21
164.38
170.73
162.78
140.68
109.09
75.10
45.13
22.35
5.66
-8.78
-24.90
-44.53
-66.91
-89.04
-107.79
-121.05
-128.06
-128.97
-123.88
-112.45
-91.54
-62.24
-26.59
12.25
51.02
86.59
116.51
139.40
155.09
164.05
167.17
163.43
151.07
130.94
106.78
84.16
67.77
58.64
52.76
42.51
21.04
-15.37
-63.50
-115.84
-164.33
-203.58
-231.41
-247.37
-251.17
-232.83
-193.46
-139.76
-82.60
-33.66
-1.55
11.15
7.73
-5.25
-20.86
-35.48
-46.74
-53.87
-57.21
-57.91
-57.69
-58.33
-61.27
-66.97
-75.64
-85.25
-93.24
-97.31
-95.66
-88.27
-74.43
-55.60
-35.70
-20.45
-13.79
-15.89
-22.57
-27.28
-24.26
-12.13
4.60
17.83
19.73
7.20
-17.31
-47.51
-76.57
-99.31
-113.16
-117.66
-112.69
-97.51
-70.85
-32.07
18.22
74.22
128.78
175.56
210.41
232.05
241.95
243.18
238.90
231.38
221.51
209.54
195.45
179.37
161.84
144.25
128.23
115.08
105.35
98.52
93.53
89.09
84.04
77.63
70.32
63.30
57.98
55.38
55.63
58.16
61.65
64.74
66.06
65.50
63.86
62.48
62.79
66.05
73.30
84.42
98.80
110.68
113.55
101.81
73.17
30.37
-19.46
-67.21
-105.34
-130.88
-145.95
-155.06
-162.84
-172.02
-182.04
-192.72
-202.91
-210.70
-213.27
-207.57
-191.00
-163.54
-128.57
-91.97
-60.16
-37.51
-25.21
-21.58
-23.92
-29.40
-35.89
-41.80
-45.81
-46.84
-44.66
-40.40
-35.96
-33.45
-33.66
-36.20
-38.48
-37.35
-29.95
-14.33
9.70
39.78
70.73
95.81
108.21
104.83
87.73
63.66
41.44
28.16
26.14
32.43
41.42
47.89
49.63
47.43
43.73
40.39
37.75
34.60
28.51
18.30
4.35
-11.60
-27.25
-40.82
-51.80
-60.93
-69.91
-80.56
-93.79
-109.36
-126.17
-142.86
-158.00
-169.52
-174.21
-167.77
-146.14
-107.74
-55.30
4.10
61.02
106.76
136.35
149.23
148.32
137.65
120.18
96.98
68.46
35.87
1.97
-28.94
-52.71
-66.28
-68.71
-61.09
-46.16
-26.90
-5.68
15.03
34.88
54.19
73.53
92.57
109.76
122.64
129.00
127.94
120.45
109.53
98.69
91.18
88.83
91.77
98.83
108.31
117.42
122.05
118.90
102.37
71.03
29.01
-14.43
-48.21
-64.28
-61.53
-46.33
-29.13
-19.54
-21.09
-30.96
-43.09
-52.51
-58.00
-61.93
-67.45
-75.71
-85.02
-91.62
-92.02
-85.34
-73.67
-60.89
-51.14
-46.09
-44.69
-43.66
-39.03
-28.26
-11.09
10.72
34.65
58.46
80.52
98.37
109.79
112.34
104.42
86.89
63.53
39.81
20.64
8.58
2.66
0.22
-1.78
-5.59
-12.40
-22.59
-36.57
-54.82
-78.00
-105.79
-135.39
-161.64
-177.98
-178.76
-162.08
-131.34
-94.32
-60.48
-37.15
-26.70
-26.36
-30.40
-33.24
-31.74
-25.79
-16.92
-6.71
4.07
15.50
27.69
39.84
50.34
57.32
59.27
56.03
48.88
39.56
29.83
20.83
12.82
5.45
-1.79
-9.11
-15.94
-20.99
-23.50
-23.12
-19.87
-14.04
-5.58
6.00
21.43
41.16
65.08
90.85
114.83
133.27
143.43
144.67
138.59
128.13
112.63
94.90
75.78
54.38
29.39
0.51
-30.30
-58.29
-79.29
-89.76
-87.45
-73.28
-49.49
-19.47
12.37
39.26
53.51
49.48
27.65
-3.42
-30.42
-40.00
-26.08
6.01
41.88
65.74
68.55
52.32
28.90
8.08
-5.55
-14.38
-24.48
-39.58
-57.00
-68.34
-64.06
-39.50
-0.05
42.50
75.74
91.94
90.18
74.49
50.42
22.79
-4.67
-28.62
-44.75
-49.21
-40.75
-21.56
3.40
28.32
48.35
60.24
62.29
54.35
37.61
14.51
-11.66
-38.04
-63.03
-86.60
-110.15
-133.29
-153.97
-169.02
-175.45
-171.96
-159.28
-139.63
-115.92
-91.18
-68.80
-52.99
-48.03
-56.46
-77.47
-105.89
-132.88
-148.60
-145.84
-122.89
-84.17
-38.13
6.68
45.07
76.57
104.36
131.55
160.41
190.89
219.98
242.51
252.75
246.15
221.16
180.30
130.06
79.34
36.13
5.00
-13.78
-23.09
-26.57
-26.75
-24.62
-20.43
-14.81
-9.49
-6.64
-7.57
-11.79
-17.26
-21.43
-22.33
-19.67
-14.63
-9.36
-5.88
-5.19
-6.90
-9.59
-11.53
-11.46
-9.12
-5.16
-0.88
2.51
4.32
4.66
4.27
4.08
4.84
6.85
9.94
13.63
17.43
20.97
24.22
27.26
30.25
33.09
35.55
37.16
37.42
35.92
32.48
27.22
20.49
12.84
4.83
-2.96
-10.09
-16.22
-21.19
-24.95
-27.57
-29.19
-30.02
-30.23
-29.95
-29.26
-28.18
-26.67
-24.75
-22.45
-19.81
-16.92
-13.86
-10.72
-7.57
-4.47
-1.39
1.53
4.27
6.89
9.45
12.07
15.00
18.55
23.03
28.77
35.63
43.49
52.07
60.94
69.62
77.70
84.92
91.14
96.47
100.60
103.46
105.09
105.71
105.76
105.83
106.71
109.11
113.63
119.77
126.71
133.22
137.87
139.30
136.39
128.19
113.52
95.17
73.98
50.35
24.39
-3.79
-33.76
-64.61
-94.94
-123.09
-147.49
-167.84
-184.48
-198.46
-211.46
-225.40
-242.02
-262.10
-284.71
-306.80
-324.14
-331.99
-326.87
-307.95
-277.49
-240.06
-200.95
-164.60
-133.57
-108.56
-88.40
-70.94
-53.98
-36.29
-18.19
-1.57
10.89
16.98
15.94
9.00
-1.40
-12.70
-23.14
-31.94
-38.56
-42.05
-40.96
-34.02
-21.13
-3.72
16.01
36.54
58.18
82.95
112.90
148.03
185.07
218.11
240.77
248.75
241.24
220.74
191.67
158.69
125.75
95.94
71.58
54.14
43.78
38.97
36.72
33.66
27.24
16.42
1.93
-14.36
-30.17
-43.64
-53.62
-59.82
-62.33
-61.19
-56.13
-46.12
-29.73
-5.91
24.69
59.30
93.27
121.80
141.68
151.73
153.23
148.94
141.71
133.33
124.36
114.15
101.99
87.64
70.18
49.66
27.87
8.08
-6.53
-13.97
-15.15
-12.42
-8.40
-7.90
-14.11
-26.86
-43.02
-59.10
-72.69
-85.23
-98.97
-115.41
-138.66
-169.95
-205.17
-236.28
-256.04
-260.83
-254.60
-242.90
-229.95
-223.22
-227.86
-244.61
-271.20
-305.49
-345.62
-392.93
-444.67
-459.80
-409.93
-297.63
-154.87
-16.97
84.44
156.04
203.46
229.77
236.94
221.91
182.55
124.18
59.04
6.82
-15.04
-5.26
24.86
59.57
83.49
88.06
78.04
62.49
50.30
46.56
49.44
57.16
68.95
83.36
99.01
115.35
131.97
149.04
165.40
177.69
184.82
188.13
190.44
194.22
201.14
211.72
226.42
243.34
257.97
266.13
264.88
255.04
240.10
225.52
206.58
182.84
156.33
129.71
111.25
97.46
85.84
76.13
66.36
55.77
42.69
22.61
-9.50
-55.09
-107.18
-153.05
-184.84
-203.43
-213.94
-219.84
-220.24
-209.87
-184.15
-145.08
-101.82
-67.59
-54.22
-57.00
-63.09
-59.59
-40.01
-8.40
23.07
42.02
42.29
27.19
7.12
-8.17
-17.49
-23.99
-36.05
-61.23
-102.37
-157.77
-223.13
-293.58
-352.63
-385.76
-384.22
-349.81
-292.28
-224.55
-158.80
-103.74
-63.42
-37.48
-24.24
-21.21
-26.55
-37.87
-52.33
-68.01
-80.16
-84.65
-79.49
-66.56
-50.00
-34.51
-22.56
-14.27
-7.87
-0.62
9.83
24.74
43.39
64.36
82.15
93.75
97.98
95.40
87.87
77.68
67.02
56.98
47.58
37.94
27.48
15.91
3.62
-8.01
-16.96
-20.91
-18.26
-8.72
6.37
24.84
43.83
60.81
74.42
84.72
93.31
102.74
115.91
134.80
159.86
188.71
216.19
235.36
239.47
224.36
190.22
142.10
88.34
38.22
-1.12
-26.38
-38.29
-40.24
-36.25
-29.25
-20.11
-8.23
7.41
26.79
48.29
68.93
85.51
95.83
99.47
97.67
92.29
84.81
75.68
64.55
51.10
35.99
20.98
8.28
-0.43
-4.98
-6.84
-8.64
-13.07
-21.60
-33.64
-46.48
-56.26
-59.61
-55.43
-45.75
-35.36
-29.97
-33.84
-48.11
-70.58
-97.15
-123.66
-147.31
-166.78
-181.63
-191.50
-195.77
-193.81
-185.30
-170.22
-148.52
-120.09
-85.38
-46.49
-7.84
24.57
45.53
53.49
52.36
50.56
57.73
80.38
118.87
167.16
215.37
253.86
276.75
283.37
277.69
266.28
255.83
250.90
252.60
258.28
262.80
260.80
249.20
228.54
202.42
175.58
151.56
131.60
115.16
101.39
90.40
83.18
80.35
80.59
80.24
74.24
58.05
29.60
-9.68
-55.39
-101.59
-142.73
-175.36
-199.26
-216.98
-232.01
-246.34
-258.43
-263.52
-256.04
-233.24
-197.87
-158.35
-125.81
-109.79
-114.45
-137.39
-171.33
-207.75
-240.50
-267.59
-290.84
-313.80
-339.41
-368.57
-399.78
-429.62
-453.50
-466.24
-462.74
-439.05
-393.93
-330.69
-257.85
-187.64
-132.39
-100.23
-91.94
-100.84
-115.42
-123.68
-116.80
-91.05
-47.62
8.84
71.73
133.83
188.23
229.54
254.95
265.25
264.25
257.19
248.82
241.80
236.68
232.54
228.25
223.64
219.90
218.62
220.67
225.39
230.95
235.90
240.01
244.61
251.76
263.14
278.28
294.17
306.38
310.95
306.99
296.61
283.83
272.86
267.65
269.17
274.60
278.48
274.01
258.10
231.60
198.85
166.19
142.37
132.64
136.39
147.46
155.32
152.68
134.47
98.14
44.89
-15.51
-70.99
-111.47
-132.23
-136.94
-128.55
-110.95
-87.11
-56.26
-8.73
63.98
162.51
277.07
387.51
479.68
545.12
582.09
557.83
460.13
303.80
124.97
-17.32
-124.48
-210.33
-285.90
-360.08
-431.09
-488.56
-525.09
-540.62
-541.68
-536.25
-522.50
-496.99
-459.85
-415.65
-367.13
-316.94
-267.48
-220.74
-180.59
-145.03
-113.70
-87.61
-67.88
-52.14
-36.84
-19.31
0.81
20.02
36.64
45.48
44.95
36.72
26.39
20.44
23.07
34.40
49.80
63.67
70.22
66.42
52.43
32.02
10.82
-5.77
-13.83
-12.07
-1.57
14.00
30.14
42.44
47.65
45.01
36.06
24.84
16.37
14.00
17.22
21.84
21.33
9.49
-15.45
-49.37
-82.04
-100.61
-95.08
-62.96
-9.47
54.83
118.26
173.03
211.28
227.89
223.41
203.46
173.73
137.06
96.84
51.51
2.18
-48.16
-96.21
-140.59
-178.92
-210.30
-233.02
-244.04
-241.06
-224.22
-198.70
-173.28
-156.60
-152.90
-159.99
-169.34
-170.10
-154.90
-122.73
-79.65
-35.22
1.87
26.66
38.06
38.05
29.90
16.63
1.12
-13.97
-26.12
-33.25
-34.75
-32.06
-27.86
-24.90
-25.29
-29.88
-38.04
-47.41
-53.63
-51.82
-38.92
-15.89
11.22
33.44
42.80
36.53
18.45
-2.98
-19.29
-26.18
-24.67
-18.92
-12.30
-4.89
6.29
24.12
48.08
73.04
91.06
95.15
82.93
58.36
30.24
8.37
-1.05
1.67
10.23
16.29
14.50
5.63
-3.56
-4.14
10.30
40.34
80.34
121.16
153.59
170.98
169.91
149.61
111.50
59.80
1.95
-51.95
-91.68
-110.72
-109.03
-93.23
-74.04
-62.13
-64.24
-81.17
-108.43
-137.98
-160.93
-169.44
-158.07
-124.60
-70.67
-1.81
73.22
143.84
199.74
233.03
240.14
222.28
184.48
133.41
75.23
14.59
-45.08
-99.85
-144.29
-171.02
-173.61
-150.22
-105.91
-51.50
1.46
44.99
77.11
99.56
115.27
124.94
126.68
118.08
99.49
76.23
55.50
42.59
36.37
31.62
20.54
-3.80
-45.72
-104.90
-174.10
-241.73
-294.71
-323.78
-322.30
-289.19
-228.99
-151.59
-68.62
11.92
84.72
146.33
191.62
219.48
232.51
236.96
239.40
231.92
209.84
173.67
147.54
138.82
148.76
168.68
193.89
219.68
242.56
263.00
283.44
304.71
322.41
332.60
332.05
319.53
293.30
254.05
207.67
163.96
129.89
106.39
92.12
84.22
79.50
71.87
56.84
34.84
12.18
-7.35
-23.98
-39.23
-54.45
-70.59
-92.27
-123.57
-165.29
-211.62
-258.51
-302.16
-337.40
-357.48
-338.37
-269.75
-163.26
-68.28
-4.48
22.71
21.64
-0.05
-32.98
-67.87
-100.47
-128.12
-147.58
-151.57
-138.18
-109.52
-70.95
-27.98
14.13
48.91
72.14
83.54
89.04
92.81
97.42
103.64
111.91
122.10
132.35
141.29
149.27
159.97
175.64
197.25
224.30
255.55
288.61
319.29
343.11
356.42
357.82
346.51
322.79
287.70
243.29
192.23
137.54
83.00
32.87
-8.63
-39.24
-59.17
-71.03
-78.71
-86.00
-95.57
-108.50
-124.72
-143.47
-163.83
-184.72
-205.03
-223.78
-240.38
-255.06
-268.80
-283.34
-300.66
-322.71
-350.47
-382.81
-415.52
-441.46
-452.59
-443.11
-412.70
-367.46
-318.13
-275.86
-248.02
-236.20
-237.15
-245.89
-258.45
-272.65
-286.96
-298.84
-304.33
-299.24
-281.63
-253.32
-219.50
-186.67
-159.91
-141.14
-129.20
-121.37
-115.11
-109.32
-104.42
-101.55
-101.70
-104.99
-110.69
-117.44
-123.73
-128.14
-129.41
-126.49
-118.45
-104.46
-83.77
-55.91
-20.85
20.64
66.64
114.00
158.56
195.93
222.55
236.67
238.66
230.84
216.74
200.08
184.09
170.76
160.63
152.78
145.21
135.41
121.44
102.84
81.26
60.16
43.46
34.06
32.54
37.06
43.95
49.09
49.10
42.25
28.49
9.02
-14.30
-39.40
-64.18
-86.48
-104.32
-116.46
-123.18
-126.36
-129.32
-135.52
-147.30
-165.35
-188.80
-216.39
-247.47
-281.96
-319.22
-356.80
-390.07
-413.45
-422.62
-416.24
-396.32
-366.80
-331.39
-291.92
-248.33
-199.72
-145.74
-87.48
-27.08
33.03
91.08
146.41
199.71
252.69
307.35
364.62
422.71
476.49
518.31
540.30
537.39
509.41
461.24
401.38
339.26
283.03
238.48
208.86
195.24
196.67
210.13
230.68
252.24
269.12
277.78
277.96
272.41
265.49
261.32
261.79
265.82
269.68
268.59
258.97
240.09
214.54
187.08
162.60
144.13
131.88
123.82
117.05
109.40
100.30
90.44
80.95
72.32
64.00
54.93
44.43
32.98
22.15
13.78
9.01
7.61
8.08
8.38
6.86
2.78
-3.47
-10.76
-17.76
-23.46
-27.48
-30.27
-32.82
-36.16
-40.85
-46.56
-52.02
-55.52
-55.70
-52.12
-45.68
-38.21
-31.71
-27.61
-26.28
-27.00
-28.38
-29.19
-28.93
-28.08
-27.63
-28.41
-30.57
-33.62
-36.70
-39.06
-40.39
-40.84
-40.78
-40.29
-39.02
-36.48
-32.76
-28.51
-24.59
-21.70
-19.92
-18.81
-17.46
-14.93
-10.75
-6.21
-3.17
-2.69
-4.47
-7.13
-9.21
-9.68
-8.12
-4.49
-1.06
0.11
-1.43
-4.13
-5.74
-4.93
-1.40
4.44
11.77
15.97
12.61
-0.07
-19.53
-40.98
-60.61
-77.05
-91.68
-107.82
-133.79
-176.40
-237.54
-313.26
-397.34
-485.09
-573.67
-660.24
-711.10
-698.65
-617.80
-493.07
-360.74
-248.54
-168.84
-120.98
-96.32
-83.52
-80.27
-84.46
-94.31
-105.34
-111.26
-106.85
-89.38
-58.65
-16.84
29.02
68.67
95.09
106.90
107.03
99.81
89.44
79.72
73.45
69.93
67.42
65.67
66.70
73.30
87.04
107.51
133.16
160.91
185.53
201.16
205.04
197.85
182.80
164.17
146.52
136.19
137.62
150.80
169.24
186.28
195.17
190.35
168.13
127.79
75.89
19.55
-36.39
-93.15
-145.28
-183.50
-197.27
-179.66
-128.98
-42.09
77.42
218.20
357.60
482.23
584.59
661.68
711.87
736.85
751.61
771.22
803.98
840.96
878.68
913.65
941.29
953.32
885.24
707.74
440.21
190.30
-16.15
-180.54
-322.19
-445.17
-549.61
-633.28
-684.33
-696.16
-673.23
-638.15
-604.47
-578.43
-559.23
-544.44
-530.74
-508.96
-475.28
-434.24
-402.61
-387.53
-388.75
-400.57
-417.39
-434.34
-443.57
-440.08
-423.25
-399.88
-371.77
-338.41
-298.77
-254.49
-209.26
-165.87
-127.92
-99.54
-85.66
-85.18
-92.33
-98.55
-95.70
-77.75
-41.30
12.75
79.01
147.99
210.43
259.37
292.08
310.52
320.48
329.11
341.93
360.74
383.26
404.81
420.97
429.75
432.37
432.03
431.76
432.81
434.10
433.22
428.13
418.57
406.48
394.87
386.21
380.98
377.45
372.46
362.61
345.40
319.26
283.10
235.65
175.72
103.25
20.62
-66.71
-151.21
-225.33
-284.02
-326.23
-354.77
-374.61
-390.54
-405.37
-419.32
-430.80
-437.70
-438.65
-433.42
-422.72
-407.56
-388.95
-367.76
-344.89
-321.45
-298.82
-278.35
-260.91
-246.66
-235.16
-225.75
-218.07
-212.36
-209.33
-209.64
-212.95
-217.48
-219.91
-216.16
-202.60
-177.40
-141.26
-97.37
-50.41
-5.07
35.28
69.22
97.10
120.21
139.79
156.45
169.94
179.52
184.60
185.25
182.52
178.22
174.28
171.95
171.21
170.75
168.77
164.14
157.39
150.73
147.21
149.16
157.26
170.37
186.14
201.96
215.31
223.44
222.76
209.02
178.71
131.60
72.62
11.61
-39.51
-71.14
-80.02
-70.39
-51.59
-33.61
-22.70
-19.53
-20.73
-22.25
-22.24
-21.72
-22.72
-25.85
-29.29
-29.88
-25.56
-17.38
-9.51
-7.21
-13.87
-29.00
-48.04
-64.14
-70.74
-64.03
-44.17
-15.13
16.45
43.37
60.02
64.12
56.98
42.68
26.09
10.75
-2.21
-13.89
-26.41
-41.05
-56.89
-70.77
-78.22
-75.41
-60.80
-36.12
-6.21
22.38
43.11
51.06
43.88
21.98
-11.64
-51.86
-92.42
-127.12
-151.22
-162.29
-160.27
-146.69
-123.64
-93.25
-57.84
-20.33
15.50
45.54
66.35
75.92
73.75
60.31
36.39
2.92
-38.56
-85.20
-132.86
-176.83
-212.97
-238.61
-252.54
-254.36
-243.71
-220.24
-184.26
-137.65
-84.17
-28.94
22.80
67.20
102.47
128.99
148.62
163.59
175.75
186.01
194.34
200.13
202.81
202.12
198.22
191.55
182.33
170.15
154.15
133.82
110.39
87.44
70.29
63.90
70.25
86.49
105.49
118.96
121.61
114.28
103.68
99.10
107.78
131.75
167.34
207.39
243.96
269.94
279.30
266.88
229.10
166.17
83.97
-5.90
-89.02
-152.96
-191.59
-206.34
-203.81
-191.61
-175.00
-156.04
-135.17
-113.41
-93.33
-78.37
-71.07
-71.39
-76.69
-83.08
-87.10
-86.82
-81.94
-72.99
-60.80
-46.30
-30.70
-15.60
-3.01
5.22
7.91
4.80
-3.67
-16.66
-33.10
-51.51
-69.87
-85.79
-97.10
-102.86
-103.92
-102.92
-103.43
-108.55
-119.63
-135.59
-153.10
-167.32
-173.40
-167.75
-148.89
-117.86
-77.69
-32.66
13.00
55.93
94.23
127.27
155.19
178.45
197.67
213.84
228.52
243.75
261.44
282.52
306.20
329.75
349.19
360.15
358.88
343.29
313.86
273.96
229.69
188.48
156.66
136.83
126.20
117.47
102.15
74.80
35.75
-9.14
-51.71
-85.57
-108.79
-123.91
-135.56
-147.38
-160.45
-173.68
-185.39
-194.45
-200.07
-200.58
-192.50
-171.10
-132.65
-77.11
-9.57
60.65
122.62
167.44
190.86
194.04
182.22
162.16
139.78
118.74
100.48
84.77
70.46
56.06
40.09
21.35
-0.84
-26.23
-53.34
-79.64
-102.15
-118.30
-126.89
-128.46
-125.05
-119.38
-113.96
-110.31
-108.82
-109.07
-110.28
-111.79
-113.39
-115.23
-117.74
-121.38
-126.56
-133.60
-142.71
-153.75
-165.81
-176.98
-184.40
-185.02
-176.49
-158.12
-131.21
-98.64
-63.93
-30.21
0.44
27.21
49.99
68.90
83.85
94.54
100.71
102.59
101.00
97.28
92.93
89.09
86.13
83.70
80.96
77.10
71.76
65.22
58.16
51.25
44.76
38.33
31.21
22.58
12.05
-0.11
-13.00
-25.48
-36.54
-45.68
-53.06
-59.35
-65.44
-72.24
-80.51
-90.71
-102.90
-116.32
-129.28
-139.25
-143.33
-139.20
-125.94
-104.44
-77.23
-47.57
-18.51
7.77
30.12
48.17
61.83
71.10
76.09
77.19
75.25
71.43
66.96
62.71
59.02
55.68
52.16
48.05
43.25
37.99
32.64
27.39
22.00
15.86
8.25
-1.29
-12.66
-25.12
-37.53
-48.69
-57.82
-64.84
-70.53
-76.29
-83.65
-93.69
-106.35
-120.20
-132.50
-139.87
-139.39
-129.44
-110.36
-84.31
-54.64
-24.79
2.48
25.63
44.22
58.57
69.20
76.64
81.05
82.36
80.36
74.93
66.38
55.47
43.38
31.51
21.00
12.17
4.46
-3.32
-12.47
-23.85
-37.94
-55.05
-75.53
-99.50
-126.47
-154.85
-181.85
-204.30
-219.82
-227.92
-230.06
-228.44
-223.90
-215.38
-200.18
-175.50
-140.17
-95.68
-46.14
3.23
48.01
86.64
119.45
147.88
173.57
198.15
223.56
252.14
286.40
328.31
379.10
436.27
493.42
542.05
574.42
585.98
576.16
547.41
503.99
451.83
395.05
335.70
274.67
212.95
152.27
94.64
41.88
-14.81
-75.70
-134.36
-181.51
-211.01
-222.61
-220.55
-209.83
-196.27
-184.13
-174.96
-170.43
-172.57
-182.95
-201.57
-224.95
-247.28
-262.53
-266.21
-255.43
-231.22
-197.67
-159.94
-122.33
-87.35
-56.47
-31.29
-13.75
-4.98
-5.41
-14.09
-28.43
-44.88
-60.13
-72.27
-81.26
-87.97
-93.17
-97.49
-101.61
-106.12
-111.41
-116.82
-120.47
-119.58
-111.11
-92.71
-63.47
-24.14
22.57
71.43
114.54
142.77
148.71
130.43
93.46
49.63
12.74
-7.00
-6.74
9.01
31.79
53.82
71.24
84.19
94.73
104.20
111.77
114.95
111.20
99.62
81.67
60.82
41.08
25.36
14.22
5.82
-2.94
-14.42
-28.60
-42.82
-52.72
-54.47
-46.96
-32.72
-17.18
-6.41
-4.62
-12.42
-27.06
-43.86
-58.61
-69.17
-75.75
-79.89
-82.92
-84.90
-84.73
-81.23
-74.36
-65.79
-58.35
-54.57
-55.27
-58.90
-62.07
-61.06
-53.28
-38.31
-17.93
4.76
26.43
44.63
58.34
68.06
75.36
82.39
91.21
103.08
118.01
134.78
151.52
166.44
178.68
188.35
196.06
202.16
206.00
206.07
200.70
188.91
171.04
148.34
122.26
93.78
63.25
31.00
-1.90
-33.34
-60.60
-81.24
-94.09
-99.49
-99.22
-95.73
-91.46
-88.16
-86.78
-87.57
-90.38
-94.93
-100.95
-108.04
-115.40
-121.55
-124.30
-121.19
-110.31
-91.14
-65.11
-35.50
-6.70
16.91
31.98
36.92
31.84
18.02
-2.91
-29.52
-60.68
-95.37
-132.51
-171.16
-210.59
-250.27
-289.25
-325.41
-355.06
-373.35
-375.45
-358.29
-321.58
-267.84
-201.44
-127.37
-50.53
24.38
92.62
149.58
191.41
216.00
223.62
216.87
199.80
176.83
151.97
128.65
109.92
98.61
96.95
105.74
123.52
146.56
169.85
188.75
200.62
205.33
204.70
201.08
196.12
190.05
182.23
171.98
159.36
145.21
130.83
117.28
104.97
93.71
82.72
70.97
57.30
40.55
20.09
-3.58
-28.38
-50.86
-67.20
-74.64
-72.54
-62.60
-48.18
-33.01
-20.07
-11.20
-7.37
-9.35
-18.05
-34.06
-56.66
-82.92
-107.61
-124.45
-128.20
-116.88
-92.72
-61.51
-30.34
-4.82
12.75
23.40
30.01
35.11
39.42
41.93
40.97
35.55
26.26
15.02
4.19
-4.40
-10.03
-13.09
-14.74
-16.34
-18.97
-23.09
-28.52
-34.52
-40.24
-45.06
-48.88
-52.08
-55.27
-58.91
-63.17
-67.95
-73.28
-79.32
-86.08
-92.78
-97.41
-97.10
-89.20
-72.63
-48.75
-21.07
6.09
29.27
46.97
59.61
68.68
75.51
80.63
83.83
84.74
83.44
80.56
76.95
73.29
69.86
66.57
63.27
59.97
57.01
54.78
53.63
53.57
54.43
55.97
57.81
59.48
60.21
58.96
54.67
46.54
34.34
18.36
-0.94
-23.40
-49.23
-78.52
-110.29
-141.79
-168.71
-186.48
-192.27
-186.35
-172.06
-154.30
-137.53
-124.27
-114.85
-108.54
-104.79
-103.82
-105.88
-110.02
-113.46
-112.36
-103.67
-86.81
-64.25
-40.09
-17.96
0.71
16.93
32.56
48.22
62.02
70.16
68.86
56.79
36.19
12.07
-10.09
-26.83
-37.98
-45.84
-53.33
-61.76
-70.02
-75.50
-76.04
-71.59
-64.32
-57.30
-52.34
-48.61
-42.76
-30.49
-8.53
24.10
65.77
112.69
159.43
199.29
224.92
229.80
210.47
168.34
109.90
45.12
-15.80
-65.34
-99.96
-119.59
-126.06
-121.39
-107.46
-86.10
-59.40
-29.17
3.97
41.00
83.57
132.00
183.51
231.71
268.20
285.45
279.40
250.77
203.99
145.06
79.24
9.90
-61.07
-132.05
-200.89
-265.29
-323.54
-374.98
-419.38
-455.27
-478.64
-483.19
-462.69
-414.23
-341.11
-252.78
-162.05
-80.43
-14.23
36.63
76.77
111.53
143.68
172.23
193.92
205.93
208.09
203.36
196.21
190.40
187.09
184.82
180.75
172.70
160.45
145.94
132.11
121.28
113.75
107.68
100.18
88.83
73.17
54.96
37.26
22.87
12.71
5.29
-2.60
-14.17
-30.86
-51.40
-72.24
-88.90
-97.84
-97.65
-89.33
-75.49
-59.18
-42.66
-26.98
-12.25
1.77
14.89
26.19
34.33
38.07
37.10
32.47
26.44
21.61
19.89
21.59
25.05
27.82
27.55
23.38
16.06
7.59
-0.15
-6.20
-10.41
-13.12
-14.55
-15.22
-16.30
-19.61
-26.62
-36.94
-47.45
-53.11
-49.59
-35.98
-16.43
1.31
9.11
2.32
-18.15
-46.46
-74.62
-95.85
-106.59
-106.66
-97.99
-83.00
-63.95
-42.56
-20.59
-0.14
16.49
27.60
32.89
33.80
33.29
34.65
40.23
50.51
64.06
78.27
90.51
99.01
103.30
104.09
102.69
100.48
98.32
96.42
94.34
91.41
86.94
80.66
72.94
64.67
57.15
51.55
48.50
47.77
48.40
48.86
47.53
43.18
35.51
25.51
15.40
7.84
4.72
6.27
10.82
15.56
17.87
16.23
10.45
1.17
-10.82
-24.62
-38.83
-51.19
-58.86
-59.65
-53.31
-42.20
-30.44
-22.05
-18.93
-20.26
-23.35
-25.21
-24.17
-20.45
-15.61
-11.48
-9.46
-10.09
-13.36
-19.20
-27.68
-38.94
-52.78
-68.50
-84.87
-100.46
-114.14
-125.30
-133.89
-140.28
-145.10
-148.61
-150.33
-148.86
-141.82
-126.64
-101.68
-67.45
-27.13
14.46
53.07
87.21
118.77
151.58
188.64
229.57
269.97
303.02
322.32
324.54
310.39
283.85
250.40
215.23
182.17
153.49
130.05
111.83
98.05
87.62
79.60
73.43
68.66
64.79
61.25
57.36
52.82
47.67
42.23
36.83
31.54
26.01
19.66
11.99
2.92
-7.13
-17.35
-26.69
-33.85
-37.16
-34.52
-23.51
-2.34
29.01
67.80
108.67
145.05
171.34
184.42
184.26
172.99
153.19
126.75
94.65
58.04
19.31
-17.88
-49.99
-75.11
-93.98
-109.65
-125.84
-145.29
-168.07
-191.16
-209.61
-218.92
-216.40
-202.33
-180.08
-155.07
-134.25
-123.45
-125.09
-137.35
-155.62
-172.87
-181.69
-176.48
-155.17
-122.65
-88.89
-65.85
-63.44
-87.21
-134.38
-194.01
-250.58
-288.66
-300.82
-287.42
-254.18
-209.17
-162.39
-122.41
-95.33
-84.19
-87.67
-104.11
-129.43
-157.36
-168.01
-147.61
-94.51
-19.69
52.75
119.19
178.49
227.40
261.29
273.89
260.49
222.47
168.29
111.11
65.57
39.41
34.12
46.17
68.43
91.01
104.89
104.39
88.56
61.41
26.94
-10.52
-46.55
-77.16
-100.09
-114.19
-119.47
-116.95
-108.06
-96.32
-85.08
-76.10
-68.99
-61.87
-52.21
-37.97
-18.51
5.27
30.58
54.08
73.10
86.31
93.54
95.78
94.75
92.64
91.68
93.45
98.71
107.25
117.77
127.97
134.94
135.66
127.69
109.76
82.20
46.84
6.80
-34.29
-73.10
-107.03
-134.31
-153.97
-165.76
-170.24
-168.93
-163.63
-155.46
-143.99
-126.95
-101.37
-65.60
-21.22
26.47
69.70
101.23
117.43
119.79
114.47
109.56
111.64
123.33
142.55
163.75
180.45
188.12
185.92
176.97
166.73
160.34
160.33
165.52
171.64
173.49
167.11
150.96
125.78
93.36
55.72
15.07
-25.63
-62.12
-89.30
-102.72
-100.54
-84.46
-59.54
-32.48
-9.45
5.32
10.28
6.29
-4.04
-17.05
-28.56
-34.75
-33.07
-23.17
-7.34
10.05
24.07
30.95
29.49
21.50
10.82
1.68
-3.09
-3.37
-1.92
-3.47
-13.06
-34.22
-67.44
-109.43
-153.46
-190.84
-213.39
-215.75
-196.67
-158.77
-107.46
-49.29
9.18
62.02
103.72
129.04
133.72
116.32
79.99
32.70
-14.79
-52.30
-73.36
-76.94
-66.62
-48.83
-30.98
-18.08
-10.51
-5.22
1.05
9.74
20.13
31.88
43.11
52.31
58.97
63.33
65.96
67.47
68.64
70.60
72.15
73.30
74.44
75.83
77.25
77.44
74.50
66.59
52.92
34.45
13.98
-4.57
-17.32
-21.75
-17.80
-7.84
4.09
13.64
17.53
14.42
5.07
-8.06
-21.49
-32.04
-37.36
-36.44
-29.71
-18.67
-5.41
7.72
18.59
25.73
28.30
26.87
23.24
19.74
18.16
18.68
19.70
18.74
13.82
3.80
-10.62
-27.23
-42.97
-55.18
-62.61
-65.61
-65.68
-64.88
-66.29
-71.97
-81.66
-92.42
-100.04
-101.55
-96.80
-88.33
-79.73
-75.47
-78.33
-88.59
-104.63
-124.61
-147.81
-174.04
-202.10
-218.02
-208.43
-166.85
-98.67
-17.86
61.76
132.34
192.48
244.33
290.27
330.54
362.58
383.04
390.39
385.90
372.53
353.52
331.50
308.32
283.83
256.55
226.88
196.07
165.40
135.66
107.07
79.98
55.06
32.31
11.32
-8.29
-26.52
-42.71
-55.82
-64.93
-69.70
-70.55
-69.02
-67.03
-66.22
-67.74
-71.94
-78.30
-85.20
-89.92
-89.11
-80.12
-61.96
-35.77
-4.62
27.45
56.60
79.93
95.57
102.24
98.73
84.06
57.91
21.12
-24.05
-74.17
-125.24
-173.39
-215.56
-249.79
-275.37
-292.57
-302.10
-304.74
-301.25
-292.42
-279.37
-263.45
-245.90
-227.58
-209.02
-190.71
-173.60
-159.38
-150.15
-147.40
-150.95
-158.42
-165.30
-166.23
-156.52
-133.64
-98.53
-55.86
-12.85
22.87
46.13
56.12
56.54
53.86
54.49
62.15
76.54
93.88
108.27
113.66
105.32
81.05
42.00
-7.01
-58.26
-102.99
-133.77
-146.65
-141.90
-123.33
-96.61
-67.55
-40.86
-19.99
-6.94
-2.38
-5.65
-14.76
-27.02
-39.94
-52.22
-64.22
-77.53
-93.66
-112.73
-132.84
-150.22
-160.39
-159.87
-147.48
-124.85
-95.87
-65.21
-36.79
-12.82
6.54
22.64
37.47
52.70
69.09
86.44
103.75
119.64
132.59
141.48
145.72
145.43
141.55
135.67
129.75
125.59
124.19
125.34
127.66
129.05
127.37
121.19
110.06
94.41
75.31
54.14
32.48
12.10
-5.25
-18.37
-27.06
-32.54
-37.08
-43.30
-53.04
-66.49
-81.97
-96.41
-106.29
-108.75
-102.48
-87.97
-67.12
-42.59
-17.05
7.42
29.41
48.19
63.39
74.84
82.50
86.56
87.54
86.35
84.12
82.02
80.96
81.46
83.53
86.77
90.71
94.99
99.54
104.53
110.05
115.79
120.95
124.34
124.60
120.69
112.16
99.32
83.24
65.47
47.72
31.51
17.79
6.66
-2.64
-11.51
-21.41
-33.20
-46.38
-58.91
-67.42
-68.26
-58.65
-37.80
-7.29
29.22
66.88
100.59
125.93
139.57
139.79
126.66
102.12
69.65
33.60
-1.67
-32.62
-56.83
-73.15
-81.39
-82.26
-77.26
-68.60
-58.76
-49.91
-43.32
-39.21
-37.19
-36.79
-37.99
-41.15
-46.68
-54.80
-65.41
-78.24
-92.87
-108.87
-125.66
-142.42
-158.02
-171.09
-179.96
-182.88
-178.09
-164.29
-141.13
-109.60
-71.79
-30.33
12.48
54.98
96.06
134.55
168.74
196.57
216.46
228.20
233.14
233.68
232.01
229.20
225.07
218.78
209.89
199.05
187.75
177.43
168.42
159.46
148.01
131.54
108.58
79.56
46.71
13.37
-16.95
-41.43
-58.49
-68.27
-72.53
-74.12
-75.90
-79.50
-84.45
-88.32
-87.72
-80.13
-65.18
-44.85
-22.54
-1.47
16.62
31.66
44.57
56.26
66.68
74.64
78.56
77.45
71.43
61.89
50.76
39.48
28.76
18.25
6.97
-5.76
-19.63
-33.39
-45.31
-54.12
-60.03
-64.17
-68.58
-75.43
-86.04
-100.28
-116.79
-133.75
-150.02
-166.11
-183.00
-202.08
-224.70
-251.34
-281.08
-311.50
-338.68
-357.37
-361.99
-346.28
-306.11
-242.20
-161.24
-74.88
3.27
61.69
97.87
111.88
111.00
107.13
110.04
122.93
142.90
164.54
183.14
196.69
202.74
199.35
185.11
160.11
127.20
92.09
61.78
42.88
38.08
44.60
56.51
66.89
70.26
64.58
51.67
35.96
22.30
13.66
9.72
7.71
3.33
-7.44
-26.08
-50.05
-73.33
-88.65
-90.67
-78.07
-53.49
-22.22
10.16
39.87
65.79
88.69
109.66
128.53
143.29
151.07
149.49
137.97
118.33
94.27
70.00
48.79
32.11
19.69
10.39
3.09
-2.79
-7.44
-11.13
-14.65
-19.40
-26.83
-37.83
-52.10
-68.09
-83.44
-95.80
-103.71
-107.17
-107.53
-106.99
-107.72
-111.26
-118.08
-127.67
-138.61
-148.86
-156.13
-158.20
-153.55
-141.65
-123.08
-99.27
-71.96
-42.55
-12.01
19.02
49.85
79.35
106.02
128.29
144.98
155.52
160.04
159.19
153.90
145.23
134.34
122.42
110.56
99.65
90.05
81.67
74.04
66.55
58.82
50.79
42.51
33.83
24.21
12.95
-0.13
-14.05
-26.63
-35.08
-37.37
-33.56
-26.25
-19.88
-19.26
-27.58
-45.13
-69.08
-93.90
-113.01
-120.73
-113.91
-92.43
-59.18
-18.70
24.17
65.05
101.46
132.95
160.61
186.41
212.17
238.36
263.29
282.98
291.09
282.42
254.75
209.25
149.64
80.87
7.89
-65.08
-134.44
-198.73
-255.56
-301.65
-334.08
-352.00
-357.50
-355.18
-350.69
-348.61
-352.86
-361.88
-369.20
-366.47
-347.83
-312.57
-265.12
-213.04
-151.55
-84.79
-21.97
27.88
61.31
80.33
88.90
90.69
87.23
81.53
74.77
69.25
67.82
72.52
83.70
100.14
120.12
141.52
162.51
179.68
190.94
195.92
195.49
190.89
183.04
172.66
160.38
147.19
133.21
119.21
106.47
95.98
87.68
80.36
72.32
62.16
49.61
34.98
19.80
6.39
-3.36
-8.88
-11.24
-12.36
-13.78
-15.90
-18.21
-20.05
-21.66
-24.66
-31.55
-44.55
-64.03
-87.97
-112.43
-133.02
-146.50
-151.49
-148.35
-138.63
-124.51
-107.89
-89.97
-71.29
-51.98
-32.11
-11.49
10.66
35.76
64.25
94.01
119.96
136.29
139.77
131.45
115.95
99.33
86.52
79.46
77.53
78.57
80.60
82.84
85.30
87.91
89.76
90.05
86.36
77.65
64.93
50.99
39.19
31.91
29.63
30.92
33.19
33.83
31.65
26.81
20.43
13.70
7.06
0.03
-6.78
-13.29
-19.47
-25.08
-29.90
-33.79
-36.52
-37.83
-37.37
-34.87
-30.69
-25.53
-20.25
-15.47
-11.51
-8.30
-5.58
-3.19
-1.03
0.59
1.41
1.28
0.24
-1.55
-3.78
-6.07
-8.01
-9.27
-9.75
-9.57
-9.03
-8.42
-7.96
-7.57
-7.05
-6.22
-5.07
-3.92
-3.28
-3.77
-5.76
-9.26
-13.78
-18.44
-22.26
-24.44
-24.60
-22.92
-19.98
-16.59
-13.44
-10.92
-9.05
-7.58
-6.14
-4.41
-2.11
0.90
4.78
9.51
14.90
20.54
25.84
30.20
33.20
34.78
35.31
35.47
35.91
37.02
38.74
40.64
42.05
42.47
41.80
40.39
38.91
38.04
38.17
39.33
41.22
43.36
45.27
46.49
46.58
45.09
41.67
36.14
28.72
19.94
10.49
0.88
-8.78
-18.91
-30.20
-43.15
-57.78
-73.28
-88.28
-101.31
-111.49
-119.03
-125.25
-132.17
-141.64
-154.74
-171.21
-189.55
-207.36
-222.02
-231.35
-234.06
-229.82
-219.24
-203.81
-185.76
-167.76
-152.31
-141.11
-134.44
-131.10
-128.83
-125.12
-118.08
-106.99
-92.26
-75.06
-56.67
-38.15
-20.30
-3.77
10.80
22.95
32.48
39.63
45.01
49.30
53.05
56.35
58.95
60.36
60.23
58.58
55.74
52.20
48.32
44.14
39.41
33.80
27.07
19.13
10.00
-0.27
-11.74
-24.52
-38.76
-54.67
-72.33
-91.67
-112.08
-132.13
-149.47
-161.06
-164.07
-156.81
-139.52
-114.49
-85.37
-55.99
-29.28
-6.67
11.70
26.49
38.44
47.96
55.19
60.15
63.12
64.72
65.83
67.31
69.63
72.70
75.91
78.41
79.45
78.76
76.66
73.80
70.89
68.24
65.53
61.93
56.47
48.46
37.82
25.21
11.78
-1.25
-13.05
-23.48
-33.08
-42.86
-54.02
-67.50
-83.56
-101.46
-119.20
-133.69
-141.39
-139.34
-126.16
-102.70
-71.78
-37.34
-3.11
28.38
56.16
80.55
102.33
122.06
139.57
154.21
165.19
172.10
175.13
175.02
172.61
168.44
162.66
155.20
146.15
136.15
126.29
117.72
111.08
106.07
101.53
95.78
87.42
75.85
61.59
45.95
30.50
16.51
4.42
-6.22
-16.46
-27.57
-40.63
-56.15
-73.89
-92.67
-110.19
-123.26
-128.36
-122.65
-105.14
-77.30
-42.86
-6.77
26.29
53.20
72.82
85.69
93.19
96.67
97.10
95.16
91.47
86.75
81.83
77.36
73.60
70.42
67.41
64.17
60.55
56.61
52.47
48.10
43.13
36.92
28.86
18.65
6.58
-6.46
-19.36
-31.21
-41.66
-51.14
-60.66
-71.56
-84.90
-100.84
-118.22
-134.42
-145.83
-148.77
-140.80
-121.56
-93.10
-59.20
-24.20
8.21
35.81
57.90
74.82
87.33
96.18
102.01
105.34
106.69
106.45
104.88
102.03
97.85
92.23
85.25
77.26
68.85
60.83
54.01
49.11
46.35
45.32
44.87
43.46
39.65
32.71
22.92
11.31
-0.95
-13.32
-26.19
-40.64
-57.74
-77.62
-99.03
-119.68
-136.92
-148.59
-153.59
-151.80
-143.95
-131.23
-115.12
-97.26
-79.16
-61.99
-46.38
-32.48
-20.28
-9.89
-1.47
5.22
11.31
18.87
30.35
47.49
70.29
96.83
124.00
148.81
169.56
186.16
199.51
210.59
219.64
226.10
229.37
229.37
226.76
222.72
218.15
213.25
207.36
199.62
189.77
178.80
168.69
161.60
158.55
158.74
159.65
158.00
150.84
136.31
114.03
84.93
51.17
16.03
-16.51
-42.69
-60.28
-69.88
-75.06
-81.24
-93.23
-112.67
-136.67
-158.71
-171.46
-170.11
-154.75
-130.55
-105.66
-88.00
-82.45
-89.46
-105.68
-125.69
-144.12
-156.99
-162.32
-160.05
-151.55
-139.03
-124.91
-111.08
-98.50
-87.40
-77.66
-69.20
-61.77
-54.37
-44.52
-28.47
-2.35
35.75
84.29
137.89
188.74
229.01
253.34
260.03
250.94
229.95
201.58
169.76
137.50
106.95
79.69
56.88
39.00
25.77
15.96
7.70
-0.98
-11.48
-24.03
-37.52
-49.79
-58.45
-61.76
-59.38
-52.30
-42.35
-31.42
-20.76
-11.02
-2.64
3.41
5.33
0.74
-12.35
-35.00
-66.94
-106.73
-152.08
-199.99
-246.65
-287.49
-317.70
-333.52
-333.43
-318.82
-293.67
-263.40
-233.28
-207.15
-186.84
-172.04
-160.85
-150.31
-136.78
-116.55
-86.73
-46.13
4.09
60.63
118.99
174.26
221.82
257.83
279.48
285.33
275.84
253.36
222.03
187.27
154.36
126.99
106.62
92.81
84.30
79.54
76.19
71.33
62.11
46.76
24.91
-1.89
-30.54
-57.49
-77.08
-84.92
-80.78
-68.03
-50.46
-30.94
-10.70
9.78
30.19
50.04
68.10
82.93
93.74
101.00
105.32
108.49
111.04
113.24
114.74
114.20
109.66
99.83
84.69
64.49
40.46
13.93
-13.73
-42.01
-71.78
-105.40
-146.26
-192.13
-243.01
-299.03
-359.32
-420.49
-476.09
-517.80
-537.81
-531.02
-497.34
-443.12
-377.92
-311.09
-248.85
-193.50
-144.57
-100.69
-60.10
-21.61
14.62
48.28
79.18
107.18
131.61
150.92
158.82
149.31
120.68
76.62
24.36
-28.91
-78.17
-120.97
-156.93
-187.93
-214.92
-238.14
-257.86
-274.42
-287.97
-298.40
-305.16
-308.06
-307.08
-301.65
-291.02
-274.79
-253.09
-226.45
-195.60
-161.30
-124.34
-85.42
-44.80
-2.69
40.36
83.39
125.20
164.56
200.46
232.25
259.76
283.31
303.32
319.87
332.49
340.32
342.41
338.14
327.49
311.18
290.49
266.88
241.35
214.21
185.15
153.74
120.06
85.22
51.51
22.04
-0.09
-12.71
-15.11
-8.01
6.98
28.22
54.56
85.54
121.09
161.20
205.64
253.73
304.05
353.88
398.65
432.07
447.47
440.04
409.09
359.06
298.20
235.65
178.12
128.12
84.41
44.17
5.29
-32.10
-65.96
-93.47
-112.53
-122.51
-124.16
-118.99
-108.60
-94.13
-76.21
-55.33
-32.20
-8.21
14.59
33.87
48.09
57.34
63.48
69.31
76.96
86.44
95.37
99.94
96.78
84.59
64.76
40.59
15.69
-7.51
-28.36
-47.53
-65.91
-83.55
-99.49
-112.12
-119.97
-122.38
-119.65
-112.89
-103.60
-93.24
-82.72
-72.34
-61.80
-50.59
-38.54
-26.11
-14.33
-4.24
3.65
9.74
15.07
20.61
26.67
32.56
37.09
39.18
38.62
36.20
33.36
31.47
31.26
32.59
34.58
36.13
36.21
34.22
30.08
24.12
16.95
9.21
1.41
-6.21
-13.58
-20.61
-27.15
-32.86
-37.57
-41.45
-45.27
-49.94
-56.07
-63.21
-69.70
-73.15
-71.40
-63.62
-50.75
-35.33
-20.36
-8.30
-0.19
4.36
6.53
7.55
7.98
7.66
6.00
2.65
-2.12
-7.25
-11.30
-13.05
-12.19
-9.59
-6.94
-5.98
-7.69
-11.83
-17.00
-21.42
-23.93
-24.53
-24.55
-25.90
-30.12
-37.44
-46.83
-56.60
-65.70
-74.57
-84.96
-98.61
-115.56
-133.12
-146.37
-150.11
-141.20
-120.15
-90.89
-58.88
-28.92
-3.63
16.51
32.08
43.65
51.48
55.98
58.39
60.83
65.52
73.59
84.48
96.08
105.86
112.06
114.35
113.62
111.32
108.44
105.20
101.14
95.58
87.97
78.09
66.00
51.93
36.27
19.50
2.13
-15.24
-32.01
-47.57
-61.17
-71.91
-78.75
-80.74
-77.41
-69.08
-56.93
-42.78
-28.62
-16.02
-5.89
1.61
6.80
10.15
12.08
12.89
12.78
11.95
10.65
9.18
7.84
6.88
6.37
6.22
6.23
6.07
5.49
4.31
2.50
0.10
-2.77
-6.04
-9.65
-13.49
-17.43
-21.27
-24.86
-28.27
-31.69
-35.43
-39.62
-43.93
-47.40
-48.73
-46.71
-40.66
-30.84
-18.42
-5.16
7.20
17.40
24.92
29.91
32.91
34.51
35.16
35.03
34.08
32.25
29.54
26.17
22.52
19.05
16.17
14.03
12.53
11.30
9.92
7.98
5.34
2.11
-1.48
-5.11
-8.63
-11.99
-15.28
-18.56
-21.97
-25.61
-29.62
-34.06
-38.74
-43.03
-45.86
-45.97
-42.29
-34.55
-23.46
-10.58
2.12
12.92
20.79
25.57
27.73
28.04
27.16
25.52
23.35
20.79
18.05
15.42
13.26
11.81
11.03
10.62
10.12
9.07
7.23
4.67
1.76
-1.08
-3.56
-5.67
-7.66
-9.90
-12.67
-16.09
-20.08
-24.46
-29.05
-33.57
-37.51
-40.11
-40.40
-37.56
-31.30
-22.13
-11.25
-0.32
9.25
16.60
21.57
24.52
25.97
26.27
25.54
23.84
21.24
18.07
14.88
12.23
10.48
9.74
9.70
9.84
9.61
8.55
6.47
3.46
-0.12
-3.85
-7.30
-10.30
-12.87
-15.23
-17.75
-20.70
-24.23
-28.25
-32.42
-36.12
-38.50
-38.65
-35.82
-29.74
-20.83
-10.20
0.56
9.97
17.02
21.46
23.68
24.39
24.18
23.35
21.97
19.96
17.40
14.57
11.88
9.70
8.18
7.25
6.61
5.94
4.98
3.63
2.00
0.23
-1.58
-3.42
-5.35
-7.46
-9.78
-12.30
-15.00
-17.91
-21.20
-24.93
-28.99
-32.81
-35.43
-35.74
-32.99
-27.01
-18.49
-8.75
0.76
8.80
14.74
18.50
20.43
20.94
20.36
18.88
16.63
13.87
11.02
8.56
6.87
6.04
5.82
5.72
5.25
4.10
2.30
0.12
-2.10
-4.11
-5.90
-7.55
-9.18
-10.84
-12.56
-14.30
-16.17
-18.37
-21.08
-24.31
-27.64
-30.29
-31.21
-29.50
-24.78
-17.46
-8.63
0.29
8.09
14.05
18.05
20.35
21.33
21.21
20.09
18.04
15.30
12.29
9.58
7.65
6.76
6.87
7.62
8.46
8.81
8.28
6.70
4.26
1.36
-1.52
-4.09
-6.30
-8.32
-10.46
-13.01
-16.07
-19.65
-23.59
-27.58
-31.16
-33.55
-33.84
-31.24
-25.44
-16.89
-6.86
3.02
11.26
17.03
20.33
21.75
22.11
21.98
21.56
20.72
19.31
17.29
14.90
12.58
10.70
9.49
8.89
8.59
8.17
7.28
5.82
3.89
1.73
-0.43
-2.53
-4.72
-7.17
-9.98
-13.15
-16.56
-20.09
-23.69
-27.32
-30.74
-33.47
-34.66
-33.43
-29.23
-22.16
-13.02
-3.11
6.18
13.84
19.41
23.00
25.07
26.15
26.65
26.73
26.36
25.37
23.72
21.46
18.88
16.29
13.96
12.05
10.50
9.19
7.91
6.50
4.75
2.52
-0.28
-3.65
-7.38
-11.12
-14.47
-17.13
-19.11
-20.70
-22.40
-24.69
-27.89
-31.89
-36.13
-39.62
-41.19
-39.87
-35.19
-27.50
-17.85
-7.80
1.25
8.42
13.59
17.25
20.10
22.58
24.73
26.24
26.75
26.19
24.79
23.08
21.56
20.51
19.88
19.41
18.79
17.83
16.53
15.06
13.60
12.26
10.96
9.47
7.52
4.95
1.73
-1.91
-5.67
-9.19
-12.27
-14.89
-17.19
-19.41
-21.80
-24.58
-27.86
-31.59
-35.52
-39.15
-41.76
-42.47
-40.60
-35.84
-28.53
-19.57
-10.13
-1.34
6.10
12.01
16.60
20.23
23.14
25.40
26.96
27.79
27.90
27.44
26.54
25.32
23.87
22.26
20.62
19.11
17.88
16.99
16.39
15.93
15.37
14.49
13.13
11.29
9.02
6.53
4.02
1.66
-0.51
-2.59
-4.73
-7.02
-9.47
-12.00
-14.46
-16.78
-18.94
-21.07
-23.41
-26.18
-29.53
-33.31
-37.06
-39.96
-41.03
-39.40
-34.66
-27.12
-17.70
-7.75
1.45
9.02
14.65
18.52
21.05
22.64
23.54
23.87
23.69
23.14
22.36
21.54
20.82
20.23
19.72
19.26
18.79
18.27
17.68
16.97
16.14
15.15
14.01
12.66
11.14
9.51
7.88
6.39
5.07
3.83
2.42
0.57
-1.85
-4.77
-7.85
-10.69
-12.99
-14.62
-15.75
-16.61
-17.50
-18.68
-20.40
-22.81
-25.89
-29.30
-32.34
-34.02
-33.39
-29.95
-23.85
-16.00
-7.65
-0.03
6.09
10.50
13.46
15.43
16.77
17.70
18.21
18.30
18.04
17.60
17.21
17.01
17.01
17.10
17.04
16.67
15.91
14.88
13.82
12.94
12.32
11.81
11.14
10.02
8.30
6.09
3.65
1.36
-0.50
-1.84
-2.75
-3.45
-4.20
-5.17
-6.42
-7.89
-9.45
-11.01
-12.59
-14.29
-16.32
-18.77
-21.70
-24.98
-28.39
-31.53
-33.88
-34.79
-33.61
-29.97
-23.97
-16.24
-7.82
0.12
6.68
11.40
14.40
16.13
17.03
17.41
17.34
16.75
15.64
14.14
12.60
11.42
10.86
10.89
11.32
11.78
12.07
12.12
12.04
11.97
11.87
11.60
10.85
9.46
7.44
5.03
2.59
0.44
-1.26
-2.56
-3.65
-4.82
-6.27
-8.13
-10.40
-12.93
-15.50
-17.87
-19.89
-21.53
-22.96
-24.51
-26.49
-29.04
-31.93
-34.53
-35.86
-35.01
-31.34
-24.91
-16.45
-7.25
1.35
8.30
13.14
15.98
17.35
17.83
17.87
17.70
17.37
16.87
16.22
15.49
14.78
14.16
13.63
13.16
12.69
12.15
11.47
10.67
9.81
8.95
8.10
7.22
6.20
4.92
3.32
1.41
-0.70
-2.90
-5.11
-7.35
-9.61
-11.83
-13.93
-15.86
-17.69
-19.57
-21.72
-24.24
-27.13
-30.11
-32.68
-34.25
-34.19
-32.04
-27.64
-21.28
-13.67
-5.83
1.29
7.02
11.13
13.73
15.18
15.81
15.78
15.20
14.13
12.80
11.47
10.44
9.91
9.91
10.27
10.69
10.87
10.59
9.84
8.71
7.37
5.90
4.25
2.22
-0.39
-3.63
-7.30
-10.94
-14.05
-16.31
-17.75
-18.77
-19.96
-21.81
-24.55
-27.96
-31.47
-34.21
-35.33
-34.14
-30.39
-24.36
-16.81
-8.75
-1.17
5.25
10.30
14.07
16.88
18.92
20.18
20.61
20.17
18.99
17.39
15.68
14.14
12.88
11.84
10.92
10.04
9.18
8.35
7.52
6.53
5.14
3.16
0.52
-2.62
-5.96
-9.13
-11.86
-14.06
-15.88
-17.59
-19.54
-22.03
-25.18
-28.83
-32.51
-35.37
-36.47
-35.01
-30.66
-23.75
-15.23
-6.28
1.99
8.81
13.96
17.53
19.80
21.15
21.86
22.12
22.05
21.65
20.87
19.77
18.40
16.94
15.58
14.48
13.61
12.90
12.19
11.34
10.27
8.84
6.89
4.27
0.88
-3.12
-7.35
-11.39
-14.92
-17.85
-20.42
-23.05
-26.21
-30.21
-35.04
-40.18
-44.71
-47.41
-47.15
-43.35
-36.17
-26.64
-16.23
-6.37
2.01
8.65
13.86
18.14
21.86
25.14
27.86
29.81
30.87
31.15
30.88
30.38
29.89
29.55
29.33
29.05
28.52
27.54
26.09
24.25
22.19
20.04
17.80
15.35
12.46
8.95
4.81
0.27
-4.28
-8.42
-11.86
-14.60
-16.94
-19.40
-22.46
-26.44
-31.35
-36.94
-42.65
-47.71
-51.19
-52.18
-49.99
-44.45
-36.01
-25.73
-14.97
-4.98
3.49
10.35
15.99
21.00
25.74
30.28
34.31
37.44
39.40
40.19
40.07
39.39
38.49
37.53
36.54
35.47
34.32
33.17
32.05
30.92
29.59
27.80
25.35
22.13
18.34
14.38
10.71
7.73
5.57
4.02
2.61
0.76
-1.99
-5.69
-10.03
-14.38
-18.13
-20.94
-22.95
-24.66
-26.78
-29.89
-34.27
-39.74
-45.59
-50.70
-53.72
-53.46
-49.27
-41.30
-30.61
-18.80
-7.57
1.95
9.41
15.17
19.92
24.23
28.35
32.11
35.16
37.19
38.14
38.14
37.57
36.84
36.23
35.89
35.70
35.47
34.98
34.19
33.18
32.15
31.20
30.18
28.77
26.63
23.64
19.99
16.17
12.72
10.00
8.03
6.49
4.91
2.88
0.21
-3.02
-6.59
-10.18
-13.52
-16.43
-18.87
-20.91
-22.74
-24.59
-26.78
-29.56
-33.07
-37.17
-41.38
-44.85
-46.49
-45.36
-40.95
-33.45
-23.84
-13.51
-3.87
4.13
10.14
14.40
17.47
19.86
21.91
23.70
25.22
26.42
27.32
27.97
28.38
28.54
28.43
28.06
27.48
26.78
26.03
25.24
24.43
23.55
22.56
21.44
20.11
18.50
16.57
14.34
11.88
9.39
7.06
5.02
3.29
1.74
0.13
-1.81
-4.24
-7.21
-10.50
-13.78
-16.68
-18.93
-20.50
-21.54
-22.38
-23.39
-24.91
-27.14
-30.19
-33.90
-37.84
-41.20
-42.98
-42.19
-38.27
-31.35
-22.31
-12.50
-3.36
4.19
9.87
13.95
16.97
19.37
21.33
22.77
23.58
23.75
23.56
23.28
23.17
23.25
23.40
23.41
23.12
22.58
21.86
21.11
20.32
19.47
18.43
17.13
15.52
13.68
11.65
9.51
7.32
5.17
3.16
1.38
-0.16
-1.53
-2.92
-4.56
-6.64
-9.22
-12.15
-15.13
-17.77
-19.76
-21.00
-21.67
-22.14
-22.81
-24.00
-25.83
-28.26
-31.07
-33.81
-35.84
-36.35
-34.57
-30.09
-23.17
-14.72
-6.07
1.51
7.27
11.15
13.69
15.55
17.20
18.77
20.09
20.95
21.24
21.05
20.57
19.99
19.44
18.98
18.60
18.26
17.90
17.38
16.65
15.63
14.38
12.95
11.38
9.69
7.83
5.76
3.58
1.49
-0.29
-1.57
-2.34
-2.74
-3.10
-3.71
-4.77
-6.36
-8.37
-10.64
-12.95
-15.13
-17.14
-19.04
-20.99
-23.19
-25.82
-29.01
-32.70
-36.53
-39.89
-41.96
-41.89
-39.15
-33.71
-26.14
-17.42
-8.69
-0.84
5.57
10.43
13.93
16.34
17.91
18.73
18.87
18.39
17.44
16.24
15.06
14.12
13.47
13.06
12.79
12.57
12.44
12.47
12.74
13.21
13.63
13.64
12.91
11.32
8.99
6.21
3.37
0.77
-1.45
-3.33
-5.09
-6.95
-9.04
-11.31
-13.59
-15.59
-17.15
-18.21
-18.95
-19.68
-20.76
-22.53
-25.20
-28.68
-32.57
-36.15
-38.43
-38.49
-35.74
-30.16
-22.42
-13.62
-5.01
2.46
8.30
12.53
15.47
17.54
19.02
20.04
20.54
20.46
19.81
18.77
17.64
16.73
16.18
15.92
15.68
15.11
14.02
12.46
10.65
8.88
7.34
6.02
4.74
3.29
1.52
-0.61
-3.01
-5.57
-8.15
-10.62
-12.84
-14.70
-16.16
-17.36
-18.59
-20.22
-22.61
-25.88
-29.79
-33.76
-36.86
-38.10
-36.67
-32.24
-25.06
-16.04
-6.46
2.42
9.64
14.89
18.39
20.65
22.18
23.24
23.81
23.74
22.99
21.70
20.16
18.68
17.42
16.39
15.44
14.40
13.23
12.04
10.94
10.05
9.29
8.39
7.02
4.91
1.99
-1.55
-5.29
-8.83
-11.85
-14.27
-16.29
-18.25
-20.50
-23.32
-26.81
-30.84
-35.00
-38.65
-40.92
-40.97
-38.18
-32.43
-24.23
-14.62
-4.94
3.66
10.43
15.23
18.35
20.30
21.52
22.23
22.49
22.29
21.73
21.02
20.41
20.01
19.77
19.42
18.66
17.38
15.72
13.99
12.51
11.41
10.52
9.42
7.69
5.11
1.71
-2.18
-6.14
-9.80
-12.93
-15.56
-17.90
-20.23
-22.89
-26.17
-30.24
-35.08
-40.31
-45.20
-48.80
-50.08
-48.28
-43.25
-35.50
-26.11
-16.33
-7.23
0.59
6.99
12.20
16.61
20.49
23.97
27.04
29.59
31.47
32.60
32.93
32.52
31.58
30.32
28.97
27.72
26.64
25.68
24.73
23.62
22.15
20.23
17.85
15.14
12.24
9.28
6.31
3.26
-0.00
-3.58
-7.38
-11.18
-14.68
-17.63
-20.01
-22.05
-24.15
-26.77
-30.24
-34.65
-39.77
-44.96
-49.19
-51.36
-50.45
-45.98
-38.22
-28.13
-17.10
-6.55
2.53
9.80
15.45
19.97
23.84
27.31
30.35
32.79
34.44
35.32
35.62
35.56
35.30
34.88
34.17
33.06
31.59
29.96
28.48
27.38
26.64
25.97
24.96
23.21
20.57
17.19
13.47
9.88
6.74
4.09
1.69
-0.84
-3.80
-7.28
-11.05
-14.75
-18.03
-20.75
-23.01
-25.12
-27.49
-30.42
-34.05
-38.24
-42.51
-46.05
-47.90
-47.20
-43.43
-36.74
-27.95
-18.24
-8.81
-0.51
6.39
12.05
16.85
21.13
25.02
28.36
30.95
32.60
33.36
33.43
33.14
32.72
32.28
31.73
30.95
29.89
28.65
27.45
26.50
25.85
25.28
24.40
22.80
20.29
17.00
13.30
9.65
6.37
3.55
0.98
-1.58
-4.32
-7.27
-10.25
-13.03
-15.39
-17.26
-18.75
-20.14
-21.82
-24.18
-27.50
-31.77
-36.58
-41.12
-44.28
-45.01
-42.57
-36.84
-28.42
-18.48
-8.33
0.85
8.35
14.05
18.18
21.20
23.46
25.17
26.37
27.10
27.40
27.42
27.28
27.07
26.75
26.19
25.30
24.06
22.64
21.28
20.19
19.42
18.76
17.85
16.35
14.11
11.27
8.20
5.30
2.83
0.81
-1.02
-2.96
-5.28
-8.00
-10.97
-13.86
-16.41
-18.52
-20.30
-22.09
-24.25
-27.07
-30.59
-34.63
-38.70
-42.00
-43.65
-42.80
-38.97
-32.23
-23.30
-13.40
-3.93
4.01
9.91
13.89
16.51
18.37
19.87
21.10
21.92
22.24
22.07
21.62
21.16
20.88
20.80
20.80
20.68
20.37
19.88
19.32
18.77
18.24
17.57
16.53
14.98
12.96
10.69
8.46
6.49
4.73
2.93
0.74
-2.04
-5.34
-8.86
-12.16
-14.98
-17.27
-19.24
-21.27
-23.75
-26.90
-30.74
-35.01
-39.11
-42.20
-43.36
-41.82
-37.32
-30.23
-21.50
-12.37
-3.92
3.21
8.94
13.61
17.61
21.24
24.49
27.16
28.97
29.76
29.53
28.45
26.77
24.76
22.65
20.66
18.96
17.59
16.52
15.63
14.71
13.60
12.19
10.52
8.64
6.67
4.69
2.71
0.73
-1.31
-3.39
-5.52
-7.64
-9.72
-11.79
-13.85
-16.00
-18.30
-20.80
-23.53
-26.51
-29.67
-32.76
-35.28
-36.47
-35.53
-31.91
-25.62
-17.32
-8.19
0.48
7.68
13.00
16.69
19.34
21.56
23.65
25.58
27.00
27.58
27.18
25.98
24.41
22.94
21.82
20.95
19.98
18.57
16.56
14.15
11.78
9.90
8.73
8.07
7.43
6.27
4.24
1.41
-1.88
-5.15
-8.02
-10.41
-12.46
-14.49
-16.77
-19.43
-22.44
-25.68
-29.02
-32.32
-35.29
-37.42
-37.99
-36.25
-31.80
-24.81
-16.11
-6.96
1.40
8.17
13.14
16.60
19.00
20.67
21.72
22.08
21.72
20.78
19.59
18.55
17.93
17.76
17.85
17.82
17.39
16.41
15.01
13.46
11.95
10.51
8.95
6.91
4.15
0.67
-3.26
-7.20
-10.72
-13.60
-15.82
-17.58
-19.17
-20.88
-22.94
-25.54
-28.73
-32.26
-35.55
-37.75
-37.90
-35.35
-30.01
-22.40
-13.59
-4.79
3.00
9.19
13.71
16.83
18.93
20.28
21.03
21.18
20.76
19.89
18.83
17.92
17.42
17.33
17.45
17.43
16.97
16.00
14.65
13.17
11.73
10.30
8.63
6.38
3.44
-0.05
-3.67
-6.90
-9.41
-11.18
-12.54
-14.00
-16.06
-18.99
-22.77
-27.08
-31.35
-34.91
-37.02
-37.04
-34.61
-29.80
-23.18
-15.67
-8.28
-1.77
3.56
7.86
11.56
15.06
18.46
21.61
24.15
25.77
26.43
26.26
25.55
24.55
23.38
22.04
20.54
18.91
17.32
15.94
14.87
14.07
13.34
12.46
11.25
9.65
7.70
5.48
3.03
0.35
-2.52
-5.52
-8.52
-11.37
-14.01
-16.44
-18.71
-20.94
-23.27
-25.84
-28.83
-32.37
-36.41
-40.52
-43.91
-45.50
-44.40
-40.23
-33.30
-24.56
-15.25
-6.46
1.16
7.44
12.60
16.95
20.76
24.13
27.00
29.23
30.73
31.44
31.38
30.72
29.65
28.41
27.20
26.11
25.20
24.52
24.09
23.85
23.68
23.35
22.61
21.24
19.17
16.51
13.48
10.36
7.40
4.71
2.28
0.01
-2.24
-4.65
-7.24
-9.96
-12.66
-15.13
-17.26
-19.12
-20.90
-22.97
-25.65
-29.14
-33.40
-38.10
-42.53
-45.79
-46.87
-45.04
-40.10
-32.58
-23.56
-14.41
-6.21
0.51
5.79
10.06
13.74
17.05
20.02
22.50
24.39
25.73
26.63
27.14
27.29
27.08
26.48
25.62
24.67
23.86
23.37
23.21
23.24
23.15
22.64
21.45
19.56
17.07
14.22
11.28
8.52
6.10
4.12
2.57
1.36
0.29
-0.99
-2.72
-4.97
-7.64
-10.39
-12.86
-14.90
-16.56
-18.14
-20.04
-22.56
-25.85
-29.89
-34.40
-38.84
-42.43
-44.27
-43.58
-40.02
-33.84
-25.89
-17.31
-9.14
-2.04
3.78
8.44
12.21
15.36
18.07
20.43
22.46
24.13
25.33
25.92
25.83
25.14
24.05
22.84
21.79
21.07
20.74
20.74
20.93
21.15
21.20
20.84
19.86
18.12
15.66
12.67
9.45
6.33
3.58
1.38
-0.30
-1.57
-2.68
-3.91
-5.47
-7.41
-9.57
-11.64
-13.30
-14.43
-15.17
-15.88
-17.02
-18.90
-21.61
-25.00
-28.73
-32.32
-35.18
-36.68
-36.23
-33.47
-28.51
-21.92
-14.69
-7.86
-2.20
2.03
5.09
7.49
9.67
11.79
13.67
14.96
15.40
15.03
14.16
13.24
12.61
12.33
12.15
11.69
10.66
9.02
6.96
4.78
2.74
0.97
-0.61
-2.09
-3.57
-5.09
-6.67
-8.27
-9.78
-11.03
-11.84
-12.18
-12.22
-12.43
-13.43
-15.85
-20.05
-26.16
-34.02
-43.38
-53.94
-65.18
-76.25
-85.97
-93.11
-96.78
-96.75
-93.39
-87.32
-79.10
-69.12
-57.76
-45.53
-33.22
-21.62
-11.19
-1.96
6.33
13.88
20.47
25.48
28.21
28.37
26.39
23.35
20.63
19.34
20.06
22.82
27.14
32.45
38.37
44.80
51.99
60.39
70.36
81.95
94.84
108.27
121.25
132.79
142.17
149.02
153.40
155.59
155.85
154.19
150.27
143.53
133.45
119.81
102.89
83.48
62.71
41.87
22.11
4.22
-11.48
-25.12
-37.13
-47.92
-57.70
-66.44
-73.95
-80.08
-84.88
-88.52
-91.18
-92.95
-93.79
-93.79
-93.26
-92.65
-92.12
-91.29
-89.06
-84.02
-75.08
-62.15
-46.29
-29.31
-12.99
1.62
14.42
26.02
37.06
47.70
57.42
65.32
70.59
72.91
72.54
70.00
65.76
59.86
51.97
41.73
29.27
15.41
1.53
-10.88
-20.82
-28.14
-33.53
-38.03
-42.46
-47.04
-51.41
-54.89
-56.96
-57.38
-56.17
-53.45
-49.28
-43.75
-37.16
-30.14
-23.55
-18.09
-14.01
-10.99
-8.42
-5.82
-3.30
-1.43
-0.86
-1.83
-3.85
-5.95
-7.21
-7.26
-6.45
-5.56
-5.21
-5.49
-5.92
-5.81
-4.78
-2.99
-1.07
0.19
0.24
-0.98
-3.14
-5.70
-8.23
-10.56
-12.72
-14.84
-17.16
-19.87
-23.12
-27.07
-31.76
-37.00
-42.31
-46.95
-50.07
-51.09
-49.98
-47.29
-43.95
-40.91
-38.71
-37.37
-36.58
-36.02
-35.80
-36.58
-39.38
-45.08
-54.08
-65.92
-79.33
-92.54
-103.60
-111.06
-114.07
-112.65
-107.46
-99.80
-91.11
-82.54
-74.55
-66.75
-58.28
-48.33
-36.54
-23.12
-8.75
5.99
20.84
35.91
51.45
67.59
84.14
101.00
118.37
136.94
157.61
180.82
205.94
231.28
254.45
273.30
286.50
293.95
296.65
295.92
292.68
286.82
277.55
264.05
246.36
225.55
203.28
180.87
158.56
135.39
109.91
81.27
49.92
17.69
-13.00
-40.13
-62.76
-80.97
-95.48
-106.98
-115.85
-122.26
-126.21
-127.91
-127.79
-126.37
-124.10
-121.20
-117.58
-113.02
-107.55
-101.53
-95.88
-91.63
-89.56
-89.73
-91.36
-93.12
-93.67
-92.34
-89.43
-86.08
-83.76
-83.67
-86.13
-90.39
-94.90
-97.92
-98.30
-95.94
-91.78
-87.22
-83.33
-80.42
-77.91
-74.67
-69.53
-61.61
-50.53
-36.49
-20.33
-3.32
13.06
27.78
40.65
52.49
64.52
77.28
90.01
100.28
105.00
101.71
89.89
71.69
51.92
36.85
32.46
42.38
66.08
98.28
129.95
150.93
153.37
134.53
97.67
50.68
3.10
-37.00
-64.94
-79.68
-82.80
-76.95
-64.94
-49.45
-33.15
-18.73
-8.78
-4.99
-7.49
-14.69
-23.45
-30.38
-32.79
-29.50
-21.08
-9.47
2.83
13.52
20.95
24.31
23.16
17.22
6.14
-10.35
-32.49
-60.17
-92.57
-127.53
-161.04
-187.48
-200.77
-196.52
-174.16
-137.90
-95.57
-55.80
-24.75
-3.92
9.61
21.00
34.46
51.03
68.46
82.94
91.42
93.18
90.08
85.35
82.33
83.40
89.61
100.60
114.76
129.40
141.04
146.22
142.48
129.45
109.33
86.65
66.99
55.37
54.71
65.01
83.27
104.21
121.27
127.91
119.02
91.90
46.89
-12.59
-80.77
-150.93
-216.80
-274.09
-321.51
-360.81
-395.80
-430.31
-465.66
-499.05
-523.64
-530.99
-514.64
-473.29
-411.90
-340.03
-268.09
-203.58
-148.79
-101.09
-55.40
-6.90
46.64
104.69
164.72
223.33
277.16
323.44
360.84
390.04
413.80
435.69
458.73
483.80
508.77
528.81
538.41
533.70
514.15
483.35
447.15
412.09
383.57
364.29
352.85
345.27
336.61
322.95
303.68
279.46
252.25
224.83
199.36
175.28
151.27
126.06
99.18
73.09
47.83
22.26
-4.71
-34.23
-69.11
-110.58
-157.69
-207.30
-251.31
-285.76
-309.41
-322.12
-325.99
-327.52
-333.52
-349.34
-377.50
-412.68
-453.08
-498.73
-550.14
-583.17
-578.60
-527.23
-435.07
-349.28
-281.20
-233.09
-207.58
-195.91
-197.01
-212.73
-241.99
-280.66
-323.35
-361.17
-393.48
-423.20
-451.28
-476.07
-494.50
-502.51
-498.11
-482.76
-457.24
-427.67
-400.07
-376.20
-354.90
-333.72
-310.23
-283.42
-253.46
-218.27
-177.61
-131.27
-78.59
-20.29
41.28
102.76
160.47
211.79
256.98
296.60
331.71
363.36
391.27
413.83
428.41
432.19
423.14
401.23
367.73
325.16
276.91
226.18
175.85
128.10
84.37
45.66
12.63
-14.22
-34.69
-48.96
-57.66
-61.74
-62.31
-60.38
-56.76
-51.93
-46.17
-39.74
-32.92
-26.10
-19.52
-13.30
-7.26
-0.97
6.08
14.26
23.60
33.78
44.30
54.75
65.05
75.58
86.99
100.03
115.09
132.01
150.13
168.58
186.58
203.81
220.43
237.03
254.40
273.45
294.99
319.40
346.15
373.23
397.20
413.85
419.57
412.62
393.89
366.60
335.03
303.00
272.84
245.26
220.00
196.63
175.03
155.30
137.42
120.90
104.79
88.12
70.38
51.96
34.11
18.61
7.04
0.22
-2.20
-1.52
0.47
2.24
3.04
2.94
2.56
2.61
3.36
4.59
5.80
6.50
6.47
5.85
4.91
3.88
2.84
1.66
0.16
-1.75
-4.05
-6.59
-9.23
-11.87
-14.54
-17.26
-20.09
-23.01
-25.89
-28.55
-30.86
-32.74
-34.29
-35.71
-37.23
-39.12
-41.60
-44.88
-49.13
-54.35
-60.29
-66.47
-72.12
-76.46
-78.88
-79.05
-76.98
-72.91
-67.26
-60.58
-53.59
-47.10
-41.86
-38.35
-36.72
-36.76
-38.10
-40.39
-43.41
-47.02
-51.04
-55.11
-58.88
-61.97
-64.18
-65.41
-65.57
-64.46
-61.85
-57.62
-51.90
-45.19
-38.14
-31.37
-25.14
-19.21
-12.95
-5.64
3.10
13.04
23.22
32.29
38.91
42.27
42.35
39.90
36.04
31.87
28.24
25.60
24.25
24.40
26.30
30.09
35.65
42.56
49.99
56.89
62.21
65.21
65.64
63.91
60.92
57.96
56.17
56.12
57.46
58.95
58.94
56.05
49.76
40.72
30.58
21.48
15.33
13.25
15.22
20.15
26.18
31.13
33.15
31.65
27.85
24.88
27.11
38.76
62.53
98.53
143.95
193.55
241.07
280.71
308.21
321.54
320.88
308.34
287.11
260.62
232.25
205.68
185.72
177.87
186.78
213.82
255.21
301.92
342.19
365.98
368.80
353.62
327.81
299.05
271.32
244.02
213.82
177.33
133.99
86.33
39.24
-3.99
-42.57
-77.57
-109.87
-138.69
-162.23
-178.31
-186.13
-185.62
-179.97
-174.35
-174.04
-182.16
-198.64
-221.21
-245.59
-273.02
-298.75
-316.44
-320.83
-311.09
-290.74
-264.84
-239.77
-219.43
-205.31
-195.46
-188.85
-185.24
-184.51
-185.74
-183.70
-173.84
-152.42
-123.78
-89.00
-50.06
-8.90
29.45
59.12
75.57
73.43
50.71
9.27
-45.11
-106.80
-171.57
-236.15
-298.59
-357.62
-416.02
-474.59
-529.87
-573.62
-596.44
-591.27
-555.84
-494.97
-400.55
-282.20
-160.91
-58.28
14.82
60.26
83.13
94.57
102.56
112.61
125.39
141.14
161.01
182.79
201.60
210.39
205.34
189.61
172.79
162.47
162.34
171.10
184.00
196.26
204.67
206.49
200.42
186.60
164.54
134.53
97.51
54.40
6.47
-45.18
-102.03
-165.42
-234.59
-306.49
-374.64
-430.30
-464.67
-472.28
-441.27
-374.93
-290.36
-210.40
-152.32
-121.25
-112.75
-117.89
-128.94
-141.50
-156.84
-174.87
-193.12
-208.00
-215.98
-215.68
-205.77
-186.46
-158.91
-125.88
-89.93
-52.07
-12.88
28.30
70.89
116.10
163.65
211.72
256.37
294.23
324.19
346.11
363.27
378.90
399.32
428.53
467.17
511.91
557.35
598.34
629.37
648.96
629.69
555.67
426.69
259.90
80.53
-89.99
-227.61
-336.26
-421.78
-488.42
-534.65
-558.86
-562.86
-550.13
-525.90
-495.31
-463.98
-433.30
-403.62
-372.02
-336.38
-296.56
-254.41
-213.19
-175.74
-145.17
-121.20
-102.73
-86.62
-70.33
-52.61
-33.51
-14.19
4.14
19.74
32.67
43.35
53.21
63.57
75.31
88.86
104.00
120.22
136.43
152.10
166.83
180.72
194.06
207.31
221.00
235.64
251.86
270.16
290.94
313.56
335.76
353.67
362.69
359.17
341.78
312.23
274.65
234.11
194.96
159.78
129.55
104.43
84.68
70.85
63.44
62.24
66.03
72.97
81.43
90.65
100.89
113.17
128.33
146.37
166.06
185.19
201.22
211.95
215.95
212.48
201.36
182.67
156.98
125.55
90.44
54.27
19.75
-11.04
-37.03
-57.96
-73.95
-85.04
-91.12
-92.26
-89.18
-83.35
-76.68
-70.97
-67.34
-66.18
-67.29
-70.18
-74.33
-79.24
-84.42
-89.36
-93.57
-96.54
-97.76
-96.83
-93.49
-87.94
-80.87
-73.38
-66.61
-61.25
-57.33
-54.28
-51.33
-47.93
-43.99
-39.78
-35.66
-31.90
-28.59
-25.66
-23.05
-20.74
-18.73
-17.01
-15.55
-14.37
-13.49
-13.01
-12.96
-13.25
-13.76
-14.29
-14.70
-14.95
-15.12
-15.27
-15.50
-15.81
-16.18
-16.51
-16.76
-16.83
-16.76
-16.62
-16.52
-16.61
-16.98
-17.62
-18.31
-18.69
-18.18
-16.25
-12.55
-7.08
-0.36
6.76
13.31
18.64
22.60
25.62
28.49
31.84
35.95
40.50
44.86
48.38
50.74
52.07
52.83
53.52
54.31
54.83
54.27
51.60
45.93
36.64
23.55
6.73
-13.42
-36.19
-60.41
-84.47
-106.51
-124.97
-138.97
-148.30
-153.06
-152.85
-146.53
-132.48
-109.61
-78.47
-41.66
-3.52
31.20
58.72
77.15
86.58
88.47
84.76
77.25
67.50
56.85
46.49
37.39
30.13
24.80
21.16
18.69
16.76
14.80
12.47
9.59
6.12
2.13
-2.43
-7.78
-14.25
-22.04
-30.85
-39.74
-47.39
-52.60
-54.79
-54.27
-51.97
-48.89
-45.49
-41.61
-36.91
-31.19
-24.68
-17.89
-11.31
-5.25
-0.03
3.84
5.71
5.12
2.38
-1.22
-3.93
-4.71
-4.27
-5.23
-11.03
-23.96
-43.60
-66.61
-88.21
-104.25
-112.83
-114.35
-110.35
-102.16
-90.12
-74.08
-54.30
-32.37
-10.86
7.60
21.42
30.58
36.06
38.99
40.20
40.37
40.45
41.89
46.41
55.14
68.08
84.02
101.38
119.13
137.23
156.13
175.78
194.83
210.78
220.99
224.03
220.48
212.67
203.64
196.11
192.18
193.37
200.60
213.67
230.44
246.59
256.31
254.11
237.05
205.86
164.40
117.88
70.67
25.06
-18.76
-61.46
-103.49
-144.32
-182.83
-218.03
-249.89
-279.50
-308.58
-338.89
-371.91
-408.83
-450.53
-496.89
-545.69
-591.75
-627.28
-643.91
-635.63
-601.49
-546.28
-478.74
-408.18
-341.39
-281.10
-226.65
-175.95
-127.16
-79.77
-34.28
8.59
48.62
86.02
121.20
154.19
184.54
211.68
235.14
254.63
270.01
280.99
286.79
286.17
277.41
259.23
232.52
200.51
168.14
140.70
122.06
113.51
113.78
119.43
126.53
132.66
136.91
139.24
139.36
136.34
128.51
114.58
94.09
63.56
23.64
-20.19
-59.23
-85.72
-95.59
-91.39
-76.81
-54.69
-26.43
6.62
43.08
81.32
119.40
155.19
185.90
208.55
219.93
217.64
201.01
171.61
132.75
88.38
42.39
-2.28
-42.96
-77.72
-102.41
-113.69
-111.54
-100.06
-86.57
-76.05
-71.34
-73.20
-81.00
-92.72
-106.10
-118.66
-127.64
-130.48
-125.52
-113.15
-95.86
-77.63
-62.71
-54.79
-55.81
-65.46
-81.19
-98.60
-112.53
-117.86
-110.53
-88.77
-54.01
-10.52
35.58
77.93
111.27
132.03
138.66
131.70
113.48
87.44
57.61
27.60
-0.09
-24.54
-46.07
-65.56
-83.39
-98.93
-111.03
-118.38
-120.31
-116.87
-108.88
-97.47
-83.93
-69.51
-55.47
-43.02
-33.05
-25.82
-20.66
-16.27
-11.08
-3.90
5.64
16.96
28.81
40.00
49.83
58.49
66.77
75.58
85.34
95.61
105.11
112.12
115.00
112.62
104.61
91.34
73.86
53.63
32.32
11.65
-6.81
-21.77
-32.36
-38.29
-39.86
-38.01
-34.16
-29.79
-26.01
-23.24
-21.15
-18.89
-15.54
-10.57
-4.12
3.00
9.56
14.36
16.43
15.23
10.73
3.34
-6.14
-16.45
-26.14
-33.81
-38.46
-39.72
-37.95
-33.89
-28.48
-22.48
-16.35
-10.37
-4.67
0.56
5.13
8.92
11.89
14.11
15.77
17.12
18.41
19.84
21.49
23.27
25.03
26.53
27.62
28.25
28.46
28.22
27.44
25.95
23.56
20.22
16.03
11.27
6.32
1.61
-2.56
-6.02
-8.80
-11.23
-13.82
-17.18
-21.76
-27.66
-34.35
-40.72
-45.34
-46.76
-44.07
-37.21
-27.05
-15.22
-3.61
6.17
13.27
17.62
19.97
21.43
23.15
25.88
29.86
34.78
40.06
45.04
49.29
52.66
55.31
57.56
59.68
61.75
63.63
64.90
65.07
63.61
60.12
54.32
46.14
35.80
23.80
10.88
-2.08
-14.14
-24.53
-32.84
-39.19
-44.15
-48.48
-52.80
-57.27
-61.34
-63.90
-63.67
-59.68
-51.73
-40.58
-27.71
-14.87
-3.54
5.53
12.34
17.46
21.56
25.10
28.16
30.57
32.08
32.59
32.23
31.25
29.92
28.45
26.93
25.44
24.08
22.93
22.00
21.21
20.30
18.98
17.06
14.49
11.35
7.89
4.37
1.07
-1.78
-4.14
-6.12
-8.12
-10.63
-14.13
-18.77
-24.20
-29.58
-33.83
-35.96
-35.40
-32.20
-26.98
-20.71
-14.39
-8.81
-4.39
-1.12
1.33
3.47
5.73
8.22
10.72
12.79
13.98
14.05
13.09
11.42
9.42
7.36
5.38
3.56
2.01
0.90
0.41
0.50
0.98
1.57
2.07
2.58
3.37
4.71
6.55
8.56
10.10
10.67
10.11
8.72
7.06
5.72
5.05
5.12
5.90
7.27
9.14
11.40
13.94
16.78
20.16
24.57
30.52
38.14
46.78
55.04
61.07
63.28
60.95
54.54
45.45
35.52
26.35
18.85
13.23
9.21
6.38
4.48
3.42
3.18
3.74
4.99
6.69
8.71
10.89
13.19
15.71
18.68
22.49
27.65
34.63
43.54
54.11
65.51
76.68
86.56
94.35
99.57
102.07
101.81
98.82
93.19
85.17
75.27
64.22
52.82
41.76
31.37
21.72
12.54
3.39
-6.21
-16.66
-28.10
-40.38
-53.10
-65.67
-77.51
-88.22
-97.52
-105.32
-111.52
-116.06
-118.96
-120.36
-120.58
-119.94
-118.69
-116.90
-114.53
-111.61
-108.39
-105.34
-103.00
-101.64
-101.17
-101.02
-100.54
-99.00
-95.81
-90.44
-82.37
-71.22
-57.00
-40.32
-22.35
-4.56
11.65
25.39
36.32
44.58
50.43
54.07
55.67
55.46
53.83
51.36
48.68
46.21
44.20
42.59
41.11
39.47
37.46
35.05
32.41
29.82
27.43
25.30
23.18
20.67
17.39
13.15
8.08
2.61
-2.70
-7.38
-11.19
-14.20
-16.82
-19.58
-22.94
-26.98
-31.31
-35.10
-37.26
-36.89
-33.68
-28.01
-20.80
-13.18
-6.00
0.27
5.60
10.22
14.39
18.25
21.77
24.87
27.39
29.25
30.34
30.61
30.05
28.72
26.73
24.29
21.63
18.96
16.48
14.35
12.68
11.47
10.62
9.91
9.02
7.57
5.32
2.20
-1.51
-5.35
-8.75
-11.37
-13.16
-14.43
-15.66
-17.27
-19.48
-22.23
-25.26
-28.11
-30.30
-31.25
-30.49
-27.74
-23.10
-17.08
-10.51
-4.27
1.04
5.26
8.59
11.43
14.06
16.51
18.56
20.01
20.78
21.08
21.33
21.95
23.10
24.60
25.97
26.73
26.62
25.79
24.57
23.32
22.10
20.70
18.67
15.66
11.56
6.57
1.20
-3.91
-8.07
-10.75
-11.68
-11.03
-9.45
-8.04
-8.12
-10.76
-16.48
-25.06
-35.60
-46.72
-56.97
-65.12
-70.38
-72.54
-71.77
-68.44
-62.94
-55.49
-46.19
-35.16
-22.81
-9.88
2.58
13.52
22.30
28.81
33.57
37.37
40.96
44.70
48.45
51.80
54.15
55.07
54.35
52.01
48.17
42.96
36.47
28.78
20.12
10.84
1.53
-7.16
-14.57
-20.30
-24.20
-26.44
-27.32
-27.17
-26.21
-24.58
-22.47
-20.26
-18.40
-17.28
-16.97
-17.15
-17.28
-16.87
-15.69
-13.83
-11.60
-9.24
-6.79
-4.09
-0.97
2.65
6.58
10.47
13.89
16.49
18.08
18.67
18.43
17.65
16.64
15.63
14.71
13.86
13.08
12.38
11.86
11.56
11.39
11.13
10.39
8.78
6.10
2.39
-1.99
-6.52
-10.67
-14.01
-16.35
-17.81
-18.78
-19.78
-21.36
-23.85
-27.20
-30.97
-34.31
-36.29
-36.13
-33.47
-28.44
-21.66
-14.03
-6.44
0.33
5.89
10.24
13.58
16.29
18.68
20.86
22.73
24.13
24.87
24.88
24.20
22.97
21.43
19.76
18.14
16.62
15.21
13.86
12.54
11.27
10.02
8.74
7.28
5.46
3.18
0.48
-2.48
-5.39
-8.00
-10.19
-12.01
-13.68
-15.46
-17.59
-20.21
-23.40
-26.96
-30.45
-33.21
-34.42
-33.49
-30.28
-25.20
-19.07
-12.85
-7.21
-2.34
1.97
6.11
10.30
14.41
18.06
20.80
22.34
22.70
22.16
21.08
19.77
18.34
16.78
15.04
13.20
11.40
9.90
8.87
8.31
7.99
7.55
6.68
5.20
3.10
0.51
-2.34
-5.29
-8.16
-10.84
-13.33
-15.68
-18.10
-20.84
-24.10
-27.82
-31.70
-35.08
-37.09
-36.96
-34.32
-29.34
-22.74
-15.57
-8.78
-2.98
1.71
5.59
9.07
12.44
15.69
18.60
20.91
22.44
23.19
23.36
23.21
22.92
22.60
22.26
21.81
21.21
20.47
19.64
18.81
18.05
17.29
16.36
15.01
12.99
10.18
6.72
2.90
-0.90
-4.33
-7.22
-9.54
-11.42
-13.07
-14.73
-16.65
-19.09
-22.19
-25.90
-29.87
-33.45
-35.84
-36.31
-34.43
-30.19
-24.10
-16.96
-9.70
-3.15
2.24
6.39
9.52
11.96
14.02
15.88
17.53
18.94
19.95
20.48
20.52
20.09
19.28
18.15
16.82
15.41
14.14
13.19
12.71
12.71
12.97
13.12
12.80
11.80
10.19
8.22
6.10
3.87
1.35
-1.68
-5.22
-8.89
-12.18
-14.63
-16.09
-16.93
-17.78
-19.25
-21.70
-24.97
-28.52
-31.61
-33.53
-33.74
-31.97
-28.28
-23.07
-17.05
-10.99
-5.50
-0.84
3.13
6.79
10.46
14.21
17.78
20.64
22.38
22.80
22.08
20.66
19.07
17.67
16.66
16.04
15.69
15.53
15.52
15.64
15.85
16.00
15.81
15.03
13.54
11.33
8.56
5.35
1.75
-2.27
-6.71
-11.46
-16.17
-20.40
-23.86
-26.48
-28.45
-30.06
-31.38
-32.22
-32.13
-30.59
-27.37
-22.56
-16.51
-9.70
-2.53
4.74
11.89
18.80
25.38
31.55
37.27
42.49
47.01
50.48
52.59
53.14
52.22
50.18
47.26
43.54
38.69
32.20
23.76
13.57
2.47
-8.32
-17.56
-24.46
-28.71
-30.42
-29.97
-27.72
-23.95
-18.94
-13.07
-6.77
-0.58
4.98
9.37
12.08
12.67
10.85
6.63
0.35
-7.22
-15.06
-22.09
-27.45
-30.62
-31.45
-30.13
-27.01
-22.53
-17.11
-11.20
-5.24
0.28
4.98
8.61
11.09
12.54
13.17
13.21
12.78
11.96
10.78
9.29
7.57
5.70
3.84
2.08
0.53
-0.71
-1.61
-2.25
-2.83
-3.59
-4.72
-6.17
-7.81
-9.36
-10.68
-11.84
-13.13
-14.86
-17.23
-20.10
-23.03
-25.39
-26.50
-25.96
-23.62
-19.72
-14.73
-9.26
-3.94
0.80
4.78
8.04
10.77
13.08
14.97
16.30
16.96
16.92
16.34
15.50
14.67
13.98
13.42
12.85
12.14
11.27
10.31
9.40
8.56
7.72
6.68
5.24
3.29
0.85
-1.92
-4.83
-7.67
-10.34
-12.78
-15.06
-17.33
-19.76
-22.50
-25.50
-28.44
-30.73
-31.61
-30.46
-27.08
-21.82
-15.54
-9.25
-3.81
0.40
3.40
5.54
7.19
8.50
9.46
10.03
10.20
10.12
10.01
10.04
10.24
10.53
10.67
10.50
9.87
8.77
7.27
5.53
3.71
1.99
0.45
-0.97
-2.40
-4.04
-6.06
-8.49
-11.18
-13.98
-16.72
-19.33
-21.76
-23.88
-25.44
-26.02
-25.18
-22.63
-18.50
-13.33
-7.94
-3.15
0.55
3.09
4.78
6.12
7.59
9.39
11.49
13.61
15.42
16.66
17.19
17.02
16.25
15.11
13.81
12.59
11.61
10.90
10.37
9.81
8.93
7.48
5.36
2.69
-0.20
-2.96
-5.37
-7.43
-9.34
-11.44
-14.03
-17.27
-21.09
-25.14
-28.86
-31.58
-32.66
-31.64
-28.44
-23.43
-17.33
-11.08
-5.42
-0.78
2.87
5.87
8.65
11.51
14.49
17.40
19.91
21.77
22.84
23.13
22.76
21.81
20.39
18.64
16.71
14.82
13.19
11.92
10.94
10.08
9.06
7.63
5.76
3.59
1.41
-0.49
-1.94
-3.04
-4.06
-5.38
-7.35
-10.16
-13.74
-17.80
-21.83
-25.15
-27.12
-27.23
-25.32
-21.64
-16.76
-11.45
-6.40
-2.03
1.64
4.79
7.70
10.52
13.23
15.65
17.55
18.79
19.38
19.43
19.02
18.18
16.92
15.25
13.35
11.46
9.90
8.91
8.50
8.35
8.01
7.06
5.33
3.02
0.51
-1.72
-3.43
-4.69
-5.79
-7.14
-9.03
-11.62
-14.76
-18.15
-21.29
-23.62
-24.61
-23.88
-21.32
-17.21
-12.18
-6.98
-2.31
1.46
4.30
6.40
8.12
9.68
11.18
12.49
13.49
14.09
14.30
14.25
14.03
13.73
13.31
12.71
11.92
11.06
10.24
9.53
8.89
8.07
6.91
5.27
3.22
0.98
-1.22
-3.20
-4.90
-6.30
-7.46
-8.41
-9.34
-10.50
-12.22
-14.71
-17.90
-21.38
-24.50
-26.56
-27.03
-25.71
-22.79
-18.65
-13.80
-8.69
-3.73
0.73
4.47
7.40
9.63
11.36
12.83
14.15
15.30
16.19
16.76
17.02
17.07
17.01
16.83
16.49
15.94
15.19
14.30
13.38
12.45
11.44
10.23
8.69
6.72
4.31
1.55
-1.34
-4.12
-6.56
-8.54
-10.09
-11.40
-12.78
-14.46
-16.58
-19.11
-21.81
-24.37
-26.35
-27.33
-26.94
-25.01
-21.61
-17.10
-11.98
-6.78
-1.94
2.29
5.85
8.76
11.13
13.03
14.51
15.63
16.38
16.76
16.80
16.54
16.05
15.41
14.71
13.98
13.20
12.33
11.35
10.38
9.60
9.09
8.76
8.30
7.35
5.68
3.43
1.02
-1.07
-2.57
-3.65
-4.72
-6.32
-8.75
-11.97
-15.67
-19.36
-22.61
-25.04
-26.31
-26.15
-24.42
-21.20
-16.86
-11.95
-7.09
-2.71
0.97
3.96
6.44
8.59
10.51
12.18
13.45
14.19
14.32
13.88
13.09
12.19
11.38
10.69
10.04
9.28
8.32
7.20
6.02
4.89
3.80
2.65
1.28
-0.39
-2.35
-4.41
-6.36
-7.98
-9.23
-10.27
-11.39
-12.86
-14.76
-16.98
-19.10
-20.59
-20.90
-19.71
-17.06
-13.31
-9.03
-4.84
-1.15
1.90
4.48
6.86
9.30
11.83
14.29
16.39
17.88
18.70
18.85
18.44
17.51
16.16
14.46
12.61
10.84
9.35
8.28
7.68
7.40
7.33
7.33
7.26
6.93
6.19
4.87
2.96
0.58
-2.00
-4.42
-6.42
-8.00
-9.42
-11.12
-13.53
-16.78
-20.56
-24.19
-26.76
-27.54
-26.26
-23.12
-18.76
-13.97
-9.36
-5.28
-1.73
1.41
4.32
7.01
9.46
11.52
13.09
14.13
14.76
15.13
15.40
15.67
15.89
15.96
15.66
14.89
13.69
12.19
10.62
9.19
7.98
6.94
5.93
4.75
3.26
1.41
-0.69
-2.83
-4.81
-6.55
-8.17
-9.90
-11.98
-14.48
-17.23
-19.93
-22.15
-23.57
-23.95
-23.22
-21.33
-18.31
-14.30
-9.66
-4.91
-0.61
2.85
5.36
7.14
8.57
9.98
11.45
12.84
13.89
14.34
14.11
13.35
12.32
11.27
10.36
9.58
8.85
8.03
7.08
6.04
5.05
4.13
3.23
2.14
0.66
-1.20
-3.22
-5.08
-6.45
-7.27
-7.78
-8.44
-9.63
-11.55
-14.02
-16.52
-18.45
-19.24
-18.56
-16.42
-13.18
-9.35
-5.52
-2.10
0.79
3.23
5.41
7.44
9.25
10.63
11.43
11.61
11.34
10.93
10.62
10.53
10.62
10.75
10.88
11.00
11.18
11.39
11.53
11.36
10.64
9.23
7.10
4.39
1.30
-1.93
-5.03
-7.73
-9.88
-11.40
-12.39
-13.14
-13.96
-15.13
-16.81
-18.91
-21.13
-22.99
-23.98
-23.64
-21.83
-18.73
-14.88
-10.89
-7.21
-4.07
-1.35
1.14
3.56
5.82
7.76
9.23
10.20
10.80
11.21
11.58
11.96
12.30
12.47
12.35
11.89
11.12
10.21
9.34
8.67
8.26
8.01
7.63
6.80
5.31
3.11
0.41
-2.44
-5.10
-7.31
-9.12
-10.74
-12.51
-14.69
-17.42
-20.52
-23.54
-25.92
-27.03
-26.50
-24.29
-20.69
-16.24
-11.52
-6.98
-2.87
0.75
3.91
6.59
8.77
10.38
11.41
11.91
11.98
11.82
11.56
11.32
11.11
10.89
10.58
10.08
9.44
8.75
8.12
7.57
7.03
6.31
5.22
3.70
1.81
-0.24
-2.25
-4.05
-5.65
-7.08
-8.49
-10.06
-11.90
-14.09
-16.48
-18.76
-20.37
-20.74
-19.50
-16.62
-12.53
-7.94
-3.63
-0.07
2.72
5.04
7.36
9.90
12.57
15.02
16.84
17.75
17.80
17.24
16.33
15.27
14.14
12.95
11.73
10.62
9.71
9.11
8.81
8.66
8.46
7.95
6.88
5.17
2.93
0.38
-2.16
-4.47
-6.52
-8.46
-10.64
-13.32
-16.54
-20.07
-23.40
-25.87
-26.88
-26.08
-23.39
-19.15
-13.97
-8.57
-3.61
0.43
3.49
5.77
7.63
9.46
11.38
13.32
15.06
16.31
16.94
17.02
16.70
16.09
15.32
14.34
13.14
11.79
10.41
9.20
8.27
7.61
7.05
6.40
5.46
4.17
2.65
1.06
-0.43
-1.84
-3.34
-5.28
-7.89
-11.30
-15.38
-19.68
-23.60
-26.45
-27.65
-26.91
-24.29
-20.19
-15.26
-10.21
-5.62
-1.82
1.26
3.91
6.58
9.55
12.87
16.22
19.14
21.15
21.97
21.64
20.47
18.89
17.24
15.76
14.50
13.46
12.64
12.11
11.88
11.86
11.83
11.49
10.60
9.04
6.88
4.33
1.70
-0.74
-2.81
-4.43
-5.72
-6.94
-8.38
-10.31
-12.85
-15.87
-18.96
-21.56
-23.09
-23.15
-21.65
-18.83
-15.11
-10.97
-6.81
-2.87
0.73
3.99
6.89
9.44
11.55
13.19
14.33
14.99
15.33
15.57
15.91
16.37
16.81
16.98
16.62
15.67
14.31
12.80
11.39
10.15
8.98
7.70
6.17
4.41
2.50
0.56
-1.36
-3.25
-5.17
-7.15
-9.24
-11.45
-13.83
-16.40
-19.10
-21.75
-23.95
-25.18
-24.91
-22.84
-19.08
-14.10
-8.72
-3.70
0.37
3.35
5.44
7.03
8.51
10.06
11.70
13.29
14.62
15.56
16.06
16.17
16.03
15.76
15.36
14.75
13.86
12.68
11.37
10.13
9.10
8.16
7.06
5.45
3.19
0.50
-2.18
-4.33
-5.66
-6.23
-6.51
-6.98
-8.07
-9.89
-12.29
-14.94
-17.44
-19.42
-20.54
-20.52
-19.18
-16.55
-12.92
-8.80
-4.83
-1.47
1.14
3.23
5.19
7.36
9.77
12.14
14.02
15.02
15.06
14.34
13.29
12.24
11.36
10.54
9.61
8.52
7.43
6.62
6.37
6.68
7.25
7.61
7.29
6.11
4.21
1.97
-0.22
-2.17
-3.90
-5.60
-7.40
-9.31
-11.30
-13.31
-15.36
-17.38
-19.23
-20.57
-20.95
-20.03
-17.75
-14.40
-10.49
-6.54
-2.85
0.48
3.45
6.07
8.25
9.90
10.98
11.60
11.91
12.08
12.14
12.07
11.85
11.46
10.92
10.27
9.53
8.73
7.91
7.14
6.50
6.05
5.76
5.52
5.12
4.37
3.16
1.49
-0.55
-2.74
-4.88
-6.86
-8.69
-10.49
-12.42
-14.50
-16.57
-18.27
-19.10
-18.69
-16.95
-14.11
-10.62
-7.07
-3.81
-0.99
1.51
3.90
6.31
8.63
10.64
12.10
12.94
13.27
13.34
13.41
13.59
13.73
13.57
12.86
11.52
9.70
7.75
5.96
4.58
3.66
3.05
2.54
1.90
0.96
-0.36
-2.01
-3.94
-6.03
-8.13
-10.18
-12.13
-13.91
-15.46
-16.68
-17.43
-17.56
-16.95
-15.51
-13.30
-10.47
-7.27
-3.98
-0.85
2.04
4.71
7.25
9.68
11.88
13.58
14.42
14.24
13.14
11.56
9.97
8.78
8.10
7.74
7.46
7.03
6.36
5.50
4.51
3.37
2.04
0.51
-1.13
-2.67
-3.90
-4.77
-5.39
-5.98
-6.75
-7.75
-8.92
-10.12
-11.24
-12.19
-12.86
-13.09
-12.61
-11.29
-9.11
-6.35
-3.45
-0.81
1.28
2.84
4.11
5.33
6.57
7.69
8.34
8.15
7.01
5.06
2.72
0.57
-0.93
-1.54
-1.29
-0.41
0.75
1.93
2.92
3.69
4.26
4.69
4.93
4.78
3.93
2.08
-0.79
-4.37
-8.07
-11.20
-13.28
-14.20
-14.33
-14.18
-14.20
-14.56
-15.09
-15.51
-15.48
-14.89
-13.78
-12.29
-10.70
-9.26
-8.21
-7.70
-7.78
-8.35
-9.28
-10.39
-11.62
-13.03
-14.87
-17.50
-21.45
-27.37
-35.79
-46.67
-58.98
-70.63
-79.05
-82.37
-80.31
-74.35
-66.94
-60.04
-53.90
-47.00
-37.01
-22.26
-2.91
19.05
40.89
60.43
76.53
88.72
96.45
98.79
94.86
84.63
69.45
52.17
36.39
25.22
20.29
21.43
27.13
35.28
43.68
50.47
54.42
55.18
53.43
50.82
49.83
52.50
60.11
72.89
88.16
100.21
102.72
90.86
63.29
22.77
-24.59
-71.24
-110.38
-137.54
-150.95
-151.16
-140.53
-122.53
-100.90
-78.66
-57.30
-36.97
-17.44
0.81
15.86
24.79
25.01
15.90
-0.68
-21.15
-41.81
-60.01
-74.17
-82.97
-84.68
-77.48
-60.56
-35.44
-6.17
21.80
43.54
56.39
60.56
58.30
52.56
45.81
39.46
34.06
29.74
26.42
24.09
22.67
22.16
22.52
23.72
25.68
28.17
30.90
33.52
35.66
37.04
37.49
36.89
35.17
32.26
28.29
23.57
18.65
14.17
10.64
8.24
6.76
5.73
4.65
3.16
1.26
-0.82
-2.68
-4.02
-4.74
-5.09
-5.56
-6.64
-8.69
-11.63
-14.98
-17.98
-19.92
-20.41
-19.50
-17.62
-15.30
-12.95
-10.69
-8.41
-5.90
-3.04
0.04
3.07
5.67
7.55
8.52
8.59
7.89
6.67
5.25
3.92
2.88
2.17
1.72
1.41
1.04
0.50
-0.22
-1.17
-2.36
-3.82
-5.60
-7.68
-10.02
-12.53
-15.13
-17.68
-20.06
-21.92
-22.90
-22.61
-20.92
-18.03
-14.45
-10.81
-7.53
-4.71
-2.08
0.64
3.65
6.79
9.68
11.92
13.33
14.01
14.25
14.39
14.54
14.61
14.38
13.63
12.29
10.45
8.34
6.12
3.94
1.87
-0.12
-1.97
-3.70
-5.33
-6.99
-8.86
-11.08
-13.59
-16.12
-18.20
-19.34
-19.26
-17.94
-15.63
-12.75
-9.55
-6.23
-2.80
0.76
4.38
7.90
11.07
13.70
15.69
17.08
17.94
18.36
18.33
17.88
17.03
15.86
14.50
13.10
11.75
10.42
9.01
7.39
5.48
3.32
1.07
-1.06
-2.90
-4.43
-5.83
-7.42
-9.47
-12.13
-15.22
-18.33
-20.86
-22.25
-22.15
-20.46
-17.44
-13.49
-9.05
-4.47
-0.05
4.03
7.60
10.52
12.73
14.25
15.16
15.55
15.56
15.26
14.73
14.09
13.45
12.91
12.51
12.24
11.99
11.66
11.18
10.49
9.57
8.35
6.80
4.95
2.92
0.88
-1.00
-2.69
-4.22
-5.79
-7.56
-9.55
-11.62
-13.53
-14.95
-15.67
-15.63
-14.85
-13.42
-11.41
-8.86
-5.83
-2.43
1.20
4.85
8.25
11.14
13.28
14.59
15.17
15.22
14.95
14.53
14.03
13.42
12.64
11.71
10.70
9.75
8.89
8.11
7.28
6.24
4.90
3.30
1.59
-0.06
-1.53
-2.86
-4.22
-5.83
-7.80
-10.10
-12.48
-14.60
-16.18
-17.02
-17.09
-16.49
-15.37
-13.80
-11.85
-9.51
-6.82
-3.92
-1.04
1.59
3.81
5.64
7.29
8.95
10.64
12.17
13.19
13.48
13.20
12.69
12.41
12.55
12.90
13.03
12.57
11.40
9.80
8.16
6.79
5.65
4.48
2.99
1.06
-1.11
-3.16
-4.77
-5.82
-6.56
-7.39
-8.65
-10.44
-12.55
-14.49
-15.76
-16.02
-15.13
-13.22
-10.60
-7.59
-4.46
-1.38
1.56
4.23
6.52
8.32
9.60
10.37
10.77
10.92
10.89
10.65
10.07
9.07
7.73
6.25
4.90
3.92
3.35
3.12
3.06
2.99
2.80
2.48
2.05
1.52
0.93
0.18
-0.79
-2.05
-3.63
-5.48
-7.52
-9.61
-11.61
-13.42
-14.93
-15.99
-16.31
-15.61
-13.67
-10.59
-6.76
-2.80
0.65
3.21
4.92
6.07
7.02
7.96
8.82
9.31
9.30
8.76
7.98
7.30
6.95
6.86
6.83
6.56
5.89
4.86
3.64
2.42
1.31
0.35
-0.52
-1.31
-2.00
-2.65
-3.33
-4.26
-5.61
-7.49
-9.74
-12.03
-13.93
-15.12
-15.45
-14.98
-13.84
-12.18
-10.14
-7.87
-5.52
-3.32
-1.45
0.12
1.59
3.22
5.20
7.43
9.50
10.97
11.49
10.99
9.76
8.21
6.71
5.45
4.45
3.59
2.77
1.97
1.24
0.63
0.08
-0.55
-1.41
-2.53
-3.79
-4.94
-5.82
-6.42
-6.95
-7.74
-9.06
-10.89
-12.87
-14.45
-15.02
-14.20
-11.96
-8.60
-4.58
-0.37
3.75
7.61
11.19
14.40
17.01
18.73
19.34
18.84
17.57
16.00
14.56
13.39
12.30
10.92
8.94
6.31
3.27
0.23
-2.45
-4.63
-6.38
-7.87
-9.27
-10.66
-12.00
-13.26
-14.44
-15.55
-16.64
-17.64
-18.36
-18.53
-17.88
-16.33
-14.01
-11.27
-8.51
-5.98
-3.76
-1.76
0.18
2.05
3.74
4.99
5.62
5.56
4.98
4.20
3.44
2.87
2.42
2.01
1.50
0.87
0.16
-0.55
-1.21
-1.84
-2.55
-3.42
-4.56
-6.02
-7.83
-9.94
-12.26
-14.63
-16.78
-18.39
-19.13
-18.77
-17.24
-14.71
-11.48
-7.99
-4.60
-1.57
1.07
3.38
5.48
7.49
9.38
11.06
12.33
13.10
13.33
13.12
12.57
11.71
10.53
8.95
6.93
4.54
2.02
-0.29
-2.05
-3.10
-3.52
-3.67
-4.05
-5.11
-7.09
-9.92
-13.27
-16.58
-19.27
-20.75
-20.63
-18.84
-15.58
-11.40
-6.99
-2.96
0.41
3.16
5.66
8.23
11.00
13.79
16.24
17.98
18.74
18.51
17.43
15.75
13.72
11.61
9.66
8.02
6.73
5.69
4.71
3.56
2.15
0.50
-1.26
-3.02
-4.74
-6.50
-8.41
-10.63
-13.18
-15.93
-18.62
-20.90
-22.38
-22.64
-21.41
-18.65
-14.58
-9.66
-4.46
0.58
5.12
9.06
12.40
15.12
17.19
18.59
19.36
19.63
19.59
19.38
19.07
18.62
17.97
17.05
15.83
14.29
12.44
10.34
8.13
6.01
4.13
2.59
1.38
0.31
-0.82
-2.17
-3.81
-5.78
-8.15
-11.01
-14.39
-18.09
-21.61
-24.18
-25.01
-23.71
-20.35
-15.52
-10.01
-4.50
0.59
5.10
9.04
12.36
14.94
16.63
17.41
17.38
16.86
16.12
15.41
14.79
14.22
13.64
12.99
12.35
11.73
11.16
10.52
9.72
8.64
7.27
5.71
4.10
2.55
1.07
-0.40
-1.98
-3.69
-5.54
-7.46
-9.46
-11.62
-13.99
-16.55
-19.01
-20.93
-21.80
-21.20
-19.04
-15.51
-11.09
-6.28
-1.54
2.88
6.84
10.23
12.94
14.86
15.94
16.26
16.06
15.64
15.29
15.16
15.24
15.35
15.28
14.87
14.05
12.91
11.62
10.31
8.97
7.51
5.85
3.95
1.89
-0.17
-2.02
-3.53
-4.70
-5.64
-6.60
-7.84
-9.60
-11.94
-14.73
-17.58
-19.92
-21.16
-20.85
-18.87
-15.41
-10.95
-6.02
-1.11
3.40
7.29
10.38
12.64
14.07
14.81
15.00
14.87
14.58
14.21
13.72
13.08
12.26
11.28
10.22
9.17
8.20
7.27
6.34
5.31
4.14
2.89
1.60
0.31
-0.98
-2.26
-3.63
-5.14
-6.93
-9.10
-11.72
-14.72
-17.84
-20.58
-22.36
-22.68
-21.28
-18.27
-14.13
-9.42
-4.78
-0.55
3.10
6.22
8.91
11.17
12.90
13.97
14.33
14.05
13.38
12.58
11.82
11.14
10.43
9.60
8.59
7.48
6.30
5.09
3.73
2.10
0.22
-1.80
-3.68
-5.19
-6.20
-6.84
-7.28
-7.74
-8.34
-9.12
-10.09
-11.33
-12.96
-14.98
-17.16
-18.97
-19.77
-19.02
-16.56
-12.66
-7.97
-3.20
1.08
4.70
7.69
10.20
12.34
14.06
15.23
15.77
15.66
15.09
14.33
13.66
13.20
12.96
12.79
12.46
11.84
10.85
9.55
7.99
6.20
4.12
1.75
-0.90
-3.76
-6.71
-9.65
-12.56
-15.41
-18.04
-20.15
-21.28
-20.98
-19.08
-15.69
-11.32
-6.67
-2.36
1.23
4.03
6.23
8.04
9.56
10.72
11.30
11.15
10.30
9.01
7.60
6.34
5.32
4.43
3.54
2.51
1.38
0.27
-0.71
-1.60
-2.55
-3.82
-5.56
-7.71
-10.07
-12.39
-14.52
-16.53
-18.57
-20.71
-22.79
-24.39
-24.95
-24.09
-21.69
-18.01
-13.56
-8.80
-4.09
0.42
4.58
8.31
11.43
13.82
15.45
16.42
16.91
17.05
16.89
16.35
15.35
13.85
12.01
10.07
8.24
6.62
5.17
3.77
2.32
0.79
-0.74
-2.20
-3.59
-5.00
-6.60
-8.58
-10.97
-13.64
-16.22
-18.20
-19.04
-18.36
-16.08
-12.40
-7.73
-2.59
2.55
7.25
11.21
14.17
16.01
16.76
16.61
15.80
14.53
12.95
11.17
9.34
7.65
6.38
5.70
5.59
5.79
5.91
5.53
4.45
2.62
0.23
-2.48
-5.31
-8.07
-10.68
-13.10
-15.32
-17.37
-19.33
-21.19
-22.89
-24.24
-24.89
-24.46
-22.65
-19.39
-14.94
-9.83
-4.67
0.08
4.20
7.73
10.81
13.57
15.94
17.70
18.66
18.71
17.94
16.64
15.14
13.73
12.57
11.65
10.89
10.17
9.40
8.57
7.72
6.84
5.87
4.69
3.17
1.24
-1.03
-3.51
-6.01
-8.47
-10.95
-13.69
-16.81
-20.19
-23.36
-25.53
-25.98
-24.34
-20.75
-15.79
-10.28
-4.92
-0.09
4.14
7.87
11.15
13.90
16.01
17.38
18.07
18.14
17.70
16.76
15.35
13.52
11.50
9.59
8.09
7.14
6.66
6.35
5.84
4.86
3.30
1.30
-0.94
-3.21
-5.38
-7.43
-9.42
-11.45
-13.59
-15.85
-18.26
-20.80
-23.38
-25.88
-28.04
-29.56
-30.15
-29.62
-27.95
-25.25
-21.74
-17.59
-12.96
-7.86
-2.30
3.62
9.72
15.72
21.38
26.50
31.05
35.06
38.56
41.57
43.91
45.29
45.39
43.98
41.07
37.00
32.20
27.12
22.04
16.99
11.89
6.66
1.32
-3.97
-9.00
-13.65
-17.90
-21.72
-24.97
-27.23
-27.93
-26.59
-23.07
-17.73
-11.28
-4.71
1.13
5.73
8.94
10.92
11.94
12.24
12.03
11.50
10.82
10.19
9.71
9.43
9.26
9.11
8.86
8.47
7.89
7.08
5.98
4.56
2.83
0.89
-1.13
-3.10
-4.92
-6.61
-8.20
-9.82
-11.61
-13.70
-16.19
-19.05
-22.06
-24.76
-26.60
-26.96
-25.46
-22.06
-17.12
-11.32
-5.37
0.11
4.81
8.64
11.68
13.97
15.51
16.25
16.19
15.54
14.64
13.87
13.47
13.42
13.39
12.98
11.85
9.95
7.43
4.60
1.74
-1.01
-3.68
-6.34
-9.04
-11.80
-14.68
-17.66
-20.68
-23.51
-25.69
-26.69
-26.01
-23.47
-19.23
-13.91
-8.27
-3.01
1.42
4.91
7.65
9.90
11.87
13.58
14.91
15.74
16.09
16.15
16.13
16.17
16.14
15.65
14.33
11.97
8.73
5.04
1.42
-1.77
-4.45
-6.84
-9.27
-12.11
-15.51
-19.45
-23.65
-27.60
-30.74
-32.52
-32.59
-30.83
-27.44
-22.82
-17.47
-11.88
-6.41
-1.24
3.56
7.98
12.07
15.87
19.32
22.36
24.86
26.71
27.81
28.18
27.91
27.05
25.69
23.85
21.54
18.83
15.88
12.90
10.13
7.66
5.35
2.88
-0.09
-3.75
-7.97
-12.27
-16.01
-18.51
-19.30
-18.21
-15.41
-11.35
-6.57
-1.58
3.15
7.33
10.77
13.34
14.94
15.52
15.10
13.83
11.96
9.76
7.54
5.51
3.71
2.09
0.55
-0.98
-2.55
-4.09
-5.52
-6.76
-7.86
-8.99
-10.34
-12.03
-14.06
-16.34
-18.75
-21.18
-23.50
-25.44
-26.58
-26.30
-24.11
-19.90
-14.05
-7.36
-0.75
5.14
10.08
14.23
17.77
20.72
22.82
23.79
23.52
22.26
20.49
18.75
17.33
16.18
15.00
13.39
11.13
8.23
4.91
1.54
-1.56
-4.12
-6.09
-7.56
-8.79
-10.05
-11.61
-13.66
-16.22
-19.15
-22.12
-24.55
-25.76
-25.15
-22.45
-17.84
-12.02
-5.85
-0.02
5.13
9.63
13.65
17.23
20.17
22.10
22.72
22.10
20.66
19.04
17.78
17.08
16.74
16.31
15.42
13.91
11.98
9.93
8.07
6.50
5.15
3.83
2.32
0.55
-1.53
-3.91
-6.67
-9.85
-13.54
-17.69
-22.07
-26.21
-29.43
-31.02
-30.48
-27.74
-23.13
-17.34
-11.11
-5.07
0.41
5.18
