1539087579.00
64.000000
-0.00
-0.00
-0.00
-0.00
-0.00
-0.00
-0.00
-0.00
-0.00
-0.00
0.00
0.01
0.01
-0.00
-0.03
-0.05
-0.05
0.00
0.13
0.36
0.66
1.01
1.37
1.72
2.06
2.40
2.79
3.24
3.80
4.42
5.06
5.68
6.23
6.73
7.23
7.82
8.55
9.52
10.65
11.83
12.95
13.95
14.88
15.90
17.22
19.00
21.45
24.39
27.55
30.62
33.45
36.11
38.91
42.29
46.60
52.21
58.78
65.81
72.69
79.09
85.06
91.11
97.97
106.18
116.33
127.93
140.18
152.21
163.43
173.85
184.14
195.67
207.20
221.04
237.83
257.71
279.44
300.06
315.18
320.16
311.65
288.85
254.22
211.68
165.62
119.24
74.01
30.08
-12.70
-54.04
-93.08
-128.34
-158.96
-184.46
-204.78
-219.78
-229.53
-233.88
-232.61
-225.88
-214.17
-198.74
-181.12
-162.97
-145.59
-129.81
-115.84
-103.50
-92.48
-82.47
-73.53
-65.50
-58.54
-52.94
-48.98
-46.76
-46.21
-47.04
-48.79
-51.00
-53.26
-55.50
-57.95
-61.08
-65.42
-71.32
-78.81
-87.51
-96.80
-106.03
-114.84
-123.29
-131.74
-140.79
-151.17
-163.65
-178.83
-196.79
-216.56
-235.90
-251.51
-259.96
-258.95
-248.21
-229.68
-206.69
-182.68
-159.99
-139.57
-121.22
-104.47
-89.11
-75.40
-63.63
-53.74
-45.14
-36.95
-28.42
-19.34
-10.09
-1.53
5.50
10.56
13.75
15.71
17.29
19.20
21.76
24.87
28.06
30.84
32.85
33.96
34.24
33.84
32.93
31.84
30.99
30.92
32.02
34.33
37.38
40.41
42.63
43.59
43.33
42.23
40.76
39.14
37.34
35.22
32.69
29.91
27.20
24.84
22.90
21.25
19.61
17.75
15.55
13.09
10.57
8.22
6.17
4.47
2.99
1.56
0.02
-1.67
-3.44
-5.13
-6.64
-7.95
-9.17
-10.40
-11.74
-13.15
-14.55
-15.85
-17.03
-18.13
-19.23
-20.38
-21.58
-22.75
-23.81
-24.69
-25.30
-25.58
-25.46
-24.86
-23.82
-22.40
-20.69
-18.83
-16.92
-15.04
-13.30
-11.84
-10.76
-10.19
-10.16
-10.65
-11.54
-12.62
-13.64
-14.33
-14.52
-14.12
-13.19
-11.85
-10.23
-8.48
-6.67
-4.87
-3.10
-1.36
0.42
2.30
4.35
6.57
8.94
11.38
13.84
16.31
18.79
21.30
23.87
26.50
29.21
32.03
34.97
37.94
40.86
43.62
46.14
48.43
50.55
52.57
54.49
56.31
58.01
59.63
61.23
62.87
64.53
66.11
67.40
68.21
68.42
68.03
67.14
65.94
64.55
63.10
61.61
60.05
58.36
56.46
54.31
51.89
49.26
46.50
43.72
40.98
38.30
35.66
33.05
30.44
27.87
25.38
23.01
20.79
18.75
16.90
15.26
13.81
12.51
11.28
10.11
9.01
8.03
7.21
6.57
6.07
5.61
5.11
4.56
3.96
3.34
2.72
2.11
1.49
0.85
0.27
-0.20
-0.48
-0.53
-0.40
-0.16
0.09
0.26
0.28
0.14
-0.15
-0.52
-0.91
-1.26
-1.50
-1.62
-1.58
-1.42
-1.15
-0.86
-0.63
-0.55
-0.66
-0.89
-1.16
-1.33
-1.33
-1.14
-0.83
-0.51
-0.28
-0.17
-0.18
-0.28
-0.41
-0.51
-0.57
-0.59
-0.61
-0.68
-0.84
-1.05
-1.26
-1.37
-1.33
-1.14
-0.86
-0.57
-0.32
-0.14
-0.06
-0.08
-0.20
-0.41
-0.67
-0.93
-1.13
-1.22
-1.21
-1.10
-0.89
-0.60
-0.28
0.01
0.18
0.19
0.05
-0.13
-0.18
0.01
0.46
1.01
1.43
1.51
1.20
0.59
-0.07
-0.56
-0.80
-0.84
-0.82
-0.88
-1.06
-1.30
-1.45
-1.45
-1.29
-1.08
-0.94
-0.95
-1.10
-1.29
-1.42
-1.40
-1.25
-1.03
-0.82
-0.69
-0.67
-0.73
-0.83
-0.90
-0.86
-0.67
-0.35
0.01
0.32
0.49
0.51
0.48
0.49
0.57
0.68
0.70
0.57
0.33
0.11
0.08
0.27
0.55
0.73
0.66
0.32
-0.14
-0.53
-0.72
-0.74
-0.67
-0.62
-0.60
-0.59
-0.50
-0.33
-0.13
-0.01
-0.04
-0.26
-0.62
-1.04
-1.41
-1.61
-1.55
-1.24
-0.74
-0.16
0.33
0.64
0.73
0.63
0.40
0.13
-0.16
-0.41
-0.56
-0.57
-0.43
-0.16
0.16
0.40
0.49
0.38
0.10
-0.23
-0.49
-0.55
-0.40
-0.06
0.33
0.63
0.73
0.61
0.32
-0.03
-0.31
-0.47
-0.47
-0.36
-0.21
-0.07
0.00
-0.02
-0.15
-0.34
-0.56
-0.75
-0.88
-0.91
-0.85
-0.69
-0.45
-0.14
0.21
0.53
0.75
0.80
0.64
0.34
-0.00
-0.26
-0.38
-0.35
-0.27
-0.21
-0.22
-0.31
-0.45
-0.61
-0.79
-0.98
-1.13
-1.16
-1.00
-0.63
-0.13
0.30
0.49
0.36
-0.02
-0.47
-0.78
-0.82
-0.64
-0.32
-0.01
0.20
0.31
0.37
0.43
0.47
0.48
0.41
0.26
0.04
-0.17
-0.32
-0.35
-0.28
-0.13
0.03
0.13
0.13
0.03
-0.13
-0.31
-0.43
-0.49
-0.48
-0.41
-0.26
-0.01
0.33
0.71
1.00
1.11
1.02
0.79
0.54
0.35
0.23
0.13
-0.02
-0.21
-0.35
-0.35
-0.16
0.17
0.53
0.78
0.81
0.60
0.21
-0.26
-0.71
-1.02
-1.13
-1.06
-0.84
-0.56
-0.29
-0.10
0.04
0.13
0.20
0.25
0.26
0.22
0.16
0.10
0.10
0.16
0.24
0.28
0.25
0.12
-0.07
-0.27
-0.44
-0.57
-0.66
-0.70
-0.69
-0.58
-0.40
-0.16
0.09
0.33
0.55
0.76
0.95
1.07
1.02
0.74
0.27
-0.30
-0.82
-1.13
-1.17
-0.98
-0.65
-0.31
-0.05
0.09
0.11
0.04
-0.07
-0.22
-0.38
-0.52
-0.58
-0.53
-0.38
-0.18
-0.02
0.03
-0.01
-0.06
-0.01
0.19
0.51
0.80
0.91
0.78
0.46
0.10
-0.16
-0.24
-0.17
-0.05
0.04
0.07
0.06
0.06
0.10
0.20
0.33
0.41
0.42
0.30
0.07
-0.22
-0.52
-0.72
-0.81
-0.77
-0.64
-0.44
-0.20
0.09
0.41
0.72
0.92
0.94
0.76
0.42
0.05
-0.24
-0.36
-0.30
-0.15
-0.02
0.01
-0.11
-0.31
-0.50
-0.62
-0.61
-0.49
-0.31
-0.10
0.11
0.30
0.47
0.58
0.60
0.52
0.34
0.08
-0.20
-0.45
-0.58
-0.55
-0.36
-0.10
0.13
0.23
0.18
0.05
-0.06
-0.05
0.08
0.23
0.27
0.12
-0.22
-0.68
-1.12
-1.43
-1.55
-1.49
-1.29
-0.99
-0.64
-0.29
-0.01
0.16
0.18
0.04
-0.19
-0.44
-0.64
-0.76
-0.81
-0.83
-0.82
-0.83
-0.83
-0.84
-0.82
-0.77
-0.64
-0.43
-0.12
0.26
0.68
1.07
1.36
1.51
1.48
1.28
0.97
0.66
0.47
0.51
0.76
1.11
1.41
1.49
1.33
0.99
0.61
0.32
0.14
0.04
-0.05
-0.15
-0.23
-0.20
-0.05
0.18
0.36
0.39
0.23
-0.05
-0.30
-0.39
-0.25
0.01
0.26
0.32
0.11
-0.33
-0.88
-1.36
-1.64
-1.65
-1.41
-1.02
-0.60
-0.28
-0.10
-0.05
-0.03
0.03
0.21
0.48
0.77
0.98
1.07
1.05
0.97
0.86
0.71
0.49
0.17
-0.23
-0.56
-0.69
-0.51
-0.08
0.44
0.81
0.87
0.61
0.14
-0.35
-0.71
-0.88
-0.90
-0.82
-0.69
-0.52
-0.32
-0.13
0.01
0.03
-0.08
-0.26
-0.44
-0.54
-0.55
-0.51
-0.47
-0.44
-0.38
-0.22
0.09
0.52
1.00
1.40
1.62
1.58
1.29
0.81
0.27
-0.20
-0.54
-0.71
-0.73
-0.64
-0.47
-0.23
0.05
0.30
0.44
0.39
0.14
-0.23
-0.60
-0.86
-0.95
-0.91
-0.78
-0.61
-0.40
-0.16
0.06
0.21
0.22
0.07
-0.19
-0.46
-0.62
-0.59
-0.34
0.02
0.38
0.63
0.72
0.70
0.66
0.69
0.79
0.91
0.95
0.83
0.57
0.28
0.09
0.07
0.22
0.46
0.67
0.79
0.77
0.64
0.41
0.12
-0.23
-0.61
-0.98
-1.25
-1.36
-1.26
-0.98
-0.64
-0.38
-0.31
-0.46
-0.74
-0.98
-1.03
-0.83
-0.40
0.11
0.55
0.79
0.80
0.63
0.37
0.14
0.01
-0.06
-0.10
-0.19
-0.35
-0.52
-0.61
-0.56
-0.36
-0.11
0.04
-0.01
-0.26
-0.60
-0.84
-0.83
-0.56
-0.15
0.20
0.34
0.24
-0.01
-0.25
-0.37
-0.34
-0.21
-0.08
-0.02
-0.04
-0.12
-0.18
-0.18
-0.06
0.16
0.43
0.70
0.84
0.85
0.72
0.54
0.38
0.30
0.30
0.34
0.39
0.44
0.48
0.46
0.36
0.12
-0.26
-0.70
-1.05
-1.17
-0.99
-0.54
0.05
0.62
1.05
1.26
1.21
0.93
0.51
0.05
-0.29
-0.43
-0.32
-0.01
0.37
0.67
0.81
0.75
0.53
0.26
0.02
-0.14
-0.20
-0.20
-0.17
-0.18
-0.25
-0.37
-0.51
-0.64
-0.73
-0.76
-0.73
-0.62
-0.42
-0.12
0.23
0.54
0.70
0.64
0.39
0.03
-0.29
-0.47
-0.46
-0.31
-0.09
0.13
0.32
0.47
0.58
0.61
0.55
0.41
0.23
0.11
0.12
0.30
0.60
0.92
1.12
1.10
0.85
0.46
0.09
-0.11
-0.08
0.10
0.30
0.35
0.19
-0.13
-0.48
-0.73
-0.81
-0.75
-0.66
-0.66
-0.79
-0.97
-1.11
-1.09
-0.88
-0.56
-0.28
-0.15
-0.20
-0.32
-0.34
-0.18
0.15
0.49
0.65
0.51
0.16
-0.21
-0.39
-0.30
-0.02
0.28
0.42
0.36
0.16
-0.02
-0.10
-0.06
0.05
0.12
0.10
-0.02
-0.20
-0.36
-0.45
-0.44
-0.36
-0.28
-0.30
-0.44
-0.65
-0.82
-0.83
-0.60
-0.18
0.29
0.63
0.74
0.63
0.40
0.18
0.05
0.01
-0.00
-0.05
-0.18
-0.35
-0.50
-0.56
-0.50
-0.37
-0.27
-0.27
-0.42
-0.63
-0.79
-0.78
-0.54
-0.16
0.19
0.35
0.25
-0.00
-0.26
-0.35
-0.24
0.00
0.24
0.37
0.41
0.44
0.54
0.72
0.92
1.02
0.96
0.77
0.54
0.38
0.35
0.43
0.53
0.56
0.48
0.31
0.11
-0.03
-0.02
0.17
0.49
0.84
1.05
1.02
0.72
0.23
-0.28
-0.66
-0.84
-0.82
-0.71
-0.60
-0.56
-0.57
-0.58
-0.58
-0.57
-0.60
-0.69
-0.84
-0.98
-1.01
-0.89
-0.61
-0.26
0.04
0.22
0.25
0.17
0.07
0.01
-0.00
-0.00
-0.01
-0.02
-0.01
0.04
0.11
0.17
0.17
0.07
-0.10
-0.33
-0.54
-0.69
-0.74
-0.70
-0.58
-0.37
-0.10
0.21
0.49
0.69
0.74
0.64
0.45
0.26
0.15
0.18
0.35
0.57
0.78
0.91
0.94
0.89
0.78
0.62
0.41
0.21
0.07
0.07
0.26
0.62
1.06
1.45
1.67
1.66
1.44
1.07
0.64
0.21
-0.20
-0.60
-0.98
-1.32
-1.58
-1.73
-1.77
-1.74
-1.69
-1.66
-1.65
-1.59
-1.44
-1.17
-0.79
-0.35
0.10
0.54
0.92
1.20
1.32
1.22
0.89
0.42
-0.05
-0.36
-0.39
-0.15
0.27
0.71
1.02
1.09
0.89
0.47
-0.05
-0.54
-0.88
-1.03
-0.98
-0.79
-0.52
-0.20
0.12
0.40
0.59
0.62
0.43
0.08
-0.34
-0.69
-0.84
-0.74
-0.47
-0.13
0.18
0.38
0.47
0.46
0.37
0.21
-0.00
-0.21
-0.35
-0.36
-0.23
-0.03
0.12
0.15
0.09
0.02
0.09
0.31
0.62
0.86
0.90
0.69
0.34
-0.02
-0.25
-0.31
-0.25
-0.19
-0.19
-0.26
-0.39
-0.50
-0.53
-0.48
-0.36
-0.24
-0.15
-0.11
-0.11
-0.11
-0.07
0.01
0.12
0.24
0.32
0.37
0.35
0.26
0.09
-0.17
-0.48
-0.76
-0.95
-1.04
-1.00
-0.89
-0.70
-0.43
-0.06
0.36
0.73
0.92
0.83
0.46
-0.05
-0.50
-0.68
-0.53
-0.11
0.38
0.74
0.86
0.78
0.63
0.53
0.52
0.54
0.47
0.27
-0.02
-0.29
-0.43
-0.43
-0.33
-0.28
-0.32
-0.45
-0.56
-0.52
-0.29
0.06
0.41
0.64
0.73
0.72
0.70
0.71
0.66
0.48
0.11
-0.39
-0.85
-1.07
-0.92
-0.43
0.24
0.82
1.08
0.90
0.38
-0.30
-0.87
-1.11
-0.95
-0.43
0.29
1.02
1.60
1.98
2.13
2.06
1.74
1.19
0.44
-0.38
-1.09
-1.52
-1.60
-1.38
-1.02
-0.71
-0.56
-0.61
-0.79
-0.98
-1.11
-1.17
-1.18
-1.16
-1.12
-1.00
-0.73
-0.34
0.10
0.43
0.54
0.38
0.03
-0.34
-0.52
-0.41
-0.01
0.52
0.99
1.21
1.14
0.82
0.43
0.11
-0.04
0.00
0.17
0.37
0.50
0.55
0.53
0.48
0.45
0.43
0.39
0.29
0.11
-0.12
-0.32
-0.41
-0.35
-0.16
0.04
0.13
0.03
-0.22
-0.50
-0.67
-0.61
-0.32
0.08
0.44
0.63
0.58
0.35
0.03
-0.28
-0.52
-0.71
-0.89
-1.10
-1.33
-1.50
-1.51
-1.27
-0.83
-0.31
0.12
0.34
0.35
0.27
0.26
0.43
0.78
1.18
1.49
1.60
1.50
1.26
1.01
0.87
0.86
0.92
0.94
0.83
0.59
0.34
0.22
0.35
0.67
0.99
1.05
0.72
0.07
-0.64
-1.09
-1.13
-0.78
-0.27
0.14
0.29
0.12
-0.27
-0.78
-1.29
-1.75
-2.14
-2.41
-2.51
-2.37
-2.00
-1.43
-0.81
-0.30
-0.03
-0.02
-0.16
-0.28
-0.26
-0.07
0.21
0.45
0.54
0.48
0.33
0.18
0.08
0.05
0.06
0.10
0.18
0.30
0.43
0.53
0.56
0.50
0.37
0.23
0.12
0.06
0.05
0.09
0.16
0.27
0.40
0.48
0.47
0.34
0.11
-0.08
-0.12
0.05
0.38
0.70
0.86
0.78
0.50
0.18
-0.03
-0.07
0.03
0.13
0.15
0.08
-0.00
-0.02
0.06
0.17
0.21
0.08
-0.25
-0.69
-1.13
-1.46
-1.61
-1.59
-1.43
-1.18
-0.87
-0.52
-0.15
0.18
0.42
0.50
0.43
0.27
0.12
0.05
0.05
0.07
0.05
-0.06
-0.18
-0.23
-0.09
0.27
0.76
1.24
1.54
1.58
1.33
0.88
0.36
-0.12
-0.46
-0.59
-0.51
-0.26
0.06
0.33
0.46
0.40
0.19
-0.09
-0.34
-0.52
-0.58
-0.55
-0.46
-0.35
-0.26
-0.18
-0.11
-0.01
0.15
0.38
0.64
0.86
0.96
0.89
0.69
0.45
0.25
0.15
0.12
0.09
0.02
-0.07
-0.13
-0.12
-0.06
0.03
0.08
0.06
-0.01
-0.10
-0.17
-0.22
-0.23
-0.21
-0.11
0.06
0.29
0.48
0.53
0.38
0.04
-0.39
-0.76
-0.93
-0.89
-0.67
-0.38
-0.12
0.06
0.16
0.18
0.16
0.11
0.05
-0.05
-0.20
-0.44
-0.73
-1.00
-1.13
-1.01
-0.63
-0.08
0.43
0.68
0.58
0.21
-0.25
-0.57
-0.67
-0.54
-0.32
-0.11
0.01
0.03
-0.04
-0.13
-0.21
-0.19
-0.03
0.27
0.64
0.94
1.05
0.91
0.60
0.25
0.02
-0.02
0.11
0.33
0.54
0.69
0.71
0.59
0.32
-0.06
-0.48
-0.85
-1.08
-1.10
-0.92
-0.54
-0.04
0.47
0.84
0.93
0.68
0.18
-0.38
-0.78
-0.86
-0.58
-0.12
0.33
0.58
0.56
0.36
0.07
-0.22
-0.45
-0.61
-0.67
-0.59
-0.35
0.04
0.44
0.68
0.60
0.18
-0.47
-1.10
-1.46
-1.43
-1.01
-0.36
0.32
0.86
1.13
1.13
0.92
0.62
0.35
0.21
0.23
0.37
0.50
0.50
0.31
0.01
-0.27
-0.37
-0.21
0.09
0.37
0.46
0.31
0.04
-0.15
-0.15
0.01
0.18
0.14
-0.22
-0.83
-1.44
-1.80
-1.78
-1.40
-0.87
-0.38
-0.07
0.02
0.01
0.01
0.11
0.32
0.57
0.73
0.70
0.47
0.12
-0.21
-0.33
-0.17
0.21
0.62
0.85
0.78
0.44
0.01
-0.31
-0.38
-0.23
0.06
0.34
0.55
0.69
0.80
0.90
0.96
0.90
0.69
0.35
-0.03
-0.34
-0.48
-0.42
-0.18
0.15
0.46
0.64
0.64
0.49
0.27
0.09
0.03
0.09
0.21
0.27
0.16
-0.15
-0.57
-0.98
-1.20
-1.12
-0.76
-0.26
0.18
0.39
0.30
0.00
-0.36
-0.63
-0.76
-0.75
-0.64
-0.49
-0.28
-0.05
0.20
0.40
0.47
0.40
0.22
0.02
-0.15
-0.25
-0.33
-0.42
-0.52
-0.59
-0.59
-0.50
-0.36
-0.23
-0.13
-0.07
-0.01
0.06
0.15
0.25
0.32
0.34
0.29
0.16
-0.04
-0.23
-0.34
-0.29
-0.06
0.31
0.72
1.05
1.22
1.20
1.04
0.79
0.54
0.35
0.24
0.18
0.09
-0.10
-0.43
-0.84
-1.18
-1.29
-1.09
-0.66
-0.17
0.20
0.34
0.32
0.27
0.32
0.50
0.76
0.96
1.01
0.88
0.60
0.25
-0.10
-0.42
-0.65
-0.75
-0.72
-0.58
-0.41
-0.25
-0.14
-0.08
-0.05
-0.06
-0.12
-0.25
-0.47
-0.70
-0.90
-1.02
-1.06
-1.04
-0.96
-0.80
-0.54
-0.15
0.29
0.68
0.92
0.96
0.82
0.57
0.26
-0.06
-0.36
-0.62
-0.75
-0.70
-0.44
-0.01
0.50
0.95
1.21
1.25
1.09
0.86
0.64
0.53
0.51
0.54
0.53
0.43
0.23
-0.06
-0.37
-0.69
-0.98
-1.21
-1.35
-1.36
-1.25
-1.02
-0.78
-0.58
-0.45
-0.36
-0.23
-0.03
0.23
0.43
0.44
0.22
-0.15
-0.48
-0.59
-0.38
0.07
0.58
0.96
1.10
1.03
0.89
0.78
0.76
0.74
0.59
0.21
-0.39
-1.03
-1.51
-1.67
-1.50
-1.13
-0.73
-0.46
-0.33
-0.23
-0.07
0.22
0.57
0.87
1.01
0.98
0.83
0.68
0.56
0.47
0.35
0.17
-0.04
-0.20
-0.22
-0.06
0.23
0.53
0.76
0.84
0.78
0.60
0.35
0.06
-0.25
-0.53
-0.75
-0.88
-0.92
-0.85
-0.70
-0.48
-0.24
-0.03
0.12
0.20
0.26
0.40
0.65
0.97
1.24
1.32
1.17
0.84
0.51
0.34
0.33
0.38
0.31
0.06
-0.32
-0.66
-0.81
-0.75
-0.61
-0.51
-0.52
-0.55
-0.50
-0.30
0.00
0.26
0.36
0.25
0.00
-0.26
-0.44
-0.53
-0.57
-0.57
-0.54
-0.45
-0.26
-0.01
0.24
0.41
0.44
0.33
0.12
-0.08
-0.20
-0.18
-0.02
0.19
0.35
0.38
0.27
0.06
-0.17
-0.35
-0.44
-0.42
-0.29
-0.06
0.23
0.50
0.64
0.56
0.26
-0.19
-0.62
-0.87
-0.82
-0.53
-0.12
0.22
0.35
0.25
-0.02
-0.36
-0.66
-0.87
-0.96
-0.92
-0.76
-0.50
-0.16
0.18
0.44
0.56
0.52
0.36
0.16
0.01
-0.05
-0.00
0.08
0.17
0.19
0.16
0.09
0.04
-0.00
-0.07
-0.21
-0.41
-0.59
-0.62
-0.41
0.05
0.61
1.09
1.33
1.30
1.09
0.87
0.74
0.71
0.69
0.59
0.39
0.15
-0.03
-0.10
-0.07
-0.05
-0.14
-0.34
-0.59
-0.72
-0.65
-0.35
0.07
0.48
0.77
0.92
0.98
1.05
1.14
1.20
1.11
0.81
0.32
-0.19
-0.55
-0.65
-0.55
-0.42
-0.46
-0.75
-1.23
-1.68
-1.87
-1.69
-1.22
-0.65
-0.20
-0.01
-0.09
-0.33
-0.59
-0.72
-0.70
-0.54
-0.35
-0.24
-0.25
-0.38
-0.53
-0.61
-0.59
-0.50
-0.43
-0.43
-0.54
-0.71
-0.84
-0.87
-0.74
-0.49
-0.16
0.21
0.57
0.94
1.30
1.64
1.93
2.12
2.15
2.00
1.71
1.36
1.07
0.87
0.75
0.64
0.46
0.19
-0.11
-0.33
-0.42
-0.39
-0.36
-0.44
-0.66
-0.95
-1.17
-1.19
-0.97
-0.60
-0.22
0.05
0.17
0.17
0.14
0.10
0.07
0.03
-0.08
-0.26
-0.49
-0.73
-0.91
-0.96
-0.88
-0.70
-0.50
-0.34
-0.28
-0.28
-0.30
-0.26
-0.14
0.04
0.26
0.49
0.72
0.95
1.16
1.27
1.24
1.03
0.66
0.24
-0.12
-0.31
-0.30
-0.08
0.29
0.75
1.22
1.62
1.82
1.72
1.26
0.53
-0.30
-0.95
-1.27
-1.23
-0.96
-0.70
-0.61
-0.73
-0.98
-1.20
-1.29
-1.25
-1.17
-1.13
-1.15
-1.18
-1.15
-1.00
-0.75
-0.45
-0.19
-0.01
0.10
0.19
0.30
0.45
0.62
0.76
0.84
0.80
0.65
0.42
0.16
-0.09
-0.27
-0.35
-0.28
-0.08
0.23
0.57
0.85
0.99
0.95
0.74
0.44
0.13
-0.13
-0.32
-0.44
-0.52
-0.56
-0.57
-0.52
-0.41
-0.28
-0.17
-0.12
-0.14
-0.22
-0.31
-0.37
-0.35
-0.20
0.08
0.47
0.92
1.32
1.58
1.64
1.51
1.25
0.93
0.63
0.41
0.28
0.27
0.39
0.64
0.98
1.29
1.44
1.33
0.93
0.35
-0.24
-0.65
-0.76
-0.55
-0.14
0.30
0.59
0.59
0.28
-0.25
-0.85
-1.37
-1.72
-1.88
-1.92
-1.87
-1.76
-1.55
-1.23
-0.83
-0.45
-0.19
-0.12
-0.21
-0.34
-0.39
-0.30
-0.09
0.13
0.29
0.34
0.31
0.27
0.29
0.35
0.42
0.42
0.30
0.08
-0.20
-0.43
-0.51
-0.39
-0.08
0.32
0.70
0.94
0.97
0.79
0.49
0.14
-0.14
-0.31
-0.33
-0.22
-0.04
0.16
0.29
0.31
0.23
0.08
-0.05
-0.14
-0.17
-0.21
-0.32
-0.51
-0.73
-0.87
-0.84
-0.59
-0.16
0.32
0.72
0.97
1.01
0.89
0.65
0.34
-0.00
-0.33
-0.59
-0.72
-0.68
-0.44
-0.07
0.36
0.73
0.96
1.04
1.00
0.93
0.86
0.83
0.81
0.79
0.74
0.63
0.48
0.26
-0.03
-0.37
-0.71
-1.00
-1.16
-1.21
-1.17
-1.13
-1.14
-1.21
-1.30
-1.36
-1.33
-1.21
-1.01
-0.76
-0.46
-0.16
0.12
0.28
0.28
0.09
-0.21
-0.48
-0.58
-0.48
-0.25
-0.03
0.05
-0.07
-0.32
-0.54
-0.58
-0.38
0.04
0.54
0.95
1.15
1.10
0.80
0.35
-0.11
-0.47
-0.64
-0.64
-0.52
-0.36
-0.23
-0.11
0.03
0.23
0.45
0.63
0.65
0.48
0.13
-0.29
-0.71
-1.04
-1.31
-1.54
-1.81
-2.17
-2.64
-3.19
-3.75
-4.19
-4.41
-4.37
-4.15
-3.91
-3.80
-3.88
-4.11
-4.34
-4.46
-4.45
-4.41
-4.50
-4.85
-5.47
-6.24
-7.02
-7.66
-8.15
-8.61
-9.30
-10.45
-12.21
-14.44
-16.78
-18.77
-20.04
-20.58
-20.75
-21.18
-22.45
-24.78
-27.88
-31.00
-33.24
-33.92
-32.91
-30.61
-27.74
-24.88
-22.11
-18.83
-13.96
-6.44
4.33
18.20
34.37
51.79
69.65
87.61
105.91
124.92
144.96
166.03
187.79
209.58
230.26
247.86
259.40
261.51
251.76
230.37
201.13
170.66
146.05
131.68
127.20
127.49
124.72
111.78
84.73
43.71
-8.14
-66.76
-128.86
-192.36
-255.76
-317.19
-374.24
-424.44
-465.97
-498.06
-520.95
-535.42
-542.13
-542.28
-536.05
-523.35
-504.37
-479.86
-450.97
-419.06
-385.26
-350.34
-314.72
-278.41
-241.40
-203.77
-165.54
-126.41
-85.72
-42.24
5.72
60.18
123.52
197.38
281.33
371.86
462.41
544.73
611.32
658.06
684.53
694.63
694.20
688.41
680.08
669.47
655.31
636.26
611.74
581.62
546.29
505.93
460.63
410.85
357.96
304.18
252.21
205.61
165.63
131.89
102.87
76.73
52.25
29.26
8.54
-8.77
-21.97
-31.54
-38.83
-45.71
-53.96
-64.70
-78.24
-94.25
-111.91
-130.86
-151.52
-174.97
-202.79
-236.62
-277.46
-324.59
-374.87
-422.55
-460.32
-481.38
-481.42
-460.23
-421.90
-373.43
-322.55
-275.57
-236.19
-205.50
-182.72
-166.09
-153.58
-143.29
-133.60
-123.21
-111.34
-97.87
-83.35
-68.86
-55.71
-44.95
-37.09
-31.93
-28.66
-26.12
-23.23
-19.35
-14.47
-9.08
-3.92
0.31
3.31
5.20
6.47
7.73
9.43
11.66
14.14
16.40
18.01
18.81
18.89
18.61
18.35
18.38
18.75
19.31
19.83
20.10
20.03
19.68
19.18
18.68
18.24
17.84
17.41
16.90
16.34
15.85
15.52
15.43
15.52
15.71
15.88
15.96
15.94
15.84
15.69
15.47
15.13
14.64
14.00
13.31
12.70
12.29
12.12
12.12
12.08
11.79
11.05
9.82
8.25
6.63
5.32
4.58
4.48
4.85
5.39
5.78
5.84
5.55
5.09
4.65
4.39
4.33
4.39
4.44
4.40
4.25
4.02
3.80
3.67
3.67
3.77
3.87
3.89
3.74
3.45
3.13
2.92
2.94
3.16
3.47
3.67
3.66
3.46
3.21
3.06
3.11
3.32
3.60
3.86
4.03
4.11
4.12
4.06
3.92
3.72
3.50
3.33
3.27
3.33
3.47
3.61
3.66
3.60
3.40
3.09
2.72
2.35
2.08
1.98
2.11
2.49
3.03
3.65
4.19
4.58
4.75
4.73
4.59
4.39
4.22
4.16
4.25
4.54
5.00
5.51
5.87
5.90
5.50
4.75
3.90
3.27
3.14
3.60
4.51
5.53
6.24
6.25
5.38
3.69
1.48
-0.77
-2.64
-3.81
-4.21
-3.98
-3.39
-2.70
-2.11
-1.71
-1.50
-1.44
-1.45
-1.51
-1.56
-1.57
-1.51
-1.33
-0.98
-0.48
0.05
0.46
0.58
0.36
-0.15
-0.73
-1.16
-1.30
-1.14
-0.80
-0.44
-0.20
-0.16
-0.32
-0.65
-1.08
-1.52
-1.84
-1.90
-1.59
-0.96
-0.13
0.66
1.17
1.27
0.99
0.53
0.15
0.06
0.29
0.72
1.08
1.18
0.95
0.49
-0.01
-0.39
-0.58
-0.63
-0.61
-0.59
-0.56
-0.48
-0.27
0.03
0.38
0.71
0.94
1.09
1.21
1.35
1.57
1.87
2.22
2.56
2.86
3.12
3.38
3.64
3.87
3.98
3.88
3.53
2.98
2.37
1.89
1.68
1.81
2.20
2.71
3.19
3.51
3.65
3.66
3.61
3.54
3.48
3.39
3.21
2.91
2.52
2.07
1.59
1.07
0.46
-0.29
-1.18
-2.13
-3.05
-3.77
-4.22
-4.36
-4.23
-3.93
-3.55
-3.13
-2.72
-2.32
-1.93
-1.58
-1.28
-1.07
-0.97
-0.97
-1.01
-0.99
-0.90
-0.76
-0.65
-0.63
-0.69
-0.73
-0.64
-0.36
0.05
0.41
0.55
0.40
0.03
-0.39
-0.72
-0.89
-0.94
-0.95
-0.96
-0.98
-0.96
-0.91
-0.84
-0.81
-0.87
-0.99
-1.09
-1.06
-0.80
-0.32
0.29
0.85
1.17
1.18
0.90
0.50
0.15
-0.01
0.08
0.32
0.64
0.92
1.15
1.33
1.49
1.62
1.67
1.62
1.43
1.15
0.85
0.59
0.42
0.33
0.25
0.14
-0.02
-0.18
-0.25
-0.16
0.06
0.34
0.51
0.50
0.28
0.01
-0.14
-0.00
0.43
1.01
1.51
1.70
1.54
1.07
0.50
0.00
-0.30
-0.38
-0.22
0.13
0.63
1.18
1.68
1.97
1.98
1.73
1.33
0.97
0.82
0.96
1.32
1.78
2.18
2.38
2.32
1.99
1.46
0.81
0.16
-0.44
-0.96
-1.41
-1.81
-2.13
-2.35
-2.42
-2.34
-2.14
-1.87
-1.56
-1.25
-0.94
-0.64
-0.39
-0.20
-0.12
-0.14
-0.26
-0.44
-0.64
-0.79
-0.83
-0.72
-0.46
-0.13
0.15
0.26
0.17
-0.04
-0.26
-0.37
-0.32
-0.14
0.08
0.27
0.37
0.40
0.38
0.35
0.34
0.39
0.48
0.59
0.68
0.72
0.73
0.71
0.69
0.68
0.64
0.54
0.40
0.27
0.22
0.30
0.47
0.67
0.81
0.85
0.83
0.80
0.83
0.93
1.06
1.16
1.17
1.03
0.79
0.48
0.17
-0.12
-0.37
-0.57
-0.73
-0.79
-0.73
-0.55
-0.30
-0.06
0.08
0.08
-0.04
-0.24
-0.43
-0.59
-0.68
-0.69
-0.66
-0.59
-0.53
-0.52
-0.56
-0.63
-0.67
-0.65
-0.56
-0.42
-0.29
-0.18
-0.09
-0.01
0.08
0.16
0.21
0.22
0.21
0.19
0.19
0.18
0.13
0.06
0.02
0.06
0.20
0.37
0.49
0.49
0.34
0.11
-0.15
-0.41
-0.66
-0.94
-1.20
-1.41
-1.49
-1.47
-1.41
-1.44
-1.59
-1.80
-1.91
-1.77
-1.35
-0.72
-0.11
0.30
0.43
0.37
0.31
0.44
0.86
1.52
2.23
2.76
2.96
2.79
2.38
1.89
1.48
1.24
1.15
1.13
1.09
0.97
0.77
0.56
0.40
0.34
0.38
0.44
0.46
0.36
0.15
-0.13
-0.38
-0.55
-0.64
-0.66
-0.60
-0.44
-0.13
0.34
0.91
1.45
1.84
2.01
1.99
1.83
1.64
1.46
1.35
1.35
1.46
1.71
2.02
2.32
2.54
2.64
2.65
2.67
2.78
3.00
3.28
3.50
3.56
3.39
3.00
2.44
1.81
1.22
0.73
0.35
0.00
-0.44
-1.08
-1.95
-2.95
-3.93
-4.71
-5.19
-5.36
-5.30
-5.11
-4.83
-4.49
-4.06
-3.55
-3.04
-2.61
-2.32
-2.17
-2.10
-2.01
-1.84
-1.57
-1.25
-0.96
-0.80
-0.79
-0.89
-0.98
-0.92
-0.65
-0.20
0.29
0.66
0.79
0.71
0.54
0.42
0.44
0.56
0.68
0.69
0.55
0.35
0.16
0.08
0.10
0.16
0.18
0.12
-0.04
-0.26
-0.49
-0.70
-0.86
-0.99
-1.06
-1.10
-1.09
-1.01
-0.85
-0.62
-0.34
-0.09
0.05
0.03
-0.14
-0.36
-0.50
-0.46
-0.18
0.28
0.82
1.30
1.61
1.73
1.68
1.53
1.33
1.13
0.96
0.81
0.67
0.51
0.30
0.03
-0.27
-0.55
-0.72
-0.74
-0.62
-0.40
-0.20
-0.06
0.03
0.15
0.37
0.69
1.05
1.30
1.33
1.11
0.75
0.37
0.11
-0.00
-0.04
-0.11
-0.27
-0.51
-0.74
-0.84
-0.75
-0.48
-0.14
0.10
0.12
-0.11
-0.53
-0.98
-1.31
-1.46
-1.44
-1.33
-1.22
-1.13
-1.04
-0.92
-0.73
-0.51
-0.32
-0.17
-0.04
0.13
0.38
0.68
0.94
1.07
1.04
0.94
0.87
0.90
0.99
1.01
0.80
0.32
-0.37
-1.08
-1.60
-1.83
-1.77
-1.56
-1.30
-1.06
-0.82
-0.51
-0.12
0.27
0.54
0.58
0.35
-0.03
-0.41
-0.61
-0.55
-0.24
0.19
0.60
0.89
1.00
0.96
0.84
0.75
0.74
0.86
1.04
1.16
1.12
0.85
0.40
-0.07
-0.43
-0.58
-0.56
-0.46
-0.36
-0.30
-0.23
-0.12
0.00
0.05
-0.04
-0.26
-0.49
-0.60
-0.48
-0.19
0.14
0.38
0.46
0.39
0.27
0.11
-0.08
-0.31
-0.60
-0.85
-0.98
-0.92
-0.69
-0.36
-0.00
0.31
0.56
0.73
0.79
0.71
0.54
0.35
0.30
0.44
0.76
1.12
1.37
1.40
1.21
0.88
0.52
0.22
-0.01
-0.17
-0.26
-0.27
-0.17
0.02
0.25
0.46
0.61
0.70
0.81
0.98
1.19
1.36
1.39
1.19
0.77
0.25
-0.24
-0.58
-0.73
-0.73
-0.64
-0.56
-0.53
-0.55
-0.58
-0.61
-0.61
-0.60
-0.58
-0.53
-0.43
-0.26
-0.05
0.17
0.30
0.34
0.27
0.13
-0.04
-0.20
-0.33
-0.42
-0.42
-0.30
-0.05
0.25
0.48
0.51
0.26
-0.20
-0.72
-1.09
-1.23
-1.15
-0.97
-0.86
-0.90
-1.11
-1.42
-1.70
-1.84
-1.73
-1.34
-0.75
-0.10
0.41
0.64
0.56
0.24
-0.11
-0.33
-0.32
-0.10
0.21
0.50
0.73
0.90
1.03
1.12
1.14
1.04
0.83
0.53
0.24
0.04
-0.03
0.06
0.26
0.49
0.69
0.77
0.74
0.61
0.46
0.34
0.25
0.15
-0.04
-0.33
-0.68
-0.96
-1.05
-0.92
-0.62
-0.32
-0.14
-0.14
-0.26
-0.40
-0.44
-0.34
-0.15
0.03
0.10
0.04
-0.12
-0.29
-0.41
-0.46
-0.45
-0.41
-0.30
-0.11
0.14
0.44
0.66
0.74
0.66
0.48
0.29
0.17
0.15
0.17
0.16
0.08
-0.06
-0.22
-0.34
-0.42
-0.48
-0.50
-0.44
-0.28
-0.01
0.29
0.49
0.51
0.34
0.04
-0.23
-0.37
-0.33
-0.16
0.08
0.31
0.53
0.75
0.96
1.08
1.05
0.82
0.46
0.13
-0.01
0.14
0.53
0.99
1.33
1.41
1.19
0.79
0.37
0.08
-0.03
-0.00
0.05
0.02
-0.12
-0.34
-0.53
-0.61
-0.52
-0.29
0.02
0.32
0.54
0.59
0.43
0.08
-0.40
-0.89
-1.25
-1.41
-1.38
-1.27
-1.17
-1.12
-1.08
-0.92
-0.58
-0.06
0.49
0.87
1.00
0.89
0.67
0.53
0.55
0.67
0.76
0.67
0.37
-0.01
-0.30
-0.36
-0.16
0.16
0.44
0.56
0.50
0.36
0.25
0.24
0.32
0.46
0.54
0.50
0.33
0.07
-0.20
-0.40
-0.52
-0.60
-0.72
-0.90
-1.07
-1.11
-0.92
-0.51
-0.01
0.37
0.47
0.28
-0.08
-0.38
-0.46
-0.31
-0.02
0.23
0.31
0.17
-0.10
-0.39
-0.59
-0.65
-0.58
-0.43
-0.24
-0.00
0.30
0.68
1.06
1.35
1.44
1.28
0.92
0.50
0.18
0.08
0.19
0.43
0.64
0.69
0.51
0.18
-0.19
-0.46
-0.54
-0.46
-0.31
-0.24
-0.35
-0.70
-1.18
-1.61
-1.83
-1.72
-1.30
-0.75
-0.28
-0.04
-0.08
-0.28
-0.48
-0.57
-0.49
-0.32
-0.16
-0.07
-0.03
0.05
0.23
0.48
0.70
0.76
0.59
0.27
-0.07
-0.24
-0.16
0.16
0.56
0.85
0.89
0.65
0.21
-0.22
-0.48
-0.44
-0.13
0.29
0.61
0.70
0.56
0.31
0.13
0.14
0.30
0.48
0.54
0.41
0.15
-0.08
-0.18
-0.13
0.01
0.10
0.06
-0.11
-0.32
-0.43
-0.36
-0.13
0.13
0.29
0.25
0.03
-0.23
-0.37
-0.33
-0.14
0.04
0.03
-0.24
-0.71
-1.16
-1.38
-1.25
-0.81
-0.25
0.21
0.42
0.40
0.26
0.18
0.27
0.50
0.77
0.95
0.98
0.92
0.88
0.93
1.10
1.33
1.49
1.50
1.34
1.02
0.58
0.11
-0.35
-0.71
-0.93
-0.98
-0.89
-0.76
-0.69
-0.72
-0.84
-0.96
-1.01
-0.97
-0.88
-0.78
-0.67
-0.49
-0.20
0.19
0.58
0.78
0.66
0.25
-0.31
-0.78
-0.95
-0.76
-0.31
0.23
0.67
0.91
0.97
0.92
0.85
0.81
0.77
0.66
0.43
0.11
-0.19
-0.30
-0.14
0.22
0.56
0.64
0.33
-0.29
-0.93
-1.30
-1.22
-0.76
-0.17
0.25
0.29
-0.02
-0.52
-0.96
-1.16
-1.08
-0.80
-0.49
-0.26
-0.16
-0.14
-0.08
0.09
0.36
0.61
0.69
0.55
0.23
-0.09
-0.23
-0.17
0.01
0.12
-0.01
-0.35
-0.73
-0.88
-0.62
-0.01
0.73
1.27
1.42
1.16
0.73
0.39
0.32
0.49
0.78
1.03
1.16
1.23
1.30
1.40
1.47
1.45
1.26
0.95
0.61
0.38
0.30
0.37
0.51
0.62
0.63
0.51
0.24
-0.10
-0.46
-0.73
-0.86
-0.85
-0.77
-0.69
-0.71
-0.82
-1.00
-1.18
-1.30
-1.31
-1.17
-0.90
-0.53
-0.15
0.13
0.26
0.20
0.02
-0.18
-0.32
-0.38
-0.40
-0.43
-0.51
-0.62
-0.70
-0.68
-0.57
-0.39
-0.21
-0.03
0.15
0.38
0.64
0.88
0.99
0.91
0.67
0.35
0.13
0.12
0.35
0.75
1.14
1.38
1.39
1.23
1.00
0.84
0.78
0.80
0.82
0.79
0.70
0.64
0.68
0.84
1.08
1.28
1.35
1.24
0.99
0.67
0.34
-0.00
-0.32
-0.63
-0.87
-0.97
-0.87
-0.56
-0.11
0.37
0.71
0.83
0.69
0.31
-0.22
-0.77
-1.20
-1.41
-1.31
-0.96
-0.46
-0.02
0.18
0.06
-0.34
-0.84
-1.20
-1.29
-1.09
-0.70
-0.33
-0.14
-0.22
-0.51
-0.86
-1.09
-1.10
-0.86
-0.49
-0.14
0.08
0.19
0.28
0.46
0.77
1.14
1.39
1.39
1.12
0.68
0.26
-0.04
-0.21
-0.29
-0.36
-0.40
-0.36
-0.17
0.15
0.45
0.58
0.45
0.10
-0.32
-0.66
-0.83
-0.84
-0.77
-0.71
-0.68
-0.69
-0.70
-0.66
-0.54
-0.33
-0.03
0.28
0.49
0.50
0.28
-0.12
-0.49
-0.68
-0.58
-0.27
0.11
0.42
0.58
0.63
0.66
0.66
0.58
0.31
-0.18
-0.79
-1.32
-1.55
-1.33
-0.71
0.09
0.84
1.34
1.51
1.36
0.99
0.50
0.00
-0.41
-0.64
-0.66
-0.49
-0.21
0.03
0.13
0.06
-0.18
-0.53
-0.90
-1.24
-1.47
-1.53
-1.35
-0.92
-0.33
0.29
0.77
0.99
0.92
0.65
0.30
-0.04
-0.31
-0.49
-0.58
-0.56
-0.35
0.04
0.62
1.25
1.76
1.99
1.85
1.37
0.70
0.05
-0.42
-0.64
-0.63
-0.50
-0.38
-0.36
-0.42
-0.53
-0.61
-0.65
-0.71
-0.84
-1.08
-1.32
-1.41
-1.23
-0.76
-0.13
0.41
0.64
0.50
0.10
-0.30
-0.46
-0.30
0.10
0.51
0.76
0.78
0.66
0.51
0.41
0.34
0.25
0.12
-0.00
-0.02
0.14
0.42
0.71
0.85
0.76
0.51
0.22
0.06
0.06
0.20
0.38
0.55
0.67
0.74
0.74
0.60
0.29
-0.18
-0.73
-1.22
-1.54
-1.64
-1.58
-1.44
-1.28
-1.11
-0.89
-0.59
-0.24
0.07
0.25
0.26
0.14
-0.02
-0.10
-0.05
0.10
0.31
0.53
0.74
0.98
1.22
1.40
1.40
1.13
0.65
0.12
-0.22
-0.21
0.17
0.72
1.21
1.44
1.39
1.16
0.91
0.77
0.74
0.72
0.63
0.38
0.01
-0.42
-0.82
-1.12
-1.32
-1.39
-1.36
-1.23
-1.02
-0.81
-0.64
-0.58
-0.61
-0.68
-0.74
-0.72
-0.61
-0.43
-0.26
-0.14
-0.09
-0.09
-0.10
-0.09
-0.04
0.04
0.15
0.27
0.41
0.55
0.67
0.73
0.67
0.48
0.18
-0.13
-0.34
-0.36
-0.20
0.07
0.33
0.50
0.54
0.47
0.31
0.09
-0.15
-0.36
-0.43
-0.23
0.25
0.95
1.67
2.17
2.26
1.92
1.23
0.44
-0.26
-0.70
-0.87
-0.84
-0.71
-0.59
-0.54
-0.57
-0.63
-0.68
-0.64
-0.47
-0.19
0.15
0.44
0.57
0.48
0.19
-0.22
-0.63
-0.94
-1.10
-1.11
-0.97
-0.74
-0.43
-0.07
0.31
0.63
0.84
0.88
0.74
0.44
0.09
-0.21
-0.35
-0.27
0.02
0.42
0.81
1.06
1.11
0.96
0.69
0.39
0.12
-0.12
-0.32
-0.50
-0.59
-0.56
-0.37
-0.07
0.25
0.48
0.56
0.49
0.32
0.10
-0.13
-0.37
-0.58
-0.66
-0.52
-0.15
0.34
0.74
0.87
0.64
0.20
-0.25
-0.49
-0.45
-0.17
0.18
0.48
0.67
0.75
0.73
0.63
0.45
0.19
-0.10
-0.33
-0.45
-0.44
-0.38
-0.34
-0.37
-0.44
-0.47
-0.45
-0.41
-0.46
-0.66
-1.04
-1.49
-1.83
-1.95
-1.80
-1.44
-1.01
-0.61
-0.32
-0.16
-0.07
0.00
0.10
0.24
0.40
0.54
0.61
0.59
0.48
0.34
0.21
0.09
-0.04
-0.17
-0.24
-0.13
0.21
0.75
1.33
1.73
1.79
1.50
1.01
0.51
0.17
0.07
0.16
0.38
0.62
0.82
0.91
0.85
0.66
0.42
0.24
0.22
0.35
0.56
0.70
0.66
0.39
-0.05
-0.54
-0.99
-1.29
-1.41
-1.31
-0.99
-0.50
0.05
0.49
0.68
0.56
0.23
-0.16
-0.46
-0.57
-0.51
-0.37
-0.20
-0.01
0.20
0.42
0.60
0.63
0.43
0.03
-0.45
-0.85
-1.02
-0.93
-0.64
-0.26
0.08
0.28
0.29
0.11
-0.19
-0.49
-0.64
-0.51
-0.10
0.47
1.00
1.29
1.25
0.93
0.51
0.17
0.03
0.12
0.33
0.54
0.65
0.65
0.57
0.50
0.46
0.44
0.39
0.31
0.21
0.15
0.22
0.42
0.67
0.85
0.85
0.64
0.31
-0.00
-0.21
-0.27
-0.26
-0.24
-0.26
-0.32
-0.40
-0.52
-0.71
-1.02
-1.40
-1.72
-1.81
-1.59
-1.11
-0.56
-0.16
-0.05
-0.18
-0.42
-0.61
-0.67
-0.63
-0.56
-0.48
-0.38
-0.20
0.07
0.38
0.63
0.71
0.62
0.39
0.13
-0.06
-0.16
-0.12
0.06
0.37
0.78
1.18
1.48
1.55
1.37
1.01
0.61
0.29
0.13
0.10
0.14
0.14
0.07
-0.04
-0.17
-0.25
-0.29
-0.31
-0.36
-0.44
-0.52
-0.54
-0.43
-0.20
0.10
0.36
0.49
0.44
0.21
-0.11
-0.41
-0.59
-0.64
-0.58
-0.52
-0.53
-0.64
-0.78
-0.88
-0.87
-0.77
-0.67
-0.65
-0.73
-0.85
-0.87
-0.71
-0.39
-0.03
0.25
0.38
0.42
0.49
0.66
0.88
1.06
1.08
0.92
0.67
0.46
0.40
0.49
0.64
0.74
0.71
0.58
0.44
0.37
0.46
0.66
0.88
1.00
0.92
0.62
0.18
-0.23
-0.43
-0.31
0.13
0.73
1.27
1.56
1.51
1.20
0.74
0.25
-0.21
-0.67
-1.17
-1.69
-2.13
-2.32
-2.16
-1.66
-0.94
-0.24
0.25
0.45
0.39
0.20
0.03
-0.05
-0.05
-0.01
-0.02
-0.07
-0.14
-0.18
-0.17
-0.12
-0.09
-0.11
-0.19
-0.28
-0.32
-0.30
-0.22
-0.13
-0.08
-0.03
0.04
0.17
0.37
0.56
0.70
0.73
0.66
0.56
0.48
0.47
0.48
0.46
0.35
0.18
0.02
-0.04
0.03
0.21
0.38
0.41
0.28
0.06
-0.09
-0.09
0.09
0.29
0.35
0.15
-0.28
-0.81
-1.29
-1.60
-1.71
-1.68
-1.54
-1.30
-0.96
-0.55
-0.14
0.12
0.20
0.13
0.06
0.14
0.40
0.73
0.97
1.03
0.88
0.66
0.49
0.44
0.46
0.48
0.47
0.45
0.48
0.56
0.60
0.49
0.19
-0.23
-0.61
-0.79
-0.71
-0.43
-0.10
0.16
0.31
0.36
0.40
0.44
0.49
0.55
0.59
0.60
0.60
0.59
0.61
0.72
0.93
1.24
1.55
1.76
1.75
1.44
0.92
0.31
-0.19
-0.47
-0.52
-0.48
-0.52
-0.75
-1.16
-1.61
-1.92
-1.94
-1.69
-1.30
-0.95
-0.73
-0.63
-0.56
-0.42
-0.16
0.13
0.36
0.48
0.50
0.53
0.63
0.78
0.91
0.91
0.77
0.55
0.39
0.34
0.39
0.46
0.42
0.24
-0.06
-0.35
-0.55
-0.58
-0.46
-0.23
0.04
0.30
0.49
0.53
0.37
0.02
-0.39
-0.73
-0.85
-0.75
-0.58
-0.51
-0.67
-1.00
-1.33
-1.46
-1.27
-0.84
-0.34
0.04
0.20
0.18
0.11
0.06
0.05
0.01
-0.13
-0.36
-0.58
-0.66
-0.52
-0.20
0.20
0.53
0.70
0.71
0.64
0.57
0.56
0.61
0.70
0.78
0.86
0.91
0.92
0.87
0.73
0.50
0.18
-0.17
-0.49
-0.73
-0.89
-0.97
-0.99
-0.96
-0.87
-0.72
-0.52
-0.30
-0.13
-0.07
-0.12
-0.28
-0.50
-0.77
-1.01
-1.19
-1.21
-1.04
-0.66
-0.17
0.29
0.59
0.70
0.68
0.64
0.62
0.61
0.58
0.46
0.31
0.19
0.17
0.28
0.51
0.84
1.19
1.52
1.72
1.72
1.50
1.13
0.78
0.59
0.57
0.64
0.65
0.50
0.23
-0.06
-0.22
-0.22
-0.15
-0.15
-0.30
-0.59
-0.88
-1.01
-0.91
-0.59
-0.18
0.19
0.42
0.47
0.37
0.17
-0.07
-0.29
-0.44
-0.47
-0.34
-0.07
0.26
0.53
0.61
0.46
0.13
-0.29
-0.68
-0.92
-0.98
-0.87
-0.60
-0.19
0.31
0.80
1.20
1.40
1.35
1.11
0.76
0.39
0.06
-0.22
-0.47
-0.65
-0.73
-0.64
-0.40
-0.06
0.23
0.36
0.29
0.10
-0.06
-0.07
0.10
0.34
0.53
0.54
0.39
0.16
-0.01
-0.05
0.03
0.14
0.17
0.06
-0.19
-0.49
-0.73
-0.79
-0.64
-0.28
0.18
0.60
0.85
0.81
0.52
0.08
-0.34
-0.55
-0.51
-0.27
0.03
0.23
0.27
0.16
0.01
-0.07
-0.03
0.09
0.18
0.14
-0.03
-0.23
-0.34
-0.26
-0.00
0.31
0.55
0.64
0.59
0.48
0.42
0.43
0.51
0.61
0.70
0.74
0.75
0.74
0.76
0.83
0.95
1.10
1.22
1.23
1.12
0.97
0.85
0.87
1.01
1.18
1.21
1.04
0.71
0.37
0.19
0.24
0.46
0.66
0.71
0.53
0.20
-0.15
-0.42
-0.58
-0.67
-0.78
-0.94
-1.09
-1.16
-1.05
-0.75
-0.33
0.07
0.30
0.27
0.01
-0.37
-0.69
-0.81
-0.69
-0.40
-0.10
0.06
-0.01
-0.31
-0.73
-1.15
-1.47
-1.66
-1.74
-1.71
-1.59
-1.38
-1.09
-0.74
-0.38
-0.03
0.28
0.56
0.81
1.02
1.19
1.31
1.39
1.48
1.61
1.84
2.12
2.40
2.53
2.42
2.01
1.32
0.49
-0.30
-0.85
-1.05
-0.90
-0.52
-0.10
0.21
0.31
0.20
-0.02
-0.24
-0.38
-0.39
-0.34
-0.29
-0.28
-0.31
-0.33
-0.33
-0.28
-0.21
-0.15
-0.11
-0.08
-0.04
-0.05
-0.15
-0.39
-0.72
-1.00
-1.08
-0.90
-0.53
-0.17
-0.05
-0.24
-0.64
-1.04
-1.21
-1.05
-0.64
-0.15
0.24
0.43
0.44
0.36
0.24
0.10
-0.13
-0.47
-0.92
-1.36
-1.64
-1.65
-1.42
-1.05
-0.73
-0.58
-0.59
-0.69
-0.74
-0.67
-0.49
-0.28
-0.15
-0.12
-0.20
-0.36
-0.55
-0.74
-0.92
-1.08
-1.17
-1.17
-1.08
-0.92
-0.73
-0.54
-0.35
-0.17
0.02
0.21
0.37
0.48
0.55
0.60
0.63
0.67
0.68
0.62
0.49
0.36
0.31
0.42
0.68
0.96
1.11
1.01
0.70
0.31
0.01
-0.12
-0.08
0.01
0.06
0.02
-0.04
-0.07
-0.00
0.13
0.28
0.38
0.40
0.35
0.26
0.14
-0.00
-0.16
-0.30
-0.40
-0.46
-0.51
-0.60
-0.76
-0.94
-1.10
-1.18
-1.16
-1.10
-1.06
-1.05
-1.06
-0.98
-0.76
-0.36
0.13
0.59
0.90
1.00
0.92
0.75
0.59
0.50
0.48
0.53
0.58
0.62
0.60
0.53
0.42
0.31
0.21
0.15
0.12
0.12
0.14
0.18
0.21
0.20
0.14
0.01
-0.15
-0.28
-0.35
-0.32
-0.23
-0.10
0.07
0.30
0.62
1.01
1.38
1.58
1.47
1.07
0.50
-0.00
-0.27
-0.27
-0.12
-0.02
-0.12
-0.39
-0.72
-0.94
-0.97
-0.81
-0.57
-0.35
-0.22
-0.18
-0.19
-0.20
-0.22
-0.21
-0.19
-0.13
-0.02
0.09
0.15
0.07
-0.20
-0.58
-0.97
-1.22
-1.22
-0.96
-0.56
-0.15
0.12
0.23
0.25
0.30
0.46
0.73
0.99
1.12
1.03
0.79
0.52
0.34
0.33
0.44
0.58
0.62
0.51
0.26
-0.08
-0.41
-0.64
-0.72
-0.66
-0.51
-0.38
-0.33
-0.37
-0.48
-0.59
-0.65
-0.65
-0.61
-0.55
-0.44
-0.24
0.03
0.29
0.41
0.29
-0.05
-0.45
-0.71
-0.67
-0.32
0.19
0.64
0.87
0.83
0.63
0.45
0.43
0.61
0.90
1.11
1.10
0.78
0.23
-0.42
-0.98
-1.32
-1.43
-1.34
-1.18
-1.02
-0.90
-0.76
-0.54
-0.18
0.32
0.83
1.22
1.36
1.21
0.83
0.39
0.08
-0.02
0.10
0.32
0.47
0.43
0.17
-0.29
-0.86
-1.44
-1.94
-2.26
-2.38
-2.26
-1.95
-1.55
-1.19
-0.92
-0.72
-0.49
-0.12
0.41
1.00
1.50
1.81
1.95
2.04
2.21
2.49
2.77
2.89
2.72
2.26
1.65
1.02
0.45
-0.06
-0.57
-1.06
-1.42
-1.51
-1.25
-0.70
-0.05
0.49
0.78
0.80
0.67
0.53
0.45
0.43
0.38
0.21
-0.07
-0.37
-0.57
-0.53
-0.27
0.11
0.42
0.51
0.33
-0.01
-0.35
-0.52
-0.45
-0.23
-0.02
0.01
-0.23
-0.70
-1.23
-1.62
-1.73
-1.55
-1.18
-0.78
-0.50
-0.35
-0.28
-0.21
-0.05
0.22
0.54
0.86
1.10
1.26
1.34
1.39
1.44
1.48
1.49
1.39
1.16
0.81
0.41
0.05
-0.17
-0.24
-0.21
-0.16
-0.14
-0.17
-0.18
-0.11
0.06
0.28
0.42
0.40
0.16
-0.18
-0.50
-0.65
-0.63
-0.51
-0.44
-0.49
-0.62
-0.68
-0.59
-0.33
-0.09
-0.07
-0.35
-0.84
-1.26
-1.33
-0.94
-0.21
0.56
1.09
1.24
1.09
0.79
0.52
0.32
0.18
0.04
-0.13
-0.30
-0.44
-0.52
-0.55
-0.56
-0.59
-0.63
-0.66
-0.66
-0.61
-0.53
-0.45
-0.39
-0.33
-0.25
-0.10
0.16
0.53
0.91
1.20
1.29
1.16
0.88
0.55
0.29
0.11
0.03
-0.00
0.01
0.07
0.18
0.29
0.32
0.18
-0.10
-0.47
-0.81
-1.02
-1.11
-1.11
-1.06
-0.96
-0.72
-0.27
0.41
1.21
1.94
2.38
2.44
2.13
1.58
0.97
0.43
0.01
-0.32
-0.59
-0.78
-0.90
-0.89
-0.80
-0.69
-0.61
-0.59
-0.56
-0.49
-0.36
-0.22
-0.17
-0.26
-0.45
-0.64
-0.70
-0.62
-0.44
-0.25
-0.15
-0.13
-0.10
0.02
0.23
0.45
0.55
0.45
0.20
-0.05
-0.14
0.03
0.37
0.70
0.84
0.70
0.36
-0.01
-0.26
-0.34
-0.32
-0.31
-0.39
-0.55
-0.69
-0.73
-0.60
-0.36
-0.06
0.25
0.51
0.71
0.82
0.82
0.70
0.53
0.35
0.28
0.33
0.51
0.70
0.79
0.73
0.50
0.20
-0.06
-0.18
-0.14
-0.02
0.12
0.19
0.18
0.11
0.03
-0.01
-0.03
-0.05
-0.12
-0.28
-0.49
-0.72
-0.90
-0.99
-0.96
-0.85
-0.66
-0.43
-0.19
0.02
0.17
0.21
0.11
-0.11
-0.41
-0.69
-0.88
-0.94
-0.85
-0.59
-0.16
0.40
1.03
1.58
1.89
1.84
1.43
0.83
0.26
-0.10
-0.16
-0.03
0.14
0.22
0.18
0.09
0.05
0.12
0.26
0.38
0.42
0.34
0.16
-0.06
-0.26
-0.40
-0.46
-0.46
-0.42
-0.37
-0.33
-0.28
-0.21
-0.10
0.05
0.18
0.26
0.23
0.09
-0.09
-0.21
-0.20
-0.03
0.23
0.49
0.64
0.61
0.41
0.14
-0.11
-0.22
-0.14
0.09
0.38
0.58
0.61
0.47
0.21
-0.05
-0.25
-0.36
-0.41
-0.48
-0.57
-0.68
-0.75
-0.72
-0.60
-0.44
-0.35
-0.43
-0.70
-1.11
-1.54
-1.85
-1.91
-1.67
-1.14
-0.43
0.30
0.90
1.24
1.29
1.06
0.67
0.25
-0.09
-0.27
-0.26
-0.08
0.23
0.57
0.89
1.14
1.27
1.30
1.20
1.02
0.76
0.46
0.19
0.01
-0.02
0.12
0.40
0.71
0.94
0.99
0.84
0.54
0.18
-0.13
-0.32
-0.34
-0.23
-0.02
0.18
0.28
0.24
0.06
-0.20
-0.41
-0.51
-0.47
-0.33
-0.21
-0.16
-0.20
-0.24
-0.19
-0.01
0.25
0.46
0.49
0.29
-0.05
-0.36
-0.52
-0.47
-0.30
-0.16
-0.16
-0.32
-0.56
-0.77
-0.87
-0.89
-0.89
-0.91
-0.96
-0.97
-0.84
-0.53
-0.06
0.48
0.97
1.31
1.43
1.34
1.10
0.81
0.59
0.50
0.56
0.71
0.87
0.96
0.93
0.78
0.54
0.26
-0.01
-0.21
-0.33
-0.34
-0.27
-0.18
-0.13
-0.22
-0.45
-0.77
-1.05
-1.11
-0.87
-0.37
0.26
0.76
0.96
0.78
0.30
-0.28
-0.74
-0.95
-0.90
-0.68
-0.42
-0.24
-0.19
-0.23
-0.31
-0.40
-0.45
-0.49
-0.50
-0.50
-0.47
-0.42
-0.33
-0.20
-0.01
0.21
0.45
0.62
0.65
0.51
0.21
-0.15
-0.41
-0.46
-0.25
0.11
0.45
0.61
0.52
0.23
-0.12
-0.40
-0.53
-0.51
-0.39
-0.22
-0.02
0.21
0.49
0.82
1.11
1.28
1.25
0.98
0.54
0.03
-0.41
-0.69
-0.76
-0.69
-0.53
-0.35
-0.19
-0.07
-0.02
-0.02
-0.04
-0.03
0.09
0.34
0.66
0.95
1.10
1.05
0.83
0.52
0.22
-0.04
-0.27
-0.50
-0.72
-0.84
-0.78
-0.49
-0.01
0.51
0.92
1.10
1.05
0.85
0.63
0.46
0.36
0.30
0.23
0.10
-0.08
-0.30
-0.52
-0.73
-0.88
-0.94
-0.86
-0.63
-0.34
-0.10
-0.00
-0.07
-0.22
-0.32
-0.26
-0.03
0.26
0.49
0.57
0.50
0.35
0.19
0.05
-0.10
-0.27
-0.44
-0.53
-0.47
-0.21
0.15
0.49
0.65
0.57
0.28
-0.12
-0.46
-0.63
-0.60
-0.41
-0.15
0.08
0.22
0.25
0.20
0.09
-0.04
-0.13
-0.15
-0.07
0.11
0.35
0.56
0.67
0.66
0.53
0.33
0.13
-0.03
-0.13
-0.19
-0.22
-0.24
-0.23
-0.18
-0.07
0.12
0.38
0.64
0.80
0.75
0.49
0.05
-0.42
-0.80
-0.96
-0.86
-0.54
-0.10
0.30
0.52
0.46
0.16
-0.22
-0.50
-0.53
-0.30
0.10
0.47
0.68
0.70
0.58
0.42
0.33
0.30
0.30
0.20
-0.04
-0.46
-0.98
-1.48
-1.81
-1.87
-1.68
-1.28
-0.78
-0.22
0.34
0.88
1.32
1.55
1.46
1.05
0.42
-0.25
-0.73
-0.92
-0.81
-0.49
-0.10
0.23
0.44
0.50
0.46
0.38
0.32
0.31
0.36
0.46
0.56
0.63
0.67
0.66
0.59
0.48
0.33
0.22
0.18
0.24
0.36
0.50
0.61
0.65
0.65
0.61
0.51
0.34
0.10
-0.14
-0.29
-0.29
-0.14
0.05
0.12
-0.00
-0.29
-0.64
-0.90
-0.99
-0.90
-0.71
-0.50
-0.33
-0.23
-0.22
-0.29
-0.45
-0.68
-0.91
-1.07
-1.08
-0.89
-0.55
-0.14
0.25
0.60
0.86
1.07
1.19
1.17
0.96
0.56
0.04
-0.43
-0.69
-0.66
-0.41
-0.10
0.11
0.14
0.02
-0.10
-0.15
-0.11
-0.05
-0.07
-0.20
-0.38
-0.51
-0.51
-0.37
-0.18
-0.00
0.14
0.27
0.44
0.67
0.90
1.05
1.04
0.88
0.66
0.47
0.37
0.30
0.16
-0.14
-0.55
-0.98
-1.27
-1.34
-1.22
-1.00
-0.77
-0.56
-0.30
0.08
0.58
1.08
1.38
1.31
0.85
0.15
-0.52
-0.91
-0.88
-0.46
0.16
0.74
1.08
1.09
0.76
0.21
-0.40
-0.92
-1.25
-1.34
-1.21
-0.92
-0.51
-0.05
0.42
0.81
1.05
1.10
0.96
0.71
0.46
0.29
0.22
0.22
0.18
-0.01
-0.38
-0.88
-1.40
-1.77
-1.83
-1.53
-0.91
-0.12
0.66
1.27
1.58
1.61
1.42
1.12
0.84
0.66
0.58
0.57
0.53
0.39
0.12
-0.20
-0.47
-0.59
-0.56
-0.46
-0.43
-0.56
-0.84
-1.15
-1.33
-1.24
-0.90
-0.42
0.02
0.29
0.40
0.44
0.56
0.83
1.20
1.51
1.59
1.40
1.02
0.62
0.42
0.51
0.83
1.20
1.41
1.33
0.96
0.42
-0.13
-0.57
-0.85
-0.98
-1.06
-1.10
-1.11
-1.05
-0.86
-0.57
-0.26
-0.05
-0.07
-0.38
-0.92
-1.55
-2.05
-2.21
-1.96
-1.33
-0.56
0.09
0.38
0.27
-0.12
-0.52
-0.73
-0.64
-0.31
0.13
0.57
0.93
1.18
1.30
1.26
1.02
0.59
0.08
-0.34
-0.52
-0.41
-0.09
0.28
0.54
0.64
0.63
0.61
0.64
0.68
0.67
0.55
0.36
0.20
0.16
0.26
0.39
0.36
0.06
-0.46
-1.03
-1.40
-1.42
-1.12
-0.64
-0.22
-0.01
-0.04
-0.22
-0.39
-0.40
-0.16
0.28
0.84
1.38
1.79
1.99
1.97
1.75
1.39
0.97
0.60
0.34
0.23
0.25
0.38
0.54
0.69
0.78
0.79
0.68
0.43
0.04
-0.40
-0.78
-0.96
-0.88
-0.59
-0.26
-0.05
-0.06
-0.24
-0.46
-0.59
-0.55
-0.39
-0.21
-0.12
-0.15
-0.29
-0.51
-0.77
-1.06
-1.36
-1.62
-1.78
-1.78
-1.61
-1.27
-0.81
-0.31
0.11
0.33
0.26
-0.07
-0.50
-0.80
-0.76
-0.32
0.39
1.12
1.63
1.81
1.69
1.35
0.92
0.44
-0.03
-0.43
-0.69
-0.76
-0.66
-0.47
-0.24
0.01
0.29
0.60
0.88
1.04
0.98
0.72
0.34
0.00
-0.18
-0.16
-0.01
0.18
0.33
0.37
0.34
0.27
0.23
0.29
0.48
0.75
1.01
1.13
1.04
0.73
0.29
-0.17
-0.54
-0.79
-0.94
-1.00
-0.97
-0.84
-0.66
-0.48
-0.39
-0.47
-0.70
-1.00
-1.23
-1.26
-1.08
-0.73
-0.30
0.11
0.44
0.68
0.84
0.93
0.96
0.92
0.83
0.74
0.69
0.72
0.83
0.94
0.97
0.85
0.56
0.19
-0.16
-0.39
-0.48
-0.48
-0.48
-0.58
-0.77
-1.03
-1.24
-1.34
-1.31
-1.16
-0.98
-0.84
-0.78
-0.78
-0.77
-0.67
-0.42
-0.06
0.32
0.59
0.68
0.59
0.37
0.11
-0.13
-0.36
-0.64
-0.96
-1.27
-1.47
-1.42
-1.09
-0.50
0.20
0.83
1.29
1.53
1.63
1.65
1.63
1.56
1.42
1.23
1.05
0.97
1.04
1.23
1.42
1.49
1.40
1.17
0.90
0.65
0.45
0.26
0.06
-0.16
-0.33
-0.40
-0.37
-0.28
-0.24
-0.31
-0.47
-0.63
-0.67
-0.54
-0.29
-0.05
0.03
-0.09
-0.34
-0.60
-0.76
-0.78
-0.70
-0.57
-0.42
-0.25
-0.04
0.16
0.30
0.33
0.26
0.13
0.03
-0.00
0.04
0.09
0.11
0.08
0.03
0.01
0.08
0.22
0.35
0.36
0.17
-0.23
-0.73
-1.16
-1.34
-1.19
-0.76
-0.21
0.28
0.57
0.62
0.50
0.32
0.17
0.11
0.13
0.18
0.17
0.09
-0.05
-0.17
-0.19
-0.08
0.12
0.32
0.44
0.42
0.27
0.05
-0.16
-0.31
-0.37
-0.36
-0.29
-0.23
-0.18
-0.18
-0.20
-0.21
-0.13
0.08
0.40
0.74
0.99
1.04
0.88
0.62
0.41
0.35
0.45
0.59
0.63
0.47
0.13
-0.25
-0.55
-0.72
-0.80
-0.86
-0.97
-1.07
-1.04
-0.80
-0.33
0.24
0.73
0.98
0.97
0.79
0.57
0.42
0.37
0.35
0.29
0.11
-0.15
-0.44
-0.67
-0.82
-0.90
-0.94
-0.96
-0.96
-0.89
-0.72
-0.40
0.01
0.43
0.73
0.83
0.70
0.43
0.16
0.04
0.13
0.42
0.84
1.27
1.63
1.88
2.00
1.98
1.82
1.58
1.31
1.07
0.94
0.92
0.98
1.02
0.95
0.72
0.34
-0.11
-0.53
-0.83
-0.99
-1.04
-1.07
-1.10
-1.12
-1.09
-0.99
-0.84
-0.69
-0.59
-0.57
-0.59
-0.60
-0.57
-0.50
-0.40
-0.31
-0.25
-0.28
-0.41
-0.68
-1.05
-1.45
-1.77
-1.90
-1.84
-1.65
-1.45
-1.30
-1.20
-1.08
-0.85
-0.47
0.06
0.62
1.10
1.43
1.58
1.56
1.43
1.27
1.17
1.19
1.32
1.48
1.54
1.44
1.20
0.95
0.83
0.88
1.01
1.04
0.85
0.43
-0.09
-0.52
-0.72
-0.68
-0.50
-0.32
-0.24
-0.26
-0.30
-0.29
-0.21
-0.13
-0.12
-0.26
-0.53
-0.84
-1.07
-1.10
-0.90
-0.53
-0.19
-0.05
-0.21
-0.65
-1.22
-1.72
-1.97
-1.87
-1.42
-0.72
0.07
0.76
1.16
1.17
0.82
0.24
-0.34
-0.71
-0.75
-0.53
-0.21
-0.00
0.02
-0.09
-0.17
-0.09
0.18
0.52
0.75
0.74
0.52
0.25
0.11
0.20
0.50
0.90
1.24
1.40
1.38
1.23
1.04
0.90
0.83
0.81
0.77
0.62
0.33
-0.04
-0.40
-0.62
-0.62
-0.44
-0.19
-0.01
-0.02
-0.21
-0.50
-0.74
-0.81
-0.67
-0.40
-0.13
0.02
-0.01
-0.17
-0.33
-0.40
-0.33
-0.15
0.02
0.09
0.00
-0.20
-0.40
-0.49
-0.40
-0.16
0.11
0.26
0.18
-0.09
-0.45
-0.73
-0.78
-0.60
-0.25
0.15
0.52
0.84
1.07
1.18
1.12
0.89
0.52
0.12
-0.18
-0.33
-0.33
-0.27
-0.21
-0.20
-0.23
-0.26
-0.30
-0.36
-0.47
-0.61
-0.71
-0.66
-0.41
0.00
0.46
0.80
0.90
0.78
0.51
0.25
0.11
0.13
0.24
0.35
0.37
0.28
0.12
-0.03
-0.13
-0.20
-0.26
-0.33
-0.43
-0.52
-0.55
-0.49
-0.36
-0.19
-0.04
0.08
0.16
0.23
0.30
0.37
0.40
0.41
0.41
0.47
0.63
0.88
1.12
1.22
1.12
0.84
0.53
0.29
0.18
0.12
-0.05
-0.41
-0.90
-1.37
-1.64
-1.62
-1.35
-0.98
-0.66
-0.50
-0.52
-0.68
-0.86
-0.97
-0.94
-0.74
-0.42
-0.09
0.12
0.15
0.05
-0.06
-0.06
0.08
0.30
0.47
0.49
0.33
0.06
-0.22
-0.45
-0.59
-0.67
-0.69
-0.68
-0.60
-0.43
-0.16
0.18
0.53
0.81
0.95
0.92
0.73
0.48
0.26
0.12
0.10
0.15
0.22
0.28
0.31
0.33
0.42
0.60
0.90
1.27
1.60
1.77
1.65
1.22
0.55
-0.16
-0.71
-0.96
-0.88
-0.60
-0.26
-0.02
0.13
0.22
0.32
0.48
0.67
0.87
1.05
1.24
1.44
1.61
1.65
1.47
1.03
0.43
-0.17
-0.59
-0.76
-0.72
-0.58
-0.45
-0.39
-0.36
-0.30
-0.21
-0.16
-0.20
-0.36
-0.59
-0.81
-0.94
-0.95
-0.90
-0.86
-0.84
-0.83
-0.75
-0.59
-0.38
-0.22
-0.18
-0.29
-0.48
-0.65
-0.74
-0.71
-0.60
-0.42
-0.22
0.01
0.23
0.43
0.61
0.76
0.91
1.07
1.21
1.33
1.39
1.37
1.27
1.13
0.99
0.88
0.82
0.82
0.86
0.89
0.86
0.73
0.48
0.12
-0.29
-0.67
-0.94
-1.06
-1.01
-0.83
-0.55
-0.24
0.03
0.25
0.42
0.57
0.71
0.80
0.77
0.56
0.18
-0.27
-0.63
-0.78
-0.74
-0.58
-0.45
-0.45
-0.58
-0.72
-0.73
-0.55
-0.23
0.08
0.23
0.18
0.01
-0.14
-0.13
0.08
0.37
0.56
0.51
0.19
-0.29
-0.74
-0.99
-0.99
-0.78
-0.51
-0.30
-0.22
-0.27
-0.41
-0.59
-0.73
-0.77
-0.70
-0.53
-0.29
-0.05
0.12
0.19
0.16
0.08
-0.00
-0.05
-0.06
-0.05
-0.04
-0.05
-0.06
-0.10
-0.15
-0.24
-0.37
-0.54
-0.71
-0.83
-0.85
-0.75
-0.54
-0.34
-0.29
-0.44
-0.78
-1.16
-1.38
-1.30
-0.89
-0.28
0.33
0.79
1.01
1.03
0.92
0.71
0.44
0.11
-0.22
-0.47
-0.54
-0.37
0.01
0.43
0.72
0.77
0.54
0.17
-0.20
-0.40
-0.37
-0.16
0.11
0.31
0.40
0.40
0.37
0.36
0.34
0.27
0.11
-0.08
-0.17
-0.06
0.27
0.66
0.90
0.79
0.34
-0.26
-0.74
-0.85
-0.54
0.05
0.68
1.11
1.22
1.05
0.74
0.43
0.24
0.20
0.30
0.46
0.63
0.77
0.87
0.93
0.97
0.97
0.90
0.72
0.40
-0.05
-0.57
-1.08
-1.46
-1.60
-1.47
-1.13
-0.73
-0.44
-0.37
-0.53
-0.78
-0.97
-0.97
-0.77
-0.45
-0.16
0.00
0.04
0.01
-0.02
-0.04
-0.10
-0.25
-0.49
-0.77
-1.00
-1.08
-0.98
-0.74
-0.42
-0.11
0.16
0.38
0.57
0.75
0.91
1.04
1.13
1.17
1.17
1.12
1.03
0.91
0.80
0.70
0.60
0.46
0.23
-0.10
-0.49
-0.86
-1.10
-1.14
-1.02
-0.82
-0.67
-0.65
-0.81
-1.08
-1.40
-1.67
-1.82
-1.84
-1.70
-1.41
-1.02
-0.58
-0.15
0.20
0.43
0.54
0.55
0.51
0.46
0.46
0.53
0.65
0.76
0.82
0.81
0.78
0.79
0.90
1.08
1.27
1.36
1.30
1.11
0.89
0.77
0.80
0.97
1.18
1.28
1.20
0.93
0.53
0.06
-0.41
-0.86
-1.25
-1.55
-1.71
-1.70
-1.53
-1.25
-0.94
-0.63
-0.38
-0.18
-0.09
-0.10
-0.20
-0.31
-0.31
-0.09
0.38
0.98
1.47
1.65
1.40
0.80
0.04
-0.62
-1.03
-1.15
-1.07
-0.95
-0.88
-0.88
-0.86
-0.72
-0.39
0.08
0.57
0.89
0.92
0.68
0.31
0.01
-0.06
0.13
0.43
0.67
0.67
0.42
0.05
-0.22
-0.22
0.06
0.48
0.83
0.96
0.88
0.70
0.56
0.51
0.49
0.38
0.12
-0.26
-0.62
-0.80
-0.74
-0.51
-0.25
-0.08
-0.02
0.01
0.11
0.31
0.52
0.60
0.44
0.07
-0.41
-0.78
-0.91
-0.77
-0.45
-0.10
0.17
0.29
0.30
0.25
0.22
0.26
0.37
0.54
0.74
0.89
0.91
0.75
0.38
-0.13
-0.69
-1.19
-1.58
-1.85
-2.00
-2.03
-1.91
-1.59
-1.08
-0.45
0.18
0.64
0.84
0.78
0.53
0.21
-0.11
-0.37
-0.54
-0.63
-0.59
-0.40
-0.07
0.33
0.70
0.92
0.93
0.76
0.50
0.28
0.21
0.31
0.56
0.89
1.23
1.49
1.59
1.47
1.13
0.65
0.14
-0.27
-0.50
-0.51
-0.35
-0.08
0.22
0.49
0.70
0.80
0.76
0.59
0.32
0.00
-0.34
-0.71
-1.15
-1.64
-2.11
-2.41
-2.44
-2.15
-1.63
-1.04
-0.52
-0.16
0.07
0.24
0.41
0.56
0.64
0.60
0.48
0.33
0.27
0.31
0.46
0.61
0.70
0.70
0.59
0.38
0.09
-0.27
-0.63
-0.93
-1.05
-0.93
-0.57
-0.04
0.52
0.99
1.26
1.29
1.11
0.78
0.44
0.21
0.23
0.54
1.06
1.59
1.93
1.93
1.58
1.03
0.52
0.22
0.21
0.41
0.64
0.71
0.49
0.04
-0.51
-0.93
-1.08
-0.91
-0.52
-0.09
0.22
0.30
0.15
-0.18
-0.60
-1.05
-1.45
-1.72
-1.80
-1.65
-1.29
-0.84
-0.45
-0.24
-0.27
-0.49
-0.80
-1.11
-1.32
-1.39
-1.26
-0.93
-0.43
0.15
0.64
0.89
0.79
0.39
-0.16
-0.63
-0.88
-0.89
-0.73
-0.52
-0.33
-0.14
0.14
0.54
1.04
1.48
1.70
1.64
1.33
0.90
0.52
0.26
0.15
0.14
0.15
0.16
0.15
0.10
0.03
-0.08
-0.24
-0.44
-0.64
-0.82
-0.91
-0.87
-0.68
-0.39
-0.08
0.10
0.10
-0.11
-0.42
-0.69
-0.81
-0.78
-0.64
-0.48
-0.34
-0.18
-0.00
0.22
0.43
0.59
0.66
0.68
0.74
0.90
1.19
1.55
1.90
2.14
2.23
2.17
1.98
1.70
1.34
0.90
0.40
-0.10
-0.53
-0.78
-0.77
-0.51
-0.10
0.29
0.52
0.52
0.33
0.07
-0.16
-0.28
-0.31
-0.28
-0.24
-0.21
-0.18
-0.16
-0.20
-0.31
-0.52
-0.77
-0.96
-1.01
-0.88
-0.58
-0.23
0.03
0.12
-0.01
-0.34
-0.78
-1.21
-1.53
-1.64
-1.51
-1.15
-0.61
-0.02
0.48
0.81
0.94
0.91
0.81
0.70
0.60
0.49
0.30
0.01
-0.37
-0.74
-1.01
-1.08
-0.93
-0.65
-0.33
-0.08
-0.00
-0.10
-0.33
-0.62
-0.83
-0.88
-0.74
-0.43
-0.04
0.31
0.53
0.57
0.42
0.13
-0.20
-0.47
-0.56
-0.44
-0.10
0.37
0.83
1.12
1.13
0.84
0.33
-0.23
-0.64
-0.72
-0.44
0.11
0.74
1.22
1.42
1.31
1.02
0.70
0.49
0.45
0.55
0.71
0.85
0.88
0.76
0.50
0.16
-0.15
-0.32
-0.24
0.10
0.60
1.11
1.47
1.58
1.44
1.10
0.67
0.24
-0.08
-0.24
-0.22
-0.10
0.02
0.01
-0.17
-0.50
-0.81
-0.98
-0.92
-0.67
-0.40
-0.29
-0.45
-0.87
-1.40
-1.84
-2.08
-2.06
-1.84
-1.53
-1.21
-0.91
-0.62
-0.32
-0.03
0.19
0.27
0.22
0.08
-0.07
-0.15
-0.14
-0.08
-0.03
0.02
0.09
0.23
0.47
0.78
1.04
1.18
1.15
0.97
0.72
0.46
0.23
0.03
-0.16
-0.31
-0.38
-0.34
-0.17
0.10
0.37
0.54
0.55
0.43
0.25
0.10
0.05
0.10
0.22
0.36
0.49
0.57
0.60
0.57
0.48
0.34
0.17
0.02
-0.09
-0.15
-0.17
-0.20
-0.27
-0.41
-0.56
-0.65
-0.65
-0.55
-0.43
-0.38
-0.46
-0.64
-0.86
-1.01
-1.02
-0.86
-0.59
-0.25
0.07
0.32
0.46
0.46
0.34
0.16
0.03
-0.00
0.08
0.22
0.32
0.33
0.24
0.15
0.11
0.16
0.27
0.36
0.39
0.37
0.35
0.35
0.34
0.24
0.02
-0.28
-0.55
-0.65
-0.51
-0.16
0.30
0.71
0.99
1.11
1.11
1.06
1.04
1.05
1.07
1.05
0.94
0.68
0.30
-0.15
-0.55
-0.81
-0.87
-0.75
-0.52
-0.27
-0.07
0.06
0.12
0.10
-0.01
-0.20
-0.46
-0.71
-0.83
-0.73
-0.41
0.05
0.48
0.72
0.72
0.52
0.21
-0.10
-0.36
-0.57
-0.75
-0.86
-0.88
-0.81
-0.69
-0.60
-0.63
-0.76
-0.95
-1.09
-1.11
-0.99
-0.75
-0.43
-0.01
0.48
1.00
1.40
1.49
1.17
0.50
-0.32
-0.99
-1.27
-1.09
-0.56
0.08
0.60
0.89
0.95
0.88
0.75
0.61
0.44
0.24
0.03
-0.16
-0.25
-0.25
-0.18
-0.10
-0.05
-0.05
-0.06
-0.05
0.01
0.12
0.21
0.25
0.23
0.14
0.02
-0.08
-0.14
-0.10
0.01
0.17
0.29
0.32
0.27
0.16
0.08
0.07
0.11
0.16
0.16
0.11
0.08
0.15
0.36
0.68
1.03
1.28
1.39
1.37
1.25
1.07
0.80
0.45
0.00
-0.45
-0.79
-0.89
-0.71
-0.37
-0.08
-0.04
-0.32
-0.84
-1.40
-1.78
-1.86
-1.67
-1.35
-1.03
-0.77
-0.56
-0.34
-0.08
0.17
0.34
0.37
0.24
-0.00
-0.27
-0.47
-0.54
-0.44
-0.21
0.06
0.28
0.36
0.30
0.16
0.05
0.06
0.18
0.35
0.50
0.58
0.59
0.59
0.59
0.59
0.55
0.45
0.30
0.16
0.08
0.05
0.03
-0.05
-0.19
-0.33
-0.39
-0.31
-0.09
0.17
0.41
0.53
0.52
0.40
0.19
-0.06
-0.25
-0.33
-0.24
0.00
0.32
0.59
0.70
0.62
0.36
0.03
-0.26
-0.43
-0.41
-0.18
0.21
0.69
1.12
1.37
1.37
1.14
0.77
0.37
0.01
-0.25
-0.38
-0.39
-0.28
-0.13
0.02
0.10
0.08
-0.06
-0.26
-0.48
-0.65
-0.72
-0.67
-0.53
-0.33
-0.16
-0.06
-0.06
-0.16
-0.29
-0.40
-0.47
-0.52
-0.59
-0.68
-0.75
-0.74
-0.63
-0.44
-0.25
-0.13
-0.13
-0.21
-0.26
-0.20
0.01
0.26
0.43
0.42
0.23
-0.03
-0.20
-0.18
0.02
0.29
0.52
0.61
0.60
0.57
0.62
0.75
0.88
0.92
0.84
0.68
0.54
0.46
0.46
0.47
0.42
0.30
0.14
-0.02
-0.16
-0.29
-0.42
-0.52
-0.51
-0.32
0.00
0.35
0.57
0.55
0.30
-0.04
-0.32
-0.42
-0.35
-0.21
-0.10
-0.12
-0.34
-0.72
-1.19
-1.65
-1.95
-2.01
-1.84
-1.51
-1.14
-0.84
-0.64
-0.50
-0.33
-0.12
0.10
0.25
0.27
0.21
0.15
0.20
0.38
0.65
0.88
1.00
0.97
0.85
0.73
0.69
0.74
0.88
1.07
1.25
1.37
1.40
1.31
1.14
0.96
0.79
0.62
0.44
0.19
-0.11
-0.40
-0.56
-0.53
-0.30
0.01
0.25
0.31
0.17
-0.08
-0.28
-0.35
-0.28
-0.17
-0.14
-0.29
-0.56
-0.81
-0.89
-0.71
-0.32
0.09
0.36
0.37
0.13
-0.26
-0.67
-1.00
-1.19
-1.19
-1.00
-0.65
-0.19
0.26
0.59
0.73
0.64
0.37
0.02
-0.32
-0.61
-0.82
-0.96
-0.99
-0.93
-0.77
-0.51
-0.20
0.11
0.36
0.52
0.59
0.62
0.65
0.71
0.77
0.81
0.79
0.73
0.66
0.60
0.54
0.44
0.31
0.14
0.01
-0.05
-0.06
-0.10
-0.24
-0.50
-0.82
-1.03
-1.02
-0.73
-0.26
0.25
0.63
0.78
0.71
0.53
0.37
0.35
0.47
0.65
0.77
0.68
0.33
-0.22
-0.80
-1.23
-1.40
-1.30
-1.04
-0.80
-0.69
-0.76
-0.91
-1.00
-0.90
-0.62
-0.22
0.17
0.44
0.56
0.57
0.54
0.52
0.49
0.46
0.40
0.39
0.46
0.63
0.85
1.02
1.08
1.01
0.90
0.82
0.80
0.81
0.72
0.46
0.04
-0.44
-0.84
-1.04
-1.02
-0.85
-0.65
-0.51
-0.48
-0.51
-0.55
-0.54
-0.48
-0.43
-0.42
-0.47
-0.52
-0.48
-0.29
0.04
0.43
0.81
1.09
1.24
1.27
1.20
1.06
0.88
0.71
0.56
0.43
0.25
-0.05
-0.47
-0.92
-1.26
-1.34
-1.11
-0.65
-0.11
0.38
0.71
0.86
0.81
0.57
0.16
-0.35
-0.83
-1.16
-1.26
-1.16
-0.95
-0.75
-0.60
-0.47
-0.31
-0.07
0.25
0.57
0.86
1.08
1.24
1.32
1.32
1.22
0.99
0.65
0.25
-0.13
-0.39
-0.48
-0.38
-0.13
0.18
0.44
0.57
0.53
0.39
0.24
0.18
0.26
0.44
0.62
0.67
0.56
0.28
-0.06
-0.40
-0.68
-0.85
-0.95
-0.98
-0.93
-0.83
-0.69
-0.59
-0.57
-0.66
-0.82
-0.94
-0.97
-0.92
-0.84
-0.84
-0.93
-1.05
-1.07
-0.91
-0.62
-0.30
-0.11
-0.09
-0.19
-0.27
-0.22
0.01
0.36
0.72
0.99
1.14
1.16
1.08
0.95
0.78
0.60
0.43
0.26
0.10
-0.04
-0.13
-0.14
0.00
0.28
0.67
1.08
1.41
1.57
1.53
1.30
0.93
0.48
0.06
-0.25
-0.38
-0.29
-0.01
0.37
0.71
0.92
0.93
0.75
0.45
0.09
-0.28
-0.59
-0.81
-0.89
-0.78
-0.49
-0.11
0.23
0.37
0.24
-0.11
-0.51
-0.72
-0.64
-0.28
0.19
0.53
0.62
0.42
0.05
-0.38
-0.79
-1.15
-1.47
-1.72
-1.85
-1.77
-1.41
-0.80
-0.10
0.44
0.63
0.41
-0.09
-0.58
-0.76
-0.47
0.23
1.02
1.54
1.52
0.92
0.02
-0.80
-1.15
-0.92
-0.19
0.74
1.53
1.94
1.91
1.52
1.00
0.52
0.18
-0.03
-0.18
-0.28
-0.32
-0.24
-0.02
0.26
0.46
0.43
0.14
-0.34
-0.77
-0.97
-0.82
-0.41
0.08
0.41
0.45
0.21
-0.18
-0.55
-0.74
-0.68
-0.40
0.02
0.48
0.86
1.06
1.04
0.81
0.42
-0.04
-0.45
-0.69
-0.71
-0.51
-0.20
0.07
0.16
-0.02
-0.41
-0.87
-1.21
-1.28
-1.05
-0.64
-0.25
-0.01
0.01
-0.09
-0.15
-0.06
0.20
0.53
0.74
0.70
0.39
-0.11
-0.59
-0.88
-0.91
-0.70
-0.38
-0.11
0.02
-0.00
-0.10
-0.16
-0.13
0.02
0.22
0.40
0.51
0.55
0.58
0.63
0.73
0.87
0.99
1.10
1.21
1.33
1.45
1.50
1.38
1.04
0.48
-0.19
-0.82
-1.26
-1.42
-1.29
-0.95
-0.53
-0.14
0.10
0.15
0.03
-0.15
-0.27
-0.31
-0.27
-0.29
-0.47
-0.82
-1.21
-1.43
-1.33
-0.89
-0.31
0.15
0.27
0.06
-0.31
-0.54
-0.44
-0.02
0.54
0.95
1.06
0.88
0.58
0.35
0.29
0.35
0.37
0.22
-0.09
-0.44
-0.65
-0.60
-0.28
0.14
0.47
0.54
0.32
-0.07
-0.44
-0.61
-0.48
-0.08
0.42
0.83
0.99
0.87
0.54
0.16
-0.09
-0.13
0.03
0.29
0.53
0.67
0.69
0.60
0.44
0.21
-0.04
-0.28
-0.43
-0.42
-0.27
-0.00
0.29
0.51
0.59
0.50
0.25
-0.06
-0.34
-0.46
-0.34
-0.01
0.39
0.65
0.59
0.15
-0.54
-1.24
-1.71
-1.85
-1.72
-1.48
-1.28
-1.20
-1.20
-1.19
-1.11
-0.91
-0.65
-0.38
-0.16
-0.01
0.09
0.18
0.30
0.49
0.73
0.97
1.14
1.19
1.10
0.93
0.75
0.62
0.56
0.55
0.56
0.57
0.55
0.50
0.42
0.28
0.08
-0.15
-0.34
-0.41
-0.31
-0.05
0.31
0.67
0.93
1.06
1.08
1.05
1.01
0.94
0.81
0.59
0.30
0.01
-0.21
-0.34
-0.41
-0.51
-0.67
-0.85
-0.93
-0.82
-0.49
-0.07
0.26
0.36
0.24
0.01
-0.14
-0.09
0.16
0.49
0.74
0.81
0.72
0.52
0.30
0.09
-0.13
-0.38
-0.68
-0.97
-1.18
-1.24
-1.11
-0.83
-0.49
-0.15
0.13
0.33
0.50
0.65
0.79
0.86
0.80
0.58
0.25
-0.10
-0.31
-0.30
-0.06
0.27
0.55
0.64
0.50
0.19
-0.19
-0.51
-0.74
-0.85
-0.84
-0.72
-0.51
-0.27
-0.02
0.17
0.27
0.26
0.16
-0.00
-0.23
-0.51
-0.85
-1.18
-1.44
-1.55
-1.48
-1.25
-0.99
-0.82
-0.82
-0.98
-1.21
-1.37
-1.35
-1.14
-0.80
-0.46
-0.19
-0.01
0.12
0.30
0.56
0.89
1.17
1.31
1.28
1.14
1.05
1.13
1.42
1.81
2.14
2.27
2.12
1.75
1.30
0.86
0.50
0.25
0.09
-0.00
-0.04
-0.03
-0.02
-0.06
-0.17
-0.38
-0.65
-0.93
-1.15
-1.20
-1.06
-0.76
-0.39
-0.08
0.08
0.07
-0.04
-0.11
-0.05
0.18
0.52
0.85
1.10
1.22
1.22
1.14
1.03
0.90
0.78
0.65
0.52
0.36
0.18
0.01
-0.15
-0.25
-0.31
-0.33
-0.33
-0.30
-0.25
-0.22
-0.24
-0.37
-0.60
-0.91
-1.18
-1.29
-1.17
-0.84
-0.43
-0.08
0.09
0.09
0.00
-0.06
-0.03
0.04
0.10
0.05
-0.09
-0.27
-0.42
-0.46
-0.39
-0.25
-0.13
-0.05
-0.04
-0.05
-0.08
-0.12
-0.22
-0.43
-0.73
-1.11
-1.46
-1.71
-1.79
-1.67
-1.35
-0.87
-0.26
0.39
0.99
1.46
1.72
1.76
1.60
1.35
1.08
0.87
0.79
0.86
1.08
1.37
1.63
1.71
1.53
1.08
0.47
-0.09
-0.43
-0.48
-0.32
-0.15
-0.18
-0.48
-0.97
-1.42
-1.64
-1.56
-1.26
-0.97
-0.86
-0.97
-1.17
-1.29
-1.16
-0.79
-0.32
0.04
0.17
0.06
-0.12
-0.20
-0.04
0.32
0.70
0.93
0.85
0.51
0.04
-0.33
-0.47
-0.34
-0.04
0.28
0.49
0.54
0.47
0.34
0.22
0.14
0.07
-0.04
-0.20
-0.39
-0.53
-0.55
-0.38
-0.05
0.35
0.70
0.86
0.75
0.39
-0.10
-0.54
-0.74
-0.61
-0.15
0.53
1.26
1.86
2.19
2.22
1.98
1.51
0.88
0.20
-0.44
-0.88
-1.02
-0.87
-0.54
-0.24
-0.14
-0.28
-0.56
-0.74
-0.63
-0.20
0.40
0.89
1.06
0.85
0.39
-0.10
-0.43
-0.56
-0.54
-0.47
-0.40
-0.34
-0.24
-0.07
0.13
0.28
0.30
0.13
-0.14
-0.41
-0.55
-0.48
-0.22
0.11
0.34
0.36
0.13
-0.25
-0.58
-0.74
-0.65
-0.41
-0.16
-0.04
-0.09
-0.26
-0.46
-0.61
-0.69
-0.70
-0.65
-0.50
-0.22
0.16
0.55
0.80
0.76
0.42
-0.07
-0.49
-0.59
-0.27
0.37
1.06
1.56
1.68
1.45
1.04
0.65
0.42
0.35
0.32
0.24
0.05
-0.19
-0.42
-0.58
-0.66
-0.69
-0.68
-0.60
-0.41
-0.07
0.39
0.88
1.25
1.38
1.22
0.81
0.26
-0.25
-0.57
-0.60
-0.33
0.16
0.67
1.03
1.10
0.84
0.37
-0.17
-0.63
-0.91
-1.00
-0.94
-0.80
-0.66
-0.59
-0.59
-0.65
-0.75
-0.84
-0.86
-0.80
-0.66
-0.46
-0.24
-0.02
0.14
0.22
0.21
0.12
0.01
-0.06
-0.05
0.01
0.05
-0.02
-0.23
-0.53
-0.75
-0.76
-0.48
0.07
0.72
1.29
1.63
1.67
1.46
1.09
0.69
0.37
0.15
0.04
0.00
-0.00
-0.02
-0.08
-0.17
-0.27
-0.35
-0.39
-0.37
-0.29
-0.17
-0.04
0.09
0.18
0.23
0.22
0.15
0.02
-0.13
-0.24
-0.25
-0.11
0.16
0.51
0.85
1.05
1.04
0.80
0.36
-0.14
-0.56
-0.78
-0.74
-0.49
-0.17
0.06
0.12
-0.01
-0.21
-0.37
-0.43
-0.39
-0.31
-0.27
-0.31
-0.42
-0.55
-0.69
-0.81
-0.88
-0.87
-0.78
-0.62
-0.45
-0.31
-0.21
-0.08
0.10
0.36
0.62
0.72
0.58
0.22
-0.18
-0.41
-0.28
0.16
0.77
1.29
1.57
1.60
1.50
1.41
1.39
1.38
1.23
0.86
0.32
-0.22
-0.54
-0.54
-0.31
-0.04
0.06
-0.09
-0.42
-0.74
-0.90
-0.84
-0.66
-0.51
-0.48
-0.60
-0.77
-0.89
-0.87
-0.72
-0.50
-0.33
-0.28
-0.38
-0.53
-0.64
-0.57
-0.31
0.03
0.29
0.32
0.11
-0.21
-0.44
-0.40
-0.10
0.33
0.67
0.77
0.58
0.21
-0.20
-0.46
-0.51
-0.36
-0.08
0.22
0.48
0.65
0.76
0.81
0.82
0.76
0.58
0.32
0.02
-0.23
-0.41
-0.55
-0.72
-0.92
-1.10
-1.13
-0.91
-0.45
0.13
0.60
0.79
0.66
0.30
-0.11
-0.44
-0.62
-0.67
-0.63
-0.50
-0.27
0.06
0.45
0.77
0.92
0.88
0.68
0.48
0.37
0.40
0.52
0.61
0.54
0.30
-0.06
-0.40
-0.61
-0.62
-0.44
-0.17
0.09
0.28
0.34
0.31
0.23
0.19
0.21
0.27
0.30
0.25
0.11
-0.04
-0.11
-0.05
0.12
0.28
0.34
0.26
0.10
-0.03
-0.04
0.05
0.16
0.17
0.06
-0.13
-0.30
-0.35
-0.22
0.06
0.42
0.75
0.95
0.96
0.74
0.34
-0.15
-0.60
-0.89
-0.96
-0.79
-0.43
0.04
0.53
0.95
1.20
1.21
0.93
0.43
-0.16
-0.65
-0.87
-0.80
-0.54
-0.29
-0.24
-0.41
-0.71
-0.94
-0.96
-0.76
-0.49
-0.30
-0.30
-0.44
-0.58
-0.58
-0.42
-0.22
-0.11
-0.20
-0.41
-0.62
-0.67
-0.48
-0.11
0.31
0.64
0.83
0.88
0.85
0.78
0.68
0.54
0.37
0.19
0.02
-0.11
-0.23
-0.34
-0.45
-0.49
-0.42
-0.20
0.11
0.37
0.44
0.26
-0.08
-0.42
-0.56
-0.42
-0.08
0.31
0.59
0.70
0.72
0.78
0.95
1.20
1.39
1.38
1.10
0.61
0.03
-0.49
-0.88
-1.13
-1.27
-1.31
-1.25
-1.08
-0.76
-0.36
0.06
0.39
0.58
0.62
0.56
0.47
0.43
0.48
0.59
0.70
0.72
0.59
0.32
-0.01
-0.30
-0.42
-0.35
-0.11
0.18
0.41
0.49
0.42
0.26
0.09
-0.05
-0.19
-0.38
-0.64
-0.93
-1.13
-1.13
-0.88
-0.44
-0.00
0.26
0.24
-0.02
-0.32
-0.47
-0.36
-0.09
0.13
0.13
-0.16
-0.59
-0.92
-0.95
-0.62
-0.06
0.52
0.92
1.05
0.94
0.66
0.31
-0.08
-0.49
-0.84
-1.04
-1.00
-0.65
-0.05
0.64
1.23
1.53
1.47
1.09
0.54
0.04
-0.26
-0.30
-0.19
-0.06
-0.03
-0.14
-0.32
-0.49
-0.58
-0.56
-0.44
-0.28
-0.12
-0.01
0.02
-0.03
-0.10
-0.11
0.02
0.29
0.59
0.77
0.68
0.33
-0.17
-0.62
-0.85
-0.84
-0.61
-0.25
0.20
0.71
1.23
1.66
1.90
1.87
1.58
1.19
0.82
0.61
0.54
0.53
0.50
0.39
0.24
0.10
0.01
-0.07
-0.20
-0.42
-0.73
-1.04
-1.23
-1.23
-1.00
-0.62
-0.21
0.08
0.17
0.03
-0.26
-0.58
-0.80
-0.88
-0.83
-0.73
-0.65
-0.60
-0.56
-0.48
-0.33
-0.11
0.11
0.26
0.30
0.19
-0.00
-0.23
-0.43
-0.53
-0.53
-0.45
-0.36
-0.33
-0.39
-0.52
-0.62
-0.59
-0.42
-0.19
-0.03
-0.06
-0.30
-0.62
-0.82
-0.72
-0.29
0.33
0.91
1.24
1.21
0.88
0.39
-0.04
-0.28
-0.26
-0.02
0.33
0.68
0.92
0.97
0.81
0.48
0.08
-0.29
-0.51
-0.53
-0.36
-0.06
0.29
0.62
0.86
0.99
0.99
0.91
0.78
0.70
0.73
0.89
1.15
1.41
1.56
1.49
1.20
0.78
0.34
0.00
-0.13
-0.06
0.13
0.29
0.27
-0.03
-0.59
-1.25
-1.78
-1.97
-1.71
-1.08
-0.31
0.32
0.57
0.39
-0.14
-0.80
-1.34
-1.59
-1.51
-1.17
-0.74
-0.38
-0.19
-0.17
-0.24
-0.31
-0.33
-0.30
-0.28
-0.29
-0.37
-0.47
-0.54
-0.49
-0.31
-0.01
0.35
0.66
0.84
0.84
0.70
0.54
0.46
0.53
0.72
0.92
0.99
0.87
0.57
0.21
-0.10
-0.32
-0.46
-0.56
-0.62
-0.61
-0.51
-0.32
-0.12
0.00
-0.02
-0.17
-0.36
-0.49
-0.52
-0.48
-0.45
-0.49
-0.56
-0.58
-0.43
-0.13
0.23
0.52
0.64
0.56
0.37
0.19
0.11
0.15
0.29
0.48
0.64
0.74
0.72
0.59
0.36
0.08
-0.16
-0.31
-0.37
-0.36
-0.34
-0.37
-0.46
-0.59
-0.73
-0.83
-0.88
-0.83
-0.66
-0.35
0.06
0.47
0.80
0.95
0.94
0.80
0.64
0.52
0.43
0.34
0.22
0.07
-0.08
-0.13
-0.04
0.18
0.46
0.67
0.70
0.53
0.21
-0.09
-0.19
0.00
0.46
0.99
1.38
1.46
1.23
0.84
0.48
0.26
0.18
0.12
-0.04
-0.32
-0.63
-0.80
-0.72
-0.40
-0.01
0.25
0.20
-0.18
-0.77
-1.35
-1.74
-1.81
-1.61
-1.23
-0.85
-0.59
-0.51
-0.59
-0.75
-0.92
-1.06
-1.13
-1.09
-0.92
-0.62
-0.19
0.28
0.72
1.03
1.18
1.19
1.13
1.08
1.06
1.07
1.08
1.05
0.99
0.91
0.85
0.85
0.93
1.05
1.15
1.16
1.05
0.84
0.61
0.48
0.49
0.60
0.68
0.56
0.14
-0.53
-1.25
-1.79
-1.97
-1.78
-1.33
-0.81
-0.38
-0.14
-0.09
-0.21
-0.42
-0.68
-0.91
-1.06
-1.06
-0.86
-0.47
0.02
0.49
0.76
0.76
0.49
0.08
-0.32
-0.57
-0.61
-0.43
-0.14
0.22
0.55
0.82
0.97
0.96
0.76
0.38
-0.10
-0.56
-0.90
-1.06
-1.05
-0.93
-0.78
-0.65
-0.56
-0.48
-0.41
-0.36
-0.34
-0.34
-0.31
-0.16
0.13
0.54
0.92
1.13
1.12
0.92
0.67
0.51
0.47
0.47
0.39
0.15
-0.20
-0.48
-0.53
-0.30
0.11
0.53
0.77
0.80
0.69
0.57
0.55
0.62
0.69
0.68
0.57
0.41
0.24
0.09
-0.07
-0.29
-0.54
-0.76
-0.84
-0.75
-0.51
-0.26
-0.12
-0.15
-0.27
-0.36
-0.29
-0.06
0.23
0.45
0.48
0.32
0.04
-0.22
-0.36
-0.35
-0.20
0.03
0.29
0.53
0.72
0.83
0.84
0.73
0.54
0.29
0.01
-0.28
-0.55
-0.74
-0.80
-0.70
-0.46
-0.17
0.05
0.12
0.03
-0.20
-0.47
-0.71
-0.85
-0.86
-0.71
-0.39
0.08
0.59
0.99
1.12
0.89
0.38
-0.25
-0.78
-1.05
-1.02
-0.75
-0.39
-0.06
0.17
0.28
0.32
0.33
0.34
0.35
0.36
0.36
0.38
0.40
0.38
0.31
0.14
-0.11
-0.38
-0.53
-0.48
-0.20
0.22
0.63
0.89
0.99
1.02
1.12
1.32
1.56
1.68
1.54
1.10
0.46
-0.18
-0.65
-0.86
-0.86
-0.72
-0.52
-0.32
-0.12
0.04
0.15
0.18
0.10
-0.11
-0.41
-0.76
-1.06
-1.24
-1.29
-1.26
-1.25
-1.31
-1.46
-1.58
-1.53
-1.22
-0.67
-0.05
0.42
0.59
0.48
0.26
0.15
0.28
0.58
0.89
1.03
0.96
0.78
0.66
0.70
0.89
1.08
1.09
0.85
0.47
0.13
-0.00
0.11
0.36
0.55
0.50
0.17
-0.38
-1.01
-1.57
-1.98
-2.18
-2.19
-2.00
-1.63
-1.10
-0.49
0.08
0.49
0.68
0.69
0.64
0.64
0.78
1.02
1.27
1.44
1.47
1.36
1.15
0.87
0.53
0.15
-0.25
-0.60
-0.83
-0.89
-0.82
-0.70
-0.61
-0.61
-0.65
-0.69
-0.65
-0.52
-0.33
-0.15
-0.01
0.11
0.24
0.41
0.59
0.72
0.71
0.53
0.24
-0.05
-0.23
-0.23
-0.13
-0.05
-0.10
-0.33
-0.67
-0.97
-1.08
-0.92
-0.52
-0.01
0.50
0.92
1.25
1.47
1.57
1.48
1.14
0.58
-0.09
-0.65
-0.94
-0.89
-0.63
-0.36
-0.28
-0.42
-0.71
-0.99
-1.12
-1.09
-0.95
-0.82
-0.75
-0.73
-0.70
-0.59
-0.41
-0.19
0.01
0.14
0.22
0.26
0.30
0.32
0.26
0.09
-0.17
-0.41
-0.50
-0.36
-0.00
0.41
0.72
0.77
0.58
0.27
-0.00
-0.12
-0.04
0.16
0.41
0.61
0.75
0.82
0.83
0.79
0.68
0.50
0.26
0.01
-0.17
-0.22
-0.09
0.19
0.55
0.83
0.94
0.83
0.57
0.28
0.05
-0.05
-0.05
-0.01
0.04
0.09
0.17
0.30
0.42
0.48
0.41
0.23
0.02
-0.12
-0.14
-0.10
-0.09
-0.21
-0.46
-0.76
-0.97
-0.99
-0.82
-0.54
-0.25
-0.05
0.04
0.04
-0.02
-0.09
-0.16
-0.20
-0.23
-0.23
-0.23
-0.26
-0.29
-0.31
-0.26
-0.13
0.06
0.28
0.46
0.55
0.55
0.45
0.27
0.04
-0.18
-0.34
-0.39
-0.32
-0.17
-0.01
0.10
0.13
0.09
0.04
0.03
0.07
0.12
0.17
0.21
0.25
0.28
0.28
0.21
0.07
-0.11
-0.22
-0.18
0.07
0.49
0.98
1.37
1.52
1.36
1.01
0.64
0.49
0.70
1.25
1.93
2.43
2.50
2.06
1.22
0.25
-0.55
-1.04
-1.19
-1.13
-1.00
-0.91
-0.86
-0.83
-0.75
-0.63
-0.51
-0.45
-0.47
-0.54
-0.57
-0.45
-0.14
0.31
0.74
0.94
0.77
0.24
-0.47
-1.12
-1.48
-1.47
-1.15
-0.70
-0.28
0.03
0.26
0.47
0.69
0.89
0.93
0.74
0.26
-0.39
-1.02
-1.42
-1.47
-1.20
-0.76
-0.35
-0.14
-0.14
-0.26
-0.35
-0.33
-0.21
-0.06
0.03
0.03
0.00
-0.00
0.06
0.16
0.22
0.19
0.07
-0.06
-0.16
-0.19
-0.18
-0.20
-0.26
-0.37
-0.48
-0.55
-0.55
-0.48
-0.30
-0.01
0.41
0.89
1.33
1.59
1.57
1.26
0.76
0.22
-0.19
-0.41
-0.45
-0.37
-0.27
-0.20
-0.17
-0.17
-0.17
-0.17
-0.18
-0.23
-0.32
-0.46
-0.59
-0.66
-0.63
-0.51
-0.35
-0.23
-0.17
-0.18
-0.21
-0.19
-0.11
0.03
0.19
0.32
0.39
0.38
0.29
0.12
-0.08
-0.25
-0.32
-0.26
-0.12
0.01
0.02
-0.13
-0.39
-0.67
-0.84
-0.85
-0.69
-0.37
0.06
0.58
1.13
1.64
1.98
2.09
1.92
1.52
0.98
0.38
-0.18
-0.63
-0.93
-1.06
-1.05
-0.95
-0.80
-0.64
-0.49
-0.34
-0.16
0.03
0.23
0.43
0.63
0.81
0.97
1.09
1.12
1.04
0.82
0.51
0.16
-0.14
-0.34
-0.40
-0.32
-0.18
-0.07
-0.10
-0.29
-0.60
-0.92
-1.10
-1.08
-0.87
-0.56
-0.28
-0.10
-0.04
-0.04
-0.01
0.07
0.18
0.22
0.14
-0.08
-0.34
-0.54
-0.59
-0.47
-0.23
0.03
0.24
0.39
0.48
0.56
0.61
0.58
0.44
0.17
-0.20
-0.61
-1.02
-1.37
-1.63
-1.74
-1.68
-1.43
-1.03
-0.55
-0.10
0.26
0.49
0.62
0.70
0.73
0.72
0.62
0.45
0.24
0.07
0.00
0.06
0.19
0.32
0.36
0.30
0.15
-0.01
-0.14
-0.23
-0.28
-0.34
-0.41
-0.43
-0.36
-0.19
0.05
0.27
0.40
0.43
0.36
0.26
0.15
0.08
0.05
0.04
0.03
0.03
-0.00
-0.06
-0.13
-0.21
-0.25
-0.23
-0.13
0.07
0.35
0.66
0.91
1.02
0.89
0.52
0.02
-0.45
-0.67
-0.56
-0.13
0.44
0.94
1.21
1.19
0.98
0.71
0.53
0.47
0.46
0.41
0.27
0.08
-0.08
-0.12
-0.02
0.11
0.15
-0.01
-0.34
-0.69
-0.87
-0.78
-0.46
-0.08
0.19
0.25
0.09
-0.14
-0.32
-0.37
-0.27
-0.09
0.07
0.18
0.23
0.25
0.27
0.28
0.27
0.22
0.13
0.00
-0.16
-0.31
-0.43
-0.51
-0.53
-0.51
-0.48
-0.44
-0.40
-0.37
-0.34
-0.29
-0.21
-0.11
0.00
0.11
0.21
0.30
0.39
0.49
0.56
0.57
0.44
0.14
-0.25
-0.61
-0.78
-0.67
-0.31
0.15
0.53
0.69
0.59
0.31
-0.05
-0.37
-0.58
-0.67
-0.67
-0.60
-0.49
-0.33
-0.12
0.15
0.47
0.80
1.09
1.27
1.31
1.19
0.94
0.60
0.25
-0.05
-0.25
-0.33
-0.30
-0.20
-0.09
0.02
0.12
0.20
0.23
0.18
0.03
-0.20
-0.44
-0.61
-0.67
-0.60
-0.46
-0.29
-0.14
0.01
0.18
0.35
0.46
0.45
0.27
-0.00
-0.26
-0.36
-0.26
-0.00
0.29
0.49
0.54
0.47
0.32
0.17
0.07
0.02
0.01
-0.00
-0.04
-0.14
-0.32
-0.53
-0.68
-0.71
-0.58
-0.34
-0.11
-0.00
-0.06
-0.23
-0.40
-0.47
-0.43
-0.36
-0.35
-0.43
-0.59
-0.72
-0.77
-0.71
-0.62
-0.58
-0.60
-0.60
-0.44
-0.04
0.52
1.05
1.28
1.10
0.58
0.02
-0.30
-0.20
0.23
0.73
1.03
1.02
0.79
0.54
0.42
0.45
0.49
0.38
0.07
-0.37
-0.77
-0.98
-0.94
-0.71
-0.38
-0.08
0.11
0.17
0.10
-0.01
-0.07
-0.03
0.11
0.26
0.37
0.38
0.30
0.22
0.22
0.30
0.40
0.44
0.34
0.07
-0.34
-0.81
-1.23
-1.47
-1.42
-1.03
-0.35
0.47
1.21
1.69
1.81
1.56
1.06
0.46
-0.09
-0.45
-0.58
-0.49
-0.28
-0.06
0.10
0.16
0.15
0.11
0.04
-0.09
-0.34
-0.71
-1.10
-1.37
-1.37
-1.06
-0.54
-0.01
0.35
0.43
0.26
0.00
-0.22
-0.30
-0.27
-0.19
-0.14
-0.14
-0.15
-0.12
-0.02
0.17
0.43
0.77
1.16
1.54
1.84
1.98
1.94
1.72
1.39
1.03
0.73
0.49
0.31
0.09
-0.23
-0.68
-1.18
-1.59
-1.74
-1.52
-0.96
-0.24
0.38
0.66
0.47
-0.09
-0.79
-1.31
-1.42
-1.07
-0.41
0.29
0.76
0.85
0.60
0.23
-0.02
0.01
0.32
0.74
1.00
0.89
0.37
-0.40
-1.14
-1.57
-1.54
-1.11
-0.48
0.10
0.46
0.59
0.56
0.49
0.47
0.46
0.43
0.31
0.15
0.01
-0.00
0.12
0.33
0.50
0.51
0.32
0.01
-0.26
-0.38
-0.33
-0.22
-0.18
-0.29
-0.46
-0.56
-0.45
-0.12
0.28
0.57
0.63
0.49
0.29
0.22
0.34
0.56
0.72
0.65
0.28
-0.28
-0.89
-1.37
-1.63
-1.65
-1.48
-1.17
-0.77
-0.34
0.03
0.28
0.36
0.32
0.24
0.22
0.28
0.36
0.33
0.13
-0.22
-0.62
-0.91
-0.98
-0.79
-0.41
0.04
0.49
0.87
1.18
1.42
1.57
1.56
1.38
1.01
0.54
0.10
-0.18
-0.23
-0.08
0.15
0.33
0.39
0.34
0.21
0.03
-0.21
-0.52
-0.87
-1.13
-1.18
-0.95
-0.50
-0.04
0.26
0.26
0.02
-0.32
-0.61
-0.76
-0.80
-0.75
-0.63
-0.37
0.06
0.65
1.25
1.67
1.76
1.50
1.04
0.56
0.23
0.09
0.07
0.08
0.05
0.00
-0.04
-0.05
-0.03
-0.03
-0.08
-0.15
-0.19
-0.12
0.08
0.34
0.58
0.68
0.59
0.31
-0.07
-0.41
-0.59
-0.55
-0.31
0.03
0.32
0.45
0.36
0.06
-0.36
-0.78
-1.09
-1.20
-1.09
-0.83
-0.52
-0.28
-0.20
-0.32
-0.58
-0.90
-1.18
-1.38
-1.46
-1.42
-1.27
-1.02
-0.71
-0.37
-0.00
0.38
0.75
1.04
1.16
1.04
0.67
0.17
-0.27
-0.48
-0.37
0.02
0.53
0.97
1.20
1.19
1.01
0.76
0.54
0.40
0.34
0.34
0.39
0.48
0.59
0.69
0.74
0.68
0.49
0.18
-0.18
-0.48
-0.63
-0.57
-0.35
-0.06
0.16
0.19
0.01
-0.36
-0.79
-1.12
-1.24
-1.07
-0.66
-0.15
0.31
0.59
0.67
0.64
0.64
0.75
0.93
1.03
0.89
0.45
-0.17
-0.76
-1.08
-1.07
-0.83
-0.57
-0.48
-0.60
-0.84
-1.02
-1.00
-0.75
-0.34
0.10
0.46
0.66
0.71
0.65
0.54
0.40
0.28
0.17
0.08
0.00
-0.06
-0.10
-0.12
-0.08
0.04
0.23
0.47
0.68
0.79
0.73
0.51
0.18
-0.15
-0.36
-0.39
-0.26
-0.04
0.17
0.28
0.24
0.02
-0.33
-0.73
-1.04
-1.16
-1.03
-0.67
-0.17
0.34
0.73
0.93
0.90
0.67
0.31
-0.08
-0.44
-0.70
-0.87
-0.95
-0.94
-0.84
-0.61
-0.28
0.12
0.48
0.67
0.62
0.33
-0.06
-0.36
-0.42
-0.18
0.29
0.87
1.41
1.79
1.97
1.96
1.80
1.51
1.11
0.63
0.09
-0.41
-0.77
-0.90
-0.79
-0.48
-0.11
0.18
0.27
0.12
-0.20
-0.55
-0.80
-0.87
-0.75
-0.52
-0.30
-0.17
-0.17
-0.31
-0.51
-0.67
-0.71
-0.59
-0.30
0.09
0.47
0.77
0.92
0.90
0.75
0.54
0.32
0.12
-0.04
-0.16
-0.23
-0.27
-0.27
-0.26
-0.28
-0.33
-0.39
-0.44
-0.47
-0.45
-0.43
-0.43
-0.48
-0.57
-0.67
-0.73
-0.73
-0.68
-0.62
-0.59
-0.65
-0.81
-1.04
-1.25
-1.36
-1.27
-0.96
-0.47
0.10
0.61
0.96
1.11
1.07
0.91
0.69
0.52
0.45
0.51
0.71
0.99
1.24
1.37
1.30
1.04
0.71
0.45
0.37
0.48
0.68
0.84
0.85
0.74
0.57
0.44
0.37
0.30
0.18
0.01
-0.15
-0.20
-0.10
0.07
0.17
0.11
-0.10
-0.32
-0.41
-0.29
-0.02
0.25
0.39
0.34
0.15
-0.10
-0.32
-0.50
-0.64
-0.72
-0.73
-0.63
-0.44
-0.23
-0.09
-0.10
-0.27
-0.52
-0.75
-0.84
-0.79
-0.65
-0.54
-0.57
-0.74
-0.97
-1.11
-1.06
-0.82
-0.45
-0.06
0.28
0.54
0.75
0.90
0.98
0.93
0.78
0.56
0.37
0.28
0.31
0.45
0.61
0.71
0.64
0.36
-0.15
-0.81
-1.48
-1.97
-2.07
-1.74
-1.04
-0.18
0.61
1.15
1.38
1.36
1.19
0.98
0.79
0.65
0.53
0.41
0.28
0.13
-0.01
-0.10
-0.08
0.03
0.20
0.36
0.42
0.36
0.20
0.06
0.01
0.10
0.28
0.44
0.52
0.49
0.44
0.46
0.64
0.94
1.32
1.64
1.80
1.72
1.38
0.79
0.06
-0.67
-1.24
-1.53
-1.50
-1.22
-0.82
-0.45
-0.22
-0.13
-0.13
-0.13
-0.07
0.06
0.20
0.29
0.24
0.05
-0.25
-0.60
-0.94
-1.23
-1.43
-1.56
-1.59
-1.53
-1.36
-1.12
-0.85
-0.60
-0.38
-0.22
-0.07
0.08
0.24
0.39
0.47
0.48
0.44
0.40
0.41
0.47
0.59
0.72
0.81
0.81
0.68
0.39
-0.06
-0.60
-1.14
-1.57
-1.79
-1.79
-1.59
-1.23
-0.75
-0.19
0.41
0.96
1.34
1.49
1.42
1.26
1.17
1.22
1.35
1.43
1.29
0.92
0.44
0.06
-0.09
0.02
0.23
0.31
0.10
-0.41
-1.09
-1.68
-1.99
-1.87
-1.39
-0.68
0.02
0.51
0.68
0.52
0.14
-0.32
-0.73
-0.97
-0.98
-0.75
-0.28
0.35
1.04
1.62
1.95
1.93
1.58
1.01
0.41
-0.07
-0.37
-0.50
-0.52
-0.50
-0.47
-0.45
-0.45
-0.50
-0.59
-0.67
-0.69
-0.56
-0.27
0.12
0.49
0.69
0.62
0.31
-0.17
-0.64
-0.97
-1.05
-0.88
-0.51
-0.06
0.37
0.71
0.91
0.95
0.84
0.62
0.37
0.20
0.17
0.28
0.43
0.47
0.30
-0.09
-0.58
-0.99
-1.17
-1.09
-0.79
-0.36
0.10
0.56
0.96
1.25
1.37
1.26
0.91
0.38
-0.19
-0.65
-0.91
-0.93
-0.76
-0.47
-0.19
0.03
0.14
0.15
0.06
-0.10
-0.27
-0.38
-0.38
-0.28
-0.11
0.08
0.20
0.25
0.27
0.32
0.44
0.60
0.72
0.68
0.48
0.15
-0.22
-0.55
-0.80
-1.00
-1.14
-1.21
-1.15
-0.90
-0.50
-0.04
0.33
0.49
0.39
0.16
-0.04
-0.04
0.19
0.57
0.89
0.98
0.81
0.47
0.18
0.10
0.29
0.65
1.02
1.23
1.26
1.15
1.01
0.90
0.77
0.56
0.23
-0.16
-0.50
-0.65
-0.54
-0.23
0.15
0.46
0.59
0.52
0.27
-0.09
-0.53
-0.99
-1.45
-1.84
-2.12
-2.25
-2.27
-2.20
-2.07
-1.89
-1.63
-1.25
-0.77
-0.28
0.12
0.32
0.31
0.15
-0.03
-0.15
-0.14
0.02
0.31
0.71
1.19
1.71
2.18
2.51
2.61
2.45
2.05
1.46
0.74
-0.03
-0.73
-1.25
-1.51
-1.49
-1.26
-0.92
-0.57
-0.28
-0.06
0.13
0.32
0.50
0.64
0.68
0.58
0.33
-0.03
-0.41
-0.69
-0.80
-0.71
-0.48
-0.25
-0.12
-0.18
-0.38
-0.59
-0.68
-0.55
-0.24
0.12
0.38
0.43
0.26
-0.02
-0.30
-0.48
-0.52
-0.44
-0.29
-0.10
0.11
0.33
0.56
0.77
0.93
1.05
1.10
1.11
1.06
0.95
0.77
0.54
0.32
0.15
0.11
0.19
0.33
0.44
0.45
0.31
0.06
-0.26
-0.54
-0.73
-0.77
-0.64
-0.40
-0.15
0.01
-0.02
-0.25
-0.56
-0.81
-0.86
-0.66
-0.26
0.19
0.57
0.77
0.75
0.52
0.14
-0.29
-0.67
-0.87
-0.86
-0.67
-0.43
-0.25
-0.19
-0.26
-0.39
-0.53
-0.64
-0.74
-0.78
-0.74
-0.55
-0.20
0.27
0.77
1.17
1.39
1.37
1.13
0.73
0.26
-0.18
-0.52
-0.69
-0.68
-0.49
-0.18
0.17
0.47
0.64
0.64
0.50
0.29
0.11
0.04
0.13
0.36
0.63
0.78
0.70
0.37
-0.09
-0.47
-0.57
-0.35
0.09
0.50
0.70
0.64
0.42
0.23
0.18
0.25
0.32
0.25
0.04
-0.18
-0.23
-0.00
0.47
0.99
1.35
1.38
1.08
0.57
-0.01
-0.51
-0.88
-1.14
-1.35
-1.52
-1.65
-1.72
-1.67
-1.51
-1.25
-0.94
-0.65
-0.43
-0.32
-0.32
-0.38
-0.48
-0.56
-0.63
-0.70
-0.77
-0.85
-0.87
-0.78
-0.52
-0.14
0.30
0.69
0.94
1.06
1.07
1.08
1.13
1.22
1.32
1.30
1.13
0.81
0.44
0.15
0.04
0.14
0.37
0.61
0.77
0.81
0.73
0.59
0.41
0.19
-0.03
-0.21
-0.34
-0.38
-0.34
-0.27
-0.21
-0.15
-0.12
-0.10
-0.10
-0.15
-0.26
-0.37
-0.43
-0.38
-0.23
-0.02
0.20
0.36
0.47
0.53
0.57
0.57
0.50
0.31
0.02
-0.31
-0.62
-0.85
-1.00
-1.09
-1.14
-1.14
-1.06
-0.83
-0.46
-0.01
0.43
0.74
0.84
0.73
0.45
0.09
-0.24
-0.45
-0.46
-0.25
0.12
0.54
0.89
1.06
1.02
0.82
0.56
0.37
0.31
0.37
0.47
0.51
0.38
0.07
-0.40
-0.94
-1.46
-1.88
-2.15
-2.25
-2.17
-1.91
-1.50
-0.97
-0.40
0.11
0.47
0.62
0.59
0.47
0.41
0.50
0.77
1.15
1.54
1.82
1.94
1.89
1.71
1.48
1.24
1.04
0.87
0.71
0.51
0.21
-0.18
-0.59
-0.92
-1.05
-0.96
-0.71
-0.44
-0.32
-0.43
-0.74
-1.17
-1.58
-1.85
-1.88
-1.64
-1.17
-0.53
0.13
0.66
0.93
0.87
0.53
0.07
-0.33
-0.51
-0.39
-0.05
0.40
0.73
0.81
0.60
0.18
-0.28
-0.59
-0.63
-0.39
0.05
0.53
0.94
1.19
1.26
1.16
0.89
0.50
0.06
-0.32
-0.52
-0.48
-0.25
0.01
0.13
0.04
-0.23
-0.54
-0.75
-0.78
-0.63
-0.35
-0.03
0.26
0.45
0.49
0.36
0.13
-0.08
-0.12
0.08
0.47
0.89
1.17
1.20
0.97
0.61
0.25
-0.01
-0.12
-0.07
0.06
0.25
0.45
0.62
0.73
0.74
0.62
0.38
0.07
-0.25
-0.48
-0.55
-0.45
-0.27
-0.15
-0.19
-0.39
-0.67
-0.84
-0.81
-0.58
-0.28
-0.03
0.08
0.07
0.04
0.07
0.21
0.40
0.58
0.69
0.72
0.67
0.53
0.31
0.01
-0.30
-0.54
-0.64
-0.59
-0.45
-0.28
-0.14
-0.02
0.10
0.23
0.32
0.28
0.09
-0.22
-0.51
-0.63
-0.51
-0.23
0.06
0.18
0.05
-0.28
-0.71
-1.08
-1.33
-1.42
-1.41
-1.34
-1.24
-1.11
-0.96
-0.78
-0.63
-0.52
-0.50
-0.56
-0.63
-0.64
-0.52
-0.24
0.14
0.54
0.83
0.95
0.91
0.77
0.61
0.51
0.47
0.50
0.60
0.79
1.07
1.40
1.68
1.79
1.61
1.13
0.46
-0.18
-0.59
-0.65
-0.40
0.01
0.39
0.64
0.74
0.75
0.71
0.63
0.46
0.16
-0.24
-0.62
-0.88
-0.94
-0.85
-0.68
-0.51
-0.39
-0.31
-0.28
-0.30
-0.38
-0.49
-0.55
-0.49
-0.27
0.08
0.46
0.77
0.96
1.03
1.02
0.97
0.87
0.70
0.45
0.15
-0.14
-0.37
-0.53
-0.64
-0.76
-0.93
-1.13
-1.31
-1.36
-1.19
-0.78
-0.18
0.43
0.89
1.05
0.90
0.55
0.20
-0.00
0.02
0.19
0.36
0.42
0.31
0.09
-0.13
-0.22
-0.17
-0.02
0.13
0.20
0.16
0.06
-0.06
-0.16
-0.23
-0.31
-0.42
-0.57
-0.66
-0.62
-0.40
-0.03
0.34
0.52
0.41
0.02
-0.49
-0.94
-1.14
-1.07
-0.79
-0.44
-0.16
0.02
0.09
0.13
0.19
0.32
0.51
0.75
1.01
1.23
1.39
1.46
1.44
1.30
1.03
0.61
0.07
-0.49
-0.96
-1.17
-1.10
-0.78
-0.40
-0.15
-0.16
-0.41
-0.79
-1.13
-1.28
-1.17
-0.80
-0.28
0.30
0.82
1.17
1.32
1.26
1.05
0.75
0.43
0.16
-0.02
-0.11
-0.10
-0.03
0.01
-0.05
-0.26
-0.58
-0.91
-1.10
-1.05
-0.73
-0.24
0.24
0.53
0.53
0.29
-0.02
-0.20
-0.12
0.23
0.74
1.22
1.56
1.73
1.82
1.91
2.01
2.05
1.89
1.47
0.84
0.18
-0.33
-0.56
-0.50
-0.28
-0.08
-0.04
-0.24
-0.62
-1.08
-1.45
-1.62
-1.56
-1.33
-1.06
-0.85
-0.77
-0.82
-0.90
-0.93
-0.82
-0.60
-0.35
-0.18
-0.17
-0.33
-0.56
-0.70
-0.61
-0.23
0.33
0.90
1.27
1.34
1.14
0.78
0.40
0.08
-0.16
-0.33
-0.44
-0.45
-0.37
-0.18
0.07
0.31
0.47
0.50
0.40
0.20
-0.05
-0.25
-0.31
-0.17
0.13
0.48
0.70
0.67
0.38
-0.05
-0.45
-0.63
-0.56
-0.29
0.01
0.14
0.03
-0.29
-0.66
-0.88
-0.81
-0.50
-0.13
0.09
-0.01
-0.36
-0.80
-1.12
-1.18
-1.00
-0.68
-0.34
-0.06
0.20
0.40
0.52
0.44
0.15
-0.28
-0.66
-0.79
-0.56
-0.08
0.43
0.73
0.70
0.45
0.16
0.07
0.22
0.52
0.79
0.86
0.73
0.51
0.32
0.24
0.23
0.20
0.09
-0.09
-0.26
-0.34
-0.30
-0.20
-0.09
-0.03
0.03
0.14
0.29
0.42
0.42
0.24
-0.08
-0.35
-0.41
-0.14
0.38
0.95
1.31
1.29
0.92
0.40
-0.00
-0.08
0.18
0.66
1.16
1.47
1.52
1.33
0.98
0.57
0.18
-0.14
-0.39
-0.55
-0.64
-0.67
-0.66
-0.63
-0.63
-0.66
-0.76
-0.92
-1.07
-1.18
-1.17
-1.03
-0.79
-0.55
-0.39
-0.30
-0.22
-0.09
0.11
0.29
0.32
0.07
-0.43
-1.04
-1.53
-1.70
-1.45
-0.88
-0.16
0.53
1.02
1.28
1.33
1.23
1.02
0.74
0.40
-0.01
-0.48
-0.96
-1.37
-1.65
-1.75
-1.71
-1.55
-1.32
-1.08
-0.84
-0.59
-0.33
-0.07
0.19
0.42
0.60
0.73
0.83
0.93
1.05
1.22
1.44
1.67
1.82
1.82
1.65
1.35
1.01
0.73
0.55
0.43
0.31
0.10
-0.16
-0.42
-0.60
-0.63
-0.53
-0.39
-0.28
-0.22
-0.20
-0.15
0.00
0.27
0.64
1.01
1.29
1.38
1.27
0.99
0.65
0.33
0.06
-0.19
-0.47
-0.80
-1.13
-1.34
-1.35
-1.14
-0.81
-0.51
-0.35
-0.34
-0.39
-0.41
-0.32
-0.15
0.04
0.21
0.35
0.50
0.68
0.90
1.08
1.15
1.07
0.87
0.63
0.41
0.24
0.11
0.00
-0.09
-0.17
-0.23
-0.27
-0.31
-0.37
-0.44
-0.52
-0.58
-0.57
-0.45
-0.23
0.07
0.36
0.56
0.53
0.25
-0.29
-0.93
-1.50
-1.87
-1.93
-1.70
-1.24
-0.68
-0.10
0.42
0.85
1.12
1.23
1.17
0.96
0.66
0.33
0.03
-0.19
-0.35
-0.44
-0.48
-0.47
-0.42
-0.38
-0.36
-0.34
-0.28
-0.11
0.21
0.62
1.03
1.28
1.27
1.03
0.65
0.29
0.03
-0.08
-0.09
-0.06
-0.03
-0.01
-0.02
-0.09
-0.25
-0.49
-0.75
-0.93
-0.91
-0.69
-0.32
0.04
0.29
0.34
0.23
0.03
-0.17
-0.31
-0.42
-0.51
-0.59
-0.65
-0.63
-0.50
-0.28
-0.04
0.14
0.19
0.08
-0.13
-0.38
-0.61
-0.78
-0.88
-0.87
-0.72
-0.43
-0.01
0.42
0.74
0.85
0.77
0.59
0.45
0.43
0.48
0.52
0.42
0.13
-0.30
-0.73
-0.96
-0.84
-0.33
0.48
1.37
2.06
2.35
2.18
1.69
1.11
0.66
0.43
0.35
0.22
-0.13
-0.69
-1.31
-1.72
-1.72
-1.30
-0.65
-0.05
0.28
0.29
0.11
-0.03
0.01
0.24
0.56
0.80
0.85
0.70
0.42
0.12
-0.13
-0.26
-0.25
-0.11
0.12
0.36
0.53
0.60
0.60
0.60
0.65
0.72
0.70
0.52
0.16
-0.25
-0.58
-0.67
-0.52
-0.21
0.14
0.37
0.43
0.29
-0.03
-0.51
-1.07
-1.55
-1.80
-1.66
-1.14
-0.40
0.31
0.75
0.80
0.51
0.06
-0.31
-0.43
-0.27
0.10
0.52
0.80
0.82
0.57
0.12
-0.33
-0.61
-0.63
-0.42
-0.14
0.02
-0.01
-0.23
-0.47
-0.60
-0.52
-0.26
0.05
0.31
0.43
0.44
0.41
0.40
0.42
0.43
0.35
0.14
-0.15
-0.44
-0.63
-0.69
-0.63
-0.56
-0.57
-0.68
-0.80
-0.81
-0.62
-0.22
0.28
0.72
0.95
0.95
0.77
0.54
0.36
0.23
0.12
-0.06
-0.31
-0.58
-0.80
-0.88
-0.79
-0.56
-0.21
0.17
0.50
0.71
0.69
0.45
0.05
-0.39
-0.69
-0.79
-0.70
-0.57
-0.51
-0.59
-0.71
-0.75
-0.63
-0.37
-0.11
0.03
0.04
-0.01
0.01
0.21
0.54
0.88
1.10
1.11
0.98
0.77
0.56
0.36
0.14
-0.14
-0.44
-0.70
-0.82
-0.74
-0.47
-0.06
0.38
0.73
0.94
0.97
0.86
0.66
0.40
0.12
-0.16
-0.38
-0.50
-0.48
-0.33
-0.12
0.02
0.02
-0.13
-0.33
-0.42
-0.29
0.08
0.58
1.02
1.23
1.15
0.86
0.54
0.38
0.41
0.56
0.65
0.55
0.25
-0.12
-0.37
-0.40
-0.23
-0.03
0.01
-0.20
-0.58
-0.98
-1.21
-1.21
-1.03
-0.81
-0.67
-0.64
-0.66
-0.62
-0.45
-0.16
0.17
0.44
0.61
0.69
0.78
0.95
1.21
1.47
1.61
1.54
1.22
0.74
0.20
-0.28
-0.62
-0.79
-0.82
-0.75
-0.60
-0.42
-0.24
-0.12
-0.12
-0.23
-0.40
-0.50
-0.44
-0.19
0.18
0.51
0.64
0.49
0.14
-0.26
-0.53
-0.60
-0.52
-0.37
-0.25
-0.13
-0.02
0.10
0.19
0.22
0.18
0.15
0.23
0.46
0.83
1.18
1.35
1.22
0.78
0.16
-0.47
-0.95
-1.22
-1.24
-1.09
-0.83
-0.53
-0.24
0.01
0.20
0.31
0.31
0.21
0.04
-0.15
-0.29
-0.38
-0.46
-0.58
-0.73
-0.84
-0.82
-0.59
-0.18
0.27
0.62
0.75
0.63
0.37
0.12
-0.02
-0.06
-0.08
-0.17
-0.33
-0.52
-0.63
-0.62
-0.48
-0.30
-0.17
-0.15
-0.21
-0.31
-0.36
-0.32
-0.18
0.04
0.27
0.46
0.55
0.52
0.38
0.20
0.05
0.01
0.06
0.15
0.23
0.27
0.29
0.33
0.40
0.45
0.40
0.19
-0.17
-0.61
-1.02
-1.27
-1.26
-0.97
-0.42
0.30
1.02
1.54
1.74
1.57
1.12
0.57
0.10
-0.20
-0.33
-0.35
-0.32
-0.21
0.03
0.44
0.96
1.43
1.67
1.60
1.26
0.80
0.43
0.25
0.26
0.36
0.45
0.47
0.43
0.33
0.21
0.05
-0.14
-0.34
-0.53
-0.67
-0.73
-0.69
-0.54
-0.33
-0.08
0.10
0.16
0.06
-0.15
-0.39
-0.60
-0.73
-0.77
-0.74
-0.64
-0.45
-0.15
0.21
0.53
0.65
0.44
-0.13
-0.93
-1.72
-2.25
-2.34
-1.98
-1.34
-0.65
-0.13
0.14
0.19
0.09
-0.07
-0.30
-0.58
-0.86
-1.02
-0.91
-0.46
0.21
0.85
1.19
1.08
0.58
-0.06
-0.59
-0.85
-0.83
-0.64
-0.38
-0.13
0.13
0.39
0.65
0.85
0.94
0.91
0.80
0.63
0.48
0.38
0.36
0.43
0.58
0.74
0.85
0.86
0.76
0.59
0.46
0.38
0.35
0.31
0.20
0.02
-0.15
-0.23
-0.17
-0.01
0.16
0.25
0.22
0.11
-0.00
-0.03
0.06
0.22
0.32
0.27
0.05
-0.28
-0.59
-0.76
-0.73
-0.52
-0.24
0.04
0.23
0.33
0.35
0.34
0.27
0.13
-0.09
-0.39
-0.67
-0.81
-0.73
-0.43
-0.02
0.35
0.54
0.51
0.36
0.20
0.14
0.21
0.33
0.44
0.48
0.48
0.49
0.53
0.59
0.61
0.53
0.35
0.13
-0.07
-0.22
-0.31
-0.40
-0.51
-0.63
-0.71
-0.71
-0.61
-0.45
-0.32
-0.31
-0.47
-0.74
-1.01
-1.14
-1.06
-0.76
-0.34
0.05
0.31
0.39
0.35
0.23
0.11
-0.02
-0.17
-0.31
-0.38
-0.29
-0.03
0.35
0.66
0.73
0.50
0.07
-0.36
-0.58
-0.51
-0.24
0.08
0.25
0.24
0.09
-0.09
-0.24
-0.36
-0.47
-0.56
-0.58
-0.49
-0.25
0.05
0.31
0.40
0.33
0.21
0.16
0.24
0.41
0.52
0.45
0.20
-0.12
-0.33
-0.28
0.05
0.57
1.12
1.56
1.77
1.74
1.53
1.22
0.92
0.70
0.57
0.46
0.31
0.06
-0.28
-0.65
-0.96
-1.15
-1.19
-1.10
-0.91
-0.68
-0.44
-0.22
-0.06
0.06
0.16
0.24
0.30
0.29
0.20
0.00
-0.24
-0.44
-0.52
-0.49
-0.41
-0.39
-0.51
-0.77
-1.07
-1.28
-1.34
-1.25
-1.08
-0.91
-0.72
-0.50
-0.21
0.12
0.41
0.61
0.71
0.78
0.91
1.10
1.25
1.23
0.93
0.44
-0.05
-0.36
-0.40
-0.22
0.01
0.17
0.25
0.31
0.39
0.45
0.39
0.13
-0.33
-0.82
-1.16
-1.24
-1.08
-0.83
-0.65
-0.59
-0.61
-0.58
-0.45
-0.21
0.02
0.15
0.14
0.03
-0.06
-0.04
0.12
0.37
0.65
0.93
1.18
1.40
1.57
1.68
1.72
1.69
1.61
1.44
1.11
0.59
-0.10
-0.82
-1.36
-1.52
-1.23
-0.58
0.21
0.89
1.33
1.48
1.43
1.26
1.01
0.71
0.35
-0.03
-0.36
-0.58
-0.66
-0.60
-0.48
-0.36
-0.26
-0.19
-0.10
-0.00
0.11
0.18
0.17
0.06
-0.14
-0.37
-0.58
-0.74
-0.88
-1.04
-1.26
-1.51
-1.71
-1.72
-1.48
-1.01
-0.47
-0.03
0.17
0.13
-0.02
-0.12
-0.05
0.16
0.42
0.64
0.77
0.84
0.91
0.96
0.96
0.82
0.52
0.17
-0.12
-0.26
-0.24
-0.15
-0.11
-0.17
-0.29
-0.39
-0.38
-0.24
-0.03
0.16
0.26
0.23
0.14
0.05
0.02
0.05
0.09
0.07
-0.06
-0.27
-0.48
-0.55
-0.41
-0.06
0.35
0.66
0.71
0.47
0.02
-0.45
-0.76
-0.80
-0.57
-0.16
0.26
0.54
0.63
0.55
0.41
0.31
0.28
0.29
0.27
0.18
0.08
0.05
0.17
0.45
0.75
0.92
0.88
0.62
0.29
0.03
-0.09
-0.10
-0.10
-0.18
-0.34
-0.54
-0.73
-0.88
-1.00
-1.11
-1.19
-1.17
-1.05
-0.87
-0.71
-0.66
-0.69
-0.71
-0.56
-0.21
0.29
0.79
1.11
1.18
1.00
0.68
0.35
0.15
0.14
0.33
0.65
1.00
1.26
1.39
1.39
1.35
1.33
1.30
1.17
0.82
0.27
-0.39
-0.94
-1.25
-1.30
-1.22
-1.18
-1.27
-1.42
-1.49
-1.34
-0.95
-0.40
0.12
0.49
0.62
0.55
0.34
0.11
-0.08
-0.18
-0.19
-0.16
-0.10
-0.03
0.07
0.19
0.31
0.34
0.21
-0.12
-0.58
-1.01
-1.22
-1.12
-0.76
-0.33
-0.04
-0.05
-0.35
-0.84
-1.33
-1.67
-1.79
-1.71
-1.45
-1.09
-0.65
-0.15
0.39
0.91
1.34
1.63
1.74
1.67
1.47
1.21
0.98
0.85
0.88
1.05
1.29
1.51
1.60
1.53
1.35
1.12
0.91
0.76
0.65
0.50
0.31
0.10
-0.06
-0.12
-0.05
0.07
0.18
0.20
0.14
0.01
-0.16
-0.39
-0.66
-0.97
-1.22
-1.36
-1.34
-1.17
-0.95
-0.78
-0.72
-0.74
-0.77
-0.78
-0.75
-0.74
-0.79
-0.88
-0.96
-0.95
-0.82
-0.57
-0.24
0.13
0.49
0.81
1.01
1.03
0.82
0.43
-0.05
-0.49
-0.77
-0.86
-0.76
-0.55
-0.27
0.05
0.37
0.65
0.83
0.88
0.78
0.58
0.38
0.26
0.26
0.34
0.42
0.39
0.22
-0.05
-0.32
-0.44
-0.34
-0.07
0.26
0.47
0.44
0.19
-0.18
-0.53
-0.73
-0.74
-0.59
-0.34
-0.03
0.31
0.64
0.92
1.07
1.04
0.78
0.35
-0.15
-0.61
-0.95
-1.12
-1.13
-0.98
-0.72
-0.39
-0.08
0.13
0.24
0.33
0.51
0.86
1.33
1.75
1.89
1.64
1.09
0.47
0.04
-0.09
-0.03
0.02
-0.13
-0.48
-0.87
-1.04
-0.88
-0.44
0.09
0.45
0.53
0.35
0.04
-0.21
-0.32
-0.30
-0.23
-0.15
-0.09
-0.04
0.07
0.25
0.44
0.56
0.50
0.21
-0.29
-0.86
-1.31
-1.47
-1.27
-0.77
-0.14
0.41
0.74
0.80
0.66
0.46
0.28
0.17
0.10
0.01
-0.11
-0.24
-0.31
-0.26
-0.11
0.07
0.17
0.13
-0.06
-0.34
-0.58
-0.68
-0.63
-0.45
-0.24
-0.08
-0.04
-0.11
-0.26
-0.44
-0.62
-0.76
-0.82
-0.81
-0.71
-0.54
-0.31
-0.05
0.23
0.55
0.87
1.15
1.31
1.29
1.06
0.71
0.38
0.28
0.52
1.10
1.85
2.51
2.85
2.77
2.34
1.73
1.14
0.68
0.34
0.05
-0.29
-0.72
-1.21
-1.66
-1.94
-1.95
-1.68
-1.23
-0.74
-0.35
-0.13
-0.04
-0.00
0.05
0.13
0.14
0.01
-0.30
-0.72
-1.11
-1.33
-1.28
-0.98
-0.55
-0.14
0.15
0.26
0.19
0.00
-0.23
-0.43
-0.58
-0.66
-0.68
-0.66
-0.59
-0.45
-0.25
-0.04
0.15
0.26
0.27
0.22
0.16
0.17
0.25
0.40
0.58
0.74
0.85
0.94
0.97
0.93
0.78
0.48
0.06
-0.36
-0.65
-0.67
-0.42
0.01
0.45
0.72
0.75
0.54
0.22
-0.11
-0.35
-0.51
-0.64
-0.81
-1.06
-1.35
-1.59
-1.69
-1.62
-1.44
-1.24
-1.14
-1.15
-1.17
-1.06
-0.71
-0.14
0.51
1.07
1.41
1.52
1.46
1.33
1.18
1.03
0.85
0.64
0.46
0.37
0.44
0.63
0.84
0.95
0.86
0.57
0.17
-0.19
-0.37
-0.35
-0.16
0.08
0.27
0.37
0.40
0.46
0.62
0.89
1.17
1.35
1.31
0.99
0.46
-0.17
-0.76
-1.18
-1.37
-1.33
-1.12
-0.81
-0.51
-0.29
-0.22
-0.30
-0.47
-0.65
-0.75
-0.72
-0.59
-0.47
-0.39
-0.39
-0.39
-0.31
-0.09
0.22
0.51
0.69
0.70
0.60
0.50
0.49
0.58
0.69
0.76
0.73
0.61
0.47
0.34
0.23
0.13
-0.02
-0.25
-0.58
-0.97
-1.35
-1.60
-1.60
-1.30
-0.74
-0.08
0.46
0.68
0.54
0.12
-0.35
-0.66
-0.68
-0.42
-0.01
0.41
0.71
0.87
0.92
0.92
0.88
0.77
0.54
0.16
-0.29
-0.67
-0.81
-0.67
-0.27
0.21
0.56
0.64
0.42
-0.05
-0.60
-1.10
-1.40
-1.43
-1.18
-0.71
-0.13
0.37
0.70
0.80
0.74
0.63
0.60
0.65
0.78
0.90
0.98
1.01
1.00
0.92
0.70
0.30
-0.26
-0.84
-1.26
-1.34
-1.07
-0.57
-0.05
0.28
0.35
0.22
0.03
-0.12
-0.21
-0.30
-0.42
-0.57
-0.67
-0.64
-0.42
-0.06
0.34
0.66
0.80
0.76
0.60
0.39
0.19
0.02
-0.16
-0.34
-0.49
-0.53
-0.40
-0.11
0.24
0.48
0.50
0.28
-0.04
-0.30
-0.38
-0.31
-0.19
-0.15
-0.23
-0.33
-0.34
-0.16
0.18
0.54
0.75
0.70
0.38
-0.12
-0.64
-1.04
-1.20
-1.10
-0.77
-0.31
0.16
0.54
0.78
0.88
0.85
0.77
0.69
0.66
0.65
0.62
0.51
0.32
0.13
0.04
0.14
0.39
0.70
0.90
0.85
0.55
0.08
-0.39
-0.72
-0.83
-0.73
-0.50
-0.28
-0.16
-0.20
-0.39
-0.64
-0.80
-0.76
-0.51
-0.11
0.28
0.53
0.58
0.46
0.22
-0.05
-0.31
-0.54
-0.69
-0.69
-0.49
-0.11
0.34
0.72
0.90
0.81
0.48
-0.00
-0.54
-1.01
-1.32
-1.39
-1.18
-0.72
-0.13
0.44
0.86
1.00
0.85
0.46
-0.05
-0.50
-0.75
-0.76
-0.60
-0.35
-0.13
0.09
0.33
0.62
0.90
1.05
1.02
0.80
0.49
0.20
-0.02
-0.22
-0.46
-0.73
-0.97
-1.05
-0.87
-0.43
0.16
0.71
1.08
1.20
1.07
0.80
0.49
0.26
0.14
0.10
0.06
-0.05
-0.22
-0.37
-0.41
-0.29
-0.09
0.07
0.10
-0.04
-0.26
-0.47
-0.58
-0.59
-0.54
-0.50
-0.55
-0.72
-0.96
-1.21
-1.36
-1.32
-1.12
-0.83
-0.57
-0.43
-0.39
-0.40
-0.37
-0.26
-0.10
0.02
0.07
0.05
0.06
0.20
0.48
0.82
1.08
1.12
0.93
0.62
0.37
0.28
0.36
0.51
0.62
0.62
0.53
0.46
0.47
0.55
0.64
0.66
0.61
0.50
0.42
0.38
0.37
0.29
0.08
-0.28
-0.75
-1.25
-1.66
-1.93
-1.99
-1.84
-1.49
-1.00
-0.45
0.07
0.53
0.95
1.36
1.78
2.16
2.40
2.37
1.98
1.25
0.33
-0.55
-1.12
-1.23
-0.86
-0.16
0.61
1.20
1.47
1.40
1.08
0.68
0.31
0.03
-0.14
-0.18
-0.07
0.22
0.63
1.01
1.19
1.01
0.47
-0.27
-0.92
-1.27
-1.26
-1.02
-0.77
-0.70
-0.83
-1.05
-1.17
-1.08
-0.79
-0.43
-0.17
-0.06
-0.09
-0.17
-0.21
-0.19
-0.17
-0.21
-0.32
-0.44
-0.50
-0.43
-0.25
0.00
0.28
0.54
0.79
0.99
1.08
0.98
0.64
0.14
-0.34
-0.61
-0.57
-0.28
0.07
0.28
0.24
-0.01
-0.32
-0.53
-0.57
-0.48
-0.36
-0.29
-0.28
-0.31
-0.34
-0.34
-0.32
-0.30
-0.28
-0.26
-0.22
-0.17
-0.12
-0.09
-0.07
-0.04
0.05
0.17
0.31
0.40
0.40
0.34
0.27
0.25
0.28
0.31
0.25
0.07
-0.25
-0.62
-0.92
-1.06
-0.99
-0.73
-0.33
0.11
0.49
0.72
0.70
0.42
-0.04
-0.51
-0.77
-0.71
-0.34
0.16
0.55
0.67
0.54
0.29
0.11
0.10
0.24
0.46
0.64
0.77
0.89
0.98
1.00
0.82
0.39
-0.24
-0.87
-1.26
-1.30
-1.03
-0.70
-0.58
-0.77
-1.17
-1.47
-1.41
-0.89
-0.07
0.73
1.23
1.35
1.23
1.14
1.29
1.68
2.12
2.34
2.13
1.49
0.63
-0.15
-0.60
-0.63
-0.30
0.20
0.68
1.03
1.22
1.29
1.26
1.15
0.94
0.61
0.17
-0.27
-0.61
-0.78
-0.74
-0.55
-0.31
-0.14
-0.16
-0.39
-0.80
-1.25
-1.56
-1.59
-1.29
-0.72
-0.06
0.48
0.76
0.74
0.47
0.07
-0.33
-0.64
-0.83
-0.93
-0.96
-0.93
-0.85
-0.73
-0.56
-0.40
-0.27
-0.23
-0.28
-0.39
-0.50
-0.57
-0.54
-0.44
-0.28
-0.10
0.08
0.26
0.43
0.58
0.69
0.73
0.67
0.51
0.27
-0.01
-0.29
-0.56
-0.80
-1.00
-1.14
-1.18
-1.10
-0.92
-0.67
-0.43
-0.25
-0.18
-0.20
-0.27
-0.32
-0.28
-0.14
0.08
0.34
0.56
0.73
0.83
0.90
0.97
1.04
1.08
1.02
0.87
0.63
0.39
0.22
0.18
0.22
0.28
0.26
0.12
-0.08
-0.26
-0.30
-0.15
0.15
0.48
0.73
0.84
0.81
0.69
0.55
0.41
0.28
0.16
0.05
-0.01
0.04
0.19
0.42
0.64
0.76
0.74
0.57
0.30
0.01
-0.23
-0.35
-0.31
-0.15
0.05
0.19
0.16
-0.08
-0.49
-0.96
-1.32
-1.42
-1.25
-0.89
-0.48
-0.15
0.10
0.28
0.44
0.51
0.40
0.01
-0.61
-1.24
-1.62
-1.54
-0.99
-0.18
0.57
0.99
1.00
0.66
0.13
-0.42
-0.88
-1.19
-1.32
-1.24
-0.97
-0.60
-0.24
-0.03
-0.02
-0.17
-0.38
-0.48
-0.41
-0.17
0.13
0.33
0.34
0.18
-0.05
-0.21
-0.19
0.02
0.35
0.68
0.92
1.00
0.92
0.70
0.41
0.12
-0.12
-0.27
-0.33
-0.34
-0.31
-0.26
-0.12
0.10
0.39
0.62
0.70
0.59
0.38
0.23
0.27
0.54
0.92
1.23
1.34
1.24
1.05
0.88
0.81
0.78
0.70
0.46
0.10
-0.27
-0.51
-0.50
-0.26
0.11
0.47
0.68
0.73
0.64
0.52
0.38
0.23
-0.01
-0.38
-0.84
-1.29
-1.62
-1.76
-1.70
-1.54
-1.38
-1.28
-1.25
-1.22
-1.13
-0.91
-0.60
-0.26
-0.03
0.03
-0.14
-0.46
-0.78
-0.97
-0.92
-0.64
-0.20
0.26
0.67
0.95
1.09
1.07
0.90
0.64
0.37
0.22
0.27
0.52
0.88
1.19
1.34
1.27
1.07
0.81
0.60
0.44
0.30
0.16
0.04
0.01
0.12
0.35
0.60
0.74
0.68
0.42
0.05
-0.33
-0.63
-0.85
-0.95
-0.91
-0.69
-0.30
0.18
0.60
0.82
0.76
0.49
0.14
-0.16
-0.36
-0.46
-0.53
-0.58
-0.58
-0.46
-0.20
0.17
0.53
0.72
0.67
0.39
0.00
-0.31
-0.45
-0.36
-0.16
0.05
0.16
0.15
0.08
0.01
-0.03
-0.04
-0.05
-0.11
-0.19
-0.29
-0.38
-0.43
-0.48
-0.53
-0.60
-0.69
-0.75
-0.74
-0.61
-0.32
0.12
0.65
1.17
1.57
1.76
1.71
1.42
0.97
0.46
-0.03
-0.39
-0.59
-0.59
-0.43
-0.17
0.07
0.17
0.05
-0.30
-0.79
-1.26
-1.55
-1.56
-1.33
-1.03
-0.84
-0.90
-1.16
-1.49
-1.69
-1.63
-1.34
-0.96
-0.64
-0.50
-0.52
-0.62
-0.70
-0.72
-0.65
-0.49
-0.24
0.09
0.44
0.73
0.87
0.81
0.59
0.31
0.14
0.14
0.31
0.53
0.71
0.80
0.84
0.93
1.10
1.33
1.48
1.46
1.22
0.80
0.32
-0.09
-0.34
-0.39
-0.29
-0.13
0.01
0.05
-0.07
-0.30
-0.54
-0.65
-0.54
-0.20
0.25
0.66
0.90
0.90
0.71
0.43
0.17
0.01
-0.03
0.02
0.16
0.36
0.63
0.97
1.31
1.56
1.63
1.48
1.16
0.78
0.46
0.25
0.10
-0.06
-0.29
-0.60
-0.91
-1.16
-1.26
-1.22
-1.04
-0.78
-0.46
-0.13
0.17
0.38
0.44
0.36
0.20
0.02
-0.11
-0.16
-0.13
-0.04
0.07
0.18
0.25
0.25
0.12
-0.13
-0.47
-0.80
-1.01
-1.03
-0.85
-0.58
-0.35
-0.22
-0.19
-0.13
0.04
0.35
0.70
0.92
0.87
0.54
0.06
-0.36
-0.57
-0.55
-0.38
-0.20
-0.12
-0.17
-0.31
-0.49
-0.68
-0.84
-0.92
-0.84
-0.57
-0.13
0.35
0.70
0.79
0.57
0.16
-0.30
-0.64
-0.80
-0.75
-0.56
-0.30
-0.03
0.20
0.38
0.52
0.61
0.65
0.62
0.47
0.17
-0.25
-0.65
-0.85
-0.71
-0.21
0.47
1.07
1.35
1.25
0.88
0.45
0.17
0.12
0.23
0.34
0.32
0.13
-0.15
-0.43
-0.60
-0.63
-0.56
-0.42
-0.27
-0.16
-0.14
-0.20
-0.33
-0.42
-0.40
-0.21
0.08
0.32
0.35
0.10
-0.34
-0.77
-0.97
-0.85
-0.49
-0.08
0.21
0.30
0.23
0.18
0.28
0.57
0.94
1.22
1.23
0.96
0.52
0.13
-0.07
-0.06
0.05
0.11
0.05
-0.07
-0.17
-0.19
-0.12
-0.06
-0.10
-0.22
-0.34
-0.37
-0.26
-0.10
0.02
-0.00
-0.14
-0.32
-0.39
-0.29
-0.01
0.38
0.75
0.97
0.98
0.78
0.47
0.18
0.02
0.03
0.16
0.30
0.38
0.34
0.24
0.17
0.21
0.36
0.54
0.59
0.36
-0.14
-0.80
-1.35
-1.54
-1.26
-0.62
0.12
0.71
0.99
0.99
0.80
0.55
0.27
-0.00
-0.24
-0.40
-0.41
-0.31
-0.17
-0.12
-0.22
-0.41
-0.57
-0.55
-0.33
-0.02
0.24
0.35
0.28
0.10
-0.13
-0.36
-0.59
-0.82
-1.02
-1.18
-1.25
-1.23
-1.12
-0.93
-0.65
-0.26
0.21
0.72
1.20
1.57
1.74
1.71
1.48
1.10
0.63
0.10
-0.38
-0.71
-0.79
-0.59
-0.22
0.17
0.38
0.36
0.16
-0.04
-0.08
0.06
0.27
0.41
0.38
0.22
0.07
0.04
0.12
0.17
0.00
-0.47
-1.12
-1.74
-2.05
-1.93
-1.44
-0.77
-0.15
0.31
0.59
0.76
0.90
0.99
1.00
0.89
0.66
0.39
0.20
0.14
0.22
0.33
0.34
0.16
-0.23
-0.76
-1.27
-1.63
-1.71
-1.47
-0.96
-0.29
0.36
0.87
1.15
1.21
1.13
1.01
0.91
0.83
0.72
0.53
0.28
0.04
-0.11
-0.12
-0.01
0.16
0.29
0.34
0.31
0.22
0.15
0.12
0.12
0.09
-0.05
-0.33
-0.75
-1.20
-1.54
-1.62
-1.38
-0.86
-0.18
0.47
0.96
1.22
1.25
1.11
0.87
0.59
0.33
0.12
-0.02
-0.07
-0.03
0.09
0.27
0.44
0.53
0.50
0.36
0.18
0.07
0.13
0.32
0.57
0.75
0.82
0.78
0.71
0.66
0.62
0.56
0.40
0.14
-0.15
-0.41
-0.60
-0.72
-0.83
-0.98
-1.18
-1.39
-1.55
-1.62
-1.56
-1.34
-1.00
-0.59
-0.16
0.22
0.49
0.65
0.67
0.57
0.34
0.02
-0.32
-0.59
-0.72
-0.65
-0.41
-0.07
0.30
0.64
0.90
1.09
1.17
1.12
0.91
0.56
0.11
-0.36
-0.77
-1.01
-1.01
-0.77
-0.34
0.15
0.52
0.65
0.51
0.20
-0.14
-0.39
-0.52
-0.58
-0.64
-0.73
-0.82
-0.86
-0.79
-0.59
-0.33
-0.05
0.18
0.30
0.31
0.18
-0.07
-0.41
-0.73
-0.93
-0.92
-0.67
-0.27
0.14
0.40
0.42
0.22
-0.09
-0.36
-0.44
-0.33
-0.07
0.27
0.58
0.84
1.04
1.16
1.17
1.06
0.86
0.63
0.53
0.62
0.91
1.23
1.36
1.16
0.64
-0.05
-0.66
-0.99
-1.03
-0.92
-0.83
-0.87
-0.99
-1.03
-0.88
-0.55
-0.14
0.16
0.30
0.30
0.30
0.38
0.53
0.65
0.61
0.40
0.09
-0.22
-0.41
-0.45
-0.39
-0.29
-0.18
-0.06
0.09
0.26
0.38
0.40
0.30
0.11
-0.08
-0.19
-0.17
-0.06
0.03
0.00
-0.17
-0.40
-0.56
-0.50
-0.20
0.23
0.62
0.83
0.80
0.63
0.46
0.40
0.49
0.63
0.69
0.61
0.39
0.13
-0.04
-0.07
0.01
0.09
0.08
-0.07
-0.30
-0.49
-0.54
-0.44
-0.27
-0.18
-0.29
-0.62
-1.05
-1.41
-1.55
-1.41
-1.06
-0.66
-0.29
-0.01
0.23
0.46
0.70
0.90
0.97
0.88
0.69
0.48
0.34
0.26
0.18
0.02
-0.23
-0.50
-0.69
-0.72
-0.63
-0.53
-0.46
-0.45
-0.40
-0.24
0.07
0.48
0.91
1.29
1.58
1.77
1.85
1.80
1.60
1.26
0.85
0.45
0.15
-0.05
-0.19
-0.34
-0.49
-0.60
-0.62
-0.52
-0.37
-0.29
-0.37
-0.59
-0.86
-1.01
-0.93
-0.65
-0.31
-0.11
-0.17
-0.49
-0.90
-1.18
-1.22
-1.01
-0.67
-0.30
0.01
0.30
0.61
0.92
1.18
1.26
1.09
0.68
0.15
-0.31
-0.51
-0.38
0.06
0.66
1.25
1.66
1.82
1.72
1.40
0.96
0.47
-0.02
-0.48
-0.87
-1.17
-1.39
-1.57
-1.75
-1.97
-2.20
-2.39
-2.45
-2.34
-2.05
-1.64
-1.21
-0.83
-0.55
-0.37
-0.22
-0.07
0.10
0.27
0.40
0.45
0.46
0.44
0.48
0.58
0.75
0.92
1.03
1.03
0.88
0.60
0.21
-0.23
-0.62
-0.87
-0.90
-0.70
-0.31
0.16
0.65
1.08
1.42
1.65
1.72
1.58
1.27
0.87
0.54
0.41
0.51
0.75
0.98
1.08
1.02
0.88
0.78
0.77
0.82
0.80
0.60
0.21
-0.23
-0.56
-0.65
-0.54
-0.34
-0.20
-0.19
-0.26
-0.30
-0.23
-0.10
-0.01
-0.07
-0.26
-0.44
-0.47
-0.27
0.07
0.38
0.49
0.38
0.14
-0.07
-0.16
-0.16
-0.14
-0.22
-0.40
-0.64
-0.83
-0.94
-0.94
-0.84
-0.68
-0.51
-0.38
-0.33
-0.40
-0.57
-0.80
-0.97
-0.99
-0.79
-0.36
0.23
0.85
1.32
1.52
1.35
0.86
0.19
-0.45
-0.87
-0.95
-0.70
-0.24
0.27
0.71
0.98
1.03
0.82
0.38
-0.19
-0.72
-1.04
-1.02
-0.67
-0.13
0.38
0.68
0.70
0.49
0.20
-0.05
-0.19
-0.21
-0.13
0.01
0.19
0.41
0.62
0.79
0.88
0.86
0.70
0.44
0.10
-0.25
-0.54
-0.73
-0.84
-0.89
-0.91
-0.92
-0.92
-0.88
-0.81
-0.70
-0.60
-0.51
-0.39
-0.22
0.01
0.28
0.50
0.58
0.48
0.27
0.02
-0.14
-0.17
-0.06
0.16
0.45
0.75
0.99
1.05
0.88
0.50
0.03
-0.34
-0.44
-0.25
0.10
0.42
0.55
0.44
0.19
-0.06
-0.18
-0.17
-0.09
-0.05
-0.10
-0.22
-0.35
-0.36
-0.22
0.04
0.31
0.47
0.41
0.16
-0.20
-0.51
-0.71
-0.76
-0.73
-0.69
-0.65
-0.62
-0.55
-0.42
-0.23
-0.01
0.22
0.43
0.62
0.77
0.84
0.82
0.71
0.56
0.42
0.32
0.28
0.35
0.51
0.74
0.95
1.01
0.84
0.44
-0.06
-0.46
-0.63
-0.52
-0.24
0.03
0.15
0.08
-0.11
-0.29
-0.39
-0.36
-0.23
-0.06
0.11
0.19
0.14
-0.06
-0.38
-0.70
-0.90
-0.86
-0.63
-0.33
-0.16
-0.23
-0.53
-0.87
-1.04
-0.93
-0.55
-0.06
0.34
0.53
0.52
0.41
0.30
0.26
0.32
0.44
0.55
0.59
0.50
0.30
0.05
-0.12
-0.11
0.09
0.38
0.58
0.57
0.36
0.06
-0.15
-0.16
-0.01
0.20
0.28
0.17
-0.11
-0.47
-0.74
-0.85
-0.77
-0.57
-0.37
-0.28
-0.36
-0.57
-0.77
-0.81
-0.60
-0.15
0.40
0.89
1.18
1.24
1.14
0.96
0.79
0.66
0.57
0.52
0.51
0.56
0.64
0.68
0.59
0.35
-0.02
-0.39
-0.66
-0.80
-0.88
-1.01
-1.25
-1.56
-1.78
-1.77
-1.43
-0.84
-0.19
0.29
0.43
0.22
-0.20
-0.62
-0.87
-0.92
-0.80
-0.60
-0.39
-0.20
0.01
0.28
0.58
0.84
0.96
0.89
0.64
0.30
0.02
-0.07
0.06
0.39
0.81
1.16
1.31
1.22
0.95
0.59
0.29
0.12
0.07
0.11
0.16
0.20
0.22
0.22
0.20
0.12
-0.04
-0.25
-0.47
-0.61
-0.62
-0.47
-0.20
0.11
0.40
0.58
0.58
0.38
-0.00
-0.46
-0.88
-1.12
-1.12
-0.91
-0.64
-0.45
-0.44
-0.60
-0.80
-0.86
-0.64
-0.13
0.57
1.26
1.77
2.00
1.98
1.78
1.49
1.17
0.87
0.62
0.50
0.56
0.75
1.00
1.14
1.04
0.67
0.08
-0.57
-1.10
-1.39
-1.42
-1.25
-1.03
-0.89
-0.85
-0.90
-0.95
-0.94
-0.86
-0.76
-0.71
-0.75
-0.88
-1.04
-1.16
-1.17
-1.03
-0.77
-0.43
-0.10
0.13
0.21
0.17
0.09
0.08
0.18
0.36
0.51
0.57
0.53
0.51
0.62
0.92
1.34
1.69
1.79
1.57
1.08
0.50
0.01
-0.26
-0.35
-0.36
-0.43
-0.66
-1.02
-1.45
-1.78
-1.89
-1.69
-1.22
-0.60
-0.04
0.32
0.41
0.31
0.20
0.27
0.60
1.13
1.66
1.95
1.87
1.46
0.94
0.54
0.39
0.44
0.52
0.45
0.20
-0.14
-0.41
-0.48
-0.38
-0.22
-0.15
-0.26
-0.47
-0.65
-0.65
-0.41
0.00
0.44
0.73
0.81
0.66
0.38
0.08
-0.14
-0.26
-0.29
-0.27
-0.23
-0.18
-0.13
-0.10
-0.13
-0.29
-0.55
-0.83
-1.01
-1.00
-0.77
-0.43
-0.13
0.01
-0.04
-0.20
-0.38
-0.50
-0.58
-0.65
-0.75
-0.85
-0.89
-0.82
-0.64
-0.40
-0.18
-0.01
0.08
0.12
0.10
0.05
-0.01
-0.07
-0.06
0.06
0.32
0.65
1.00
1.26
1.39
1.36
1.18
0.92
0.64
0.40
0.26
0.23
0.28
0.33
0.33
0.22
0.02
-0.25
-0.54
-0.78
-0.95
-0.98
-0.86
-0.60
-0.22
0.23
0.70
1.09
1.35
1.41
1.26
0.95
0.57
0.25
0.07
0.04
0.07
0.09
0.04
-0.06
-0.14
-0.15
-0.12
-0.13
-0.27
-0.57
-0.96
-1.32
-1.54
-1.60
-1.53
-1.43
-1.36
-1.28
-1.12
-0.84
-0.45
-0.04
0.27
0.40
0.38
0.32
0.37
0.59
0.98
1.41
1.73
1.81
1.60
1.15
0.58
0.00
-0.50
-0.90
-1.17
-1.29
-1.21
-0.91
-0.37
0.30
0.96
1.47
1.72
1.71
1.50
1.18
0.79
0.35
-0.14
-0.62
-1.02
-1.24
-1.22
-1.01
-0.68
-0.38
-0.18
-0.10
-0.10
-0.13
-0.18
-0.26
-0.37
-0.49
-0.53
-0.42
-0.18
0.14
0.41
0.52
0.49
0.39
0.35
0.42
0.58
0.73
0.79
0.75
0.70
0.76
0.97
1.32
1.65
1.84
1.79
1.47
1.00
0.50
0.08
-0.18
-0.32
-0.42
-0.60
-0.88
-1.24
-1.57
-1.73
-1.69
-1.46
-1.16
-0.89
-0.71
-0.62
-0.57
-0.57
-0.62
-0.76
-0.99
-1.20
-1.28
-1.09
-0.62
0.01
0.58
0.92
0.93
0.67
0.30
0.02
-0.06
0.03
0.22
0.36
0.40
0.34
0.23
0.10
-0.01
-0.13
-0.25
-0.39
-0.53
-0.66
-0.77
-0.88
-1.00
-1.09
-1.09
-0.92
-0.52
0.04
0.66
1.15
1.38
1.30
0.98
0.56
0.18
-0.08
-0.21
-0.22
-0.14
0.07
0.45
0.97
1.54
1.98
2.09
1.78
1.13
0.36
-0.27
-0.57
-0.52
-0.25
0.02
0.13
0.04
-0.15
-0.32
-0.37
-0.30
-0.18
-0.11
-0.14
-0.24
-0.32
-0.32
-0.20
0.01
0.25
0.49
0.69
0.80
0.83
0.75
0.57
0.30
-0.01
-0.30
-0.49
-0.55
-0.48
-0.35
-0.25
-0.24
-0.34
-0.51
-0.69
-0.84
-0.92
-0.95
-0.92
-0.83
-0.65
-0.38
-0.06
0.22
0.41
0.47
0.46
0.47
0.57
0.72
0.84
0.83
0.64
0.30
-0.11
-0.47
-0.73
-0.87
-0.92
-0.90
-0.84
-0.74
-0.63
-0.53
-0.45
-0.39
-0.31
-0.22
-0.13
-0.09
-0.12
-0.20
-0.25
-0.21
-0.02
0.28
0.59
0.79
0.79
0.58
0.23
-0.14
-0.42
-0.52
-0.45
-0.24
0.05
0.37
0.65
0.89
1.05
1.12
1.10
1.01
0.87
0.73
0.59
0.48
0.41
0.37
0.40
0.48
0.57
0.60
0.50
0.27
-0.02
-0.24
-0.29
-0.16
0.08
0.29
0.34
0.23
0.01
-0.22
-0.36
-0.39
-0.37
-0.35
-0.42
-0.58
-0.79
-0.97
-1.09
-1.11
-1.10
-1.10
-1.20
-1.38
-1.57
-1.67
-1.56
-1.25
-0.82
-0.40
-0.11
0.06
0.19
0.35
0.59
0.83
0.94
0.84
0.54
0.17
-0.11
-0.21
-0.09
0.18
0.49
0.77
0.98
1.09
1.11
1.06
0.94
0.78
0.61
0.44
0.31
0.22
0.18
0.21
0.30
0.41
0.48
0.44
0.27
0.01
-0.25
-0.41
-0.41
-0.28
-0.11
-0.01
-0.06
-0.26
-0.55
-0.79
-0.89
-0.81
-0.55
-0.17
0.28
0.72
1.10
1.33
1.34
1.07
0.57
-0.07
-0.66
-1.03
-1.11
-0.93
-0.64
-0.41
-0.35
-0.45
-0.57
-0.57
-0.36
0.00
0.40
0.66
0.70
0.56
0.37
0.26
0.30
0.45
0.62
0.68
0.63
0.49
0.33
0.20
0.08
-0.07
-0.27
-0.49
-0.63
-0.60
-0.36
-0.01
0.30
0.40
0.28
0.00
-0.27
-0.44
-0.47
-0.43
-0.44
-0.54
-0.69
-0.79
-0.73
-0.50
-0.19
0.09
0.25
0.29
0.27
0.28
0.34
0.46
0.60
0.73
0.79
0.75
0.59
0.33
0.04
-0.21
-0.35
-0.45
-0.57
-0.82
-1.16
-1.50
-1.63
-1.47
-1.03
-0.48
-0.02
0.24
0.34
0.41
0.56
0.80
1.03
1.09
0.94
0.62
0.32
0.16
0.20
0.35
0.46
0.39
0.11
-0.34
-0.82
-1.22
-1.43
-1.44
-1.23
-0.84
-0.35
0.16
0.55
0.71
0.59
0.23
-0.23
-0.63
-0.87
-0.90
-0.76
-0.54
-0.31
-0.14
-0.05
-0.04
-0.04
0.04
0.26
0.66
1.17
1.68
2.03
2.12
1.91
1.50
1.02
0.59
0.30
0.15
0.12
0.15
0.21
0.25
0.24
0.17
0.10
0.08
0.17
0.35
0.51
0.54
0.32
-0.14
-0.70
-1.12
-1.22
-0.94
-0.39
0.20
0.60
0.69
0.48
0.10
-0.27
-0.50
-0.54
-0.41
-0.18
0.05
0.22
0.29
0.23
0.04
-0.25
-0.59
-0.93
-1.20
-1.35
-1.39
-1.30
-1.13
-0.91
-0.71
-0.53
-0.38
-0.22
-0.04
0.11
0.19
0.13
-0.04
-0.26
-0.43
-0.46
-0.36
-0.19
-0.02
0.12
0.24
0.37
0.50
0.55
0.47
0.21
-0.15
-0.47
-0.62
-0.55
-0.32
-0.02
0.21
0.33
0.34
0.30
0.27
0.28
0.32
0.37
0.40
0.42
0.42
0.42
0.43
0.45
0.49
0.54
0.61
0.69
0.78
0.86
0.92
0.97
1.00
1.02
1.01
0.93
0.75
0.44
0.02
-0.44
-0.84
-1.10
-1.19
-1.13
-0.98
-0.79
-0.57
-0.34
-0.11
0.05
0.11
0.04
-0.11
-0.25
-0.31
-0.29
-0.24
-0.26
-0.38
-0.56
-0.71
-0.72
-0.58
-0.33
-0.06
0.16
0.25
0.24
0.16
0.10
0.10
0.22
0.44
0.69
0.88
0.92
0.79
0.52
0.20
-0.04
-0.12
-0.03
0.18
0.43
0.60
0.60
0.40
0.08
-0.22
-0.36
-0.25
0.03
0.34
0.51
0.47
0.26
-0.01
-0.19
-0.25
-0.24
-0.24
-0.30
-0.38
-0.38
-0.26
-0.01
0.26
0.41
0.35
0.06
-0.35
-0.75
-1.02
-1.08
-0.95
-0.68
-0.38
-0.11
0.09
0.22
0.31
0.39
0.46
0.51
0.49
0.41
0.32
0.25
0.23
0.23
0.14
-0.10
-0.50
-0.95
-1.26
-1.26
-0.91
-0.35
0.20
0.51
0.51
0.31
0.10
0.02
0.09
0.23
0.31
0.30
0.25
0.23
0.29
0.39
0.42
0.30
0.03
-0.29
-0.51
-0.55
-0.40
-0.13
0.14
0.26
0.16
-0.14
-0.57
-0.97
-1.18
-1.12
-0.82
-0.37
0.06
0.37
0.49
0.42
0.19
-0.15
-0.57
-1.00
-1.35
-1.53
-1.50
-1.28
-0.93
-0.52
-0.11
0.26
0.59
0.83
0.94
0.89
0.70
0.45
0.26
0.21
0.32
0.53
0.73
0.82
0.77
0.63
0.47
0.40
0.46
0.63
0.83
0.96
0.94
0.78
0.57
0.46
0.51
0.73
1.00
1.18
1.19
1.07
0.92
0.82
0.80
0.79
0.67
0.35
-0.18
-0.85
-1.50
-2.02
-2.32
-2.40
-2.32
-2.15
-1.99
-1.87
-1.76
-1.59
-1.31
-0.88
-0.36
0.17
0.61
0.88
0.97
0.89
0.71
0.49
0.27
0.08
-0.08
-0.18
-0.20
-0.08
0.18
0.51
0.82
0.98
0.94
0.71
0.40
0.11
-0.08
-0.18
-0.21
-0.19
-0.13
-0.01
0.18
0.40
0.57
0.63
0.57
0.43
0.28
0.17
0.09
-0.01
-0.18
-0.44
-0.69
-0.83
-0.75
-0.45
-0.05
0.29
0.42
0.32
0.11
-0.04
0.01
0.26
0.64
0.97
1.11
1.00
0.72
0.39
0.16
0.08
0.11
0.17
0.13
-0.08
-0.43
-0.84
-1.16
-1.28
-1.18
-0.90
-0.54
-0.23
-0.05
-0.02
-0.10
-0.22
-0.31
-0.37
-0.40
-0.45
-0.52
-0.59
-0.60
-0.52
-0.33
-0.10
0.11
0.26
0.33
0.38
0.49
0.68
0.94
1.19
1.33
1.29
1.09
0.80
0.55
0.42
0.37
0.33
0.20
-0.08
-0.44
-0.76
-0.91
-0.82
-0.53
-0.15
0.22
0.49
0.63
0.66
0.62
0.54
0.45
0.36
0.28
0.21
0.13
0.03
-0.09
-0.22
-0.33
-0.37
-0.30
-0.14
0.08
0.28
0.38
0.36
0.21
-0.00
-0.27
-0.53
-0.79
-1.01
-1.12
-1.06
-0.82
-0.43
-0.02
0.27
0.38
0.29
0.10
-0.11
-0.28
-0.43
-0.60
-0.82
-1.07
-1.28
-1.36
-1.27
-1.01
-0.63
-0.20
0.20
0.55
0.82
1.01
1.12
1.12
1.01
0.77
0.46
0.17
-0.01
-0.00
0.20
0.49
0.73
0.78
0.60
0.27
-0.10
-0.37
-0.46
-0.40
-0.29
-0.21
-0.21
-0.28
-0.39
-0.48
-0.53
-0.51
-0.45
-0.36
-0.26
-0.14
-0.00
0.17
0.35
0.48
0.50
0.36
0.11
-0.15
-0.26
-0.16
0.17
0.60
0.95
1.11
1.06
0.89
0.69
0.56
0.53
0.55
0.58
0.57
0.46
0.21
-0.19
-0.68
-1.08
-1.23
-1.01
-0.48
0.15
0.63
0.72
0.37
-0.30
-1.09
-1.78
-2.24
-2.38
-2.24
-1.90
-1.51
-1.19
-1.06
-1.16
-1.43
-1.77
-2.00
-2.03
-1.80
-1.31
-0.60
0.24
1.09
1.81
2.25
2.36
2.17
1.84
1.54
1.39
1.40
1.47
1.43
1.21
0.85
0.53
0.41
0.56
0.87
1.12
1.13
0.83
0.38
-0.01
-0.13
0.07
0.47
0.85
1.06
1.07
0.98
0.89
0.87
0.87
0.80
0.58
0.21
-0.25
-0.67
-0.97
-1.11
-1.14
-1.08
-0.99
-0.89
-0.80
-0.74
-0.72
-0.74
-0.79
-0.84
-0.87
-0.83
-0.70
-0.47
-0.15
0.20
0.51
0.70
0.71
0.58
0.38
0.19
0.05
-0.08
-0.24
-0.44
-0.61
-0.65
-0.48
-0.13
0.29
0.58
0.61
0.35
-0.06
-0.42
-0.58
-0.47
-0.12
0.34
0.80
1.15
1.29
1.19
0.84
0.29
-0.31
-0.81
-1.08
-1.05
-0.79
-0.41
-0.08
0.13
0.23
0.30
0.40
0.54
0.66
0.67
0.54
0.33
0.15
0.07
0.11
0.19
0.24
0.22
0.15
0.13
0.20
0.35
0.50
0.56
0.47
0.27
0.03
-0.17
-0.28
-0.29
-0.24
-0.17
-0.13
-0.13
-0.19
-0.24
-0.25
-0.15
0.05
0.29
0.46
0.44
0.19
-0.25
-0.75
-1.13
-1.28
-1.18
-0.87
-0.45
-0.03
0.30
0.49
0.51
0.36
0.07
-0.33
-0.73
-1.03
-1.15
-1.05
-0.80
-0.52
-0.31
-0.22
-0.23
-0.31
-0.42
-0.56
-0.69
-0.77
-0.73
-0.54
-0.23
0.15
0.46
0.66
0.71
0.68
0.65
0.67
0.75
0.86
1.00
1.14
1.29
1.39
1.38
1.21
0.88
0.49
0.19
0.10
0.25
0.55
0.81
0.87
0.64
0.19
-0.33
-0.79
-1.08
-1.23
-1.29
-1.29
-1.21
-1.00
-0.63
-0.13
0.39
0.80
1.00
1.00
0.82
0.55
0.24
-0.08
-0.36
-0.59
-0.72
-0.69
-0.52
-0.25
0.05
0.28
0.41
0.40
0.28
0.09
-0.13
-0.36
-0.54
-0.63
-0.59
-0.42
-0.20
-0.03
-0.04
-0.27
-0.66
-1.06
-1.27
-1.15
-0.69
0.00
0.69
1.15
1.25
0.95
0.39
-0.26
-0.80
-1.09
-1.07
-0.76
-0.26
0.29
0.77
1.05
1.11
1.00
0.81
0.67
0.65
0.73
0.87
0.95
0.91
0.70
0.35
-0.09
-0.54
-0.93
-1.17
-1.22
-1.13
-0.95
-0.75
-0.59
-0.47
-0.34
-0.21
-0.11
-0.13
-0.33
-0.69
-1.10
-1.44
-1.59
-1.54
-1.35
-1.11
-0.90
-0.74
-0.60
-0.43
-0.20
0.15
0.59
1.06
1.44
1.61
1.50
1.13
0.67
0.32
0.24
0.45
0.80
1.11
1.17
0.96
0.58
0.19
-0.04
-0.01
0.24
0.59
0.90
1.04
0.98
0.77
0.49
0.29
0.23
0.31
0.45
0.57
0.62
0.61
0.59
0.56
0.46
0.24
-0.16
-0.68
-1.21
-1.59
-1.71
-1.54
-1.19
-0.80
-0.48
-0.29
-0.21
-0.18
-0.15
-0.10
-0.04
-0.01
-0.02
-0.04
-0.03
0.06
0.18
0.26
0.20
0.02
-0.18
-0.26
-0.09
0.30
0.78
1.13
1.20
1.02
0.73
0.54
0.59
0.84
1.11
1.19
0.93
0.38
-0.26
-0.71
-0.80
-0.52
-0.03
0.39
0.49
0.19
-0.41
-1.08
-1.57
-1.75
-1.63
-1.38
-1.16
-1.09
-1.17
-1.29
-1.34
-1.27
-1.10
-0.91
-0.79
-0.75
-0.68
-0.45
-0.00
0.58
1.12
1.38
1.23
0.73
0.07
-0.46
-0.68
-0.55
-0.22
0.08
0.24
0.23
0.17
0.21
0.43
0.78
1.09
1.21
1.06
0.70
0.27
-0.06
-0.18
-0.11
0.06
0.20
0.27
0.28
0.29
0.36
0.48
0.63
0.74
0.78
0.73
0.62
0.49
0.41
0.40
0.49
0.66
0.84
0.97
1.02
0.98
0.89
0.79
0.71
0.60
0.40
0.07
-0.38
-0.83
-1.14
-1.20
-1.03
-0.74
-0.53
-0.54
-0.81
-1.22
-1.60
-1.80
-1.75
-1.53
-1.26
-1.05
-0.95
-0.91
-0.85
-0.69
-0.39
0.02
0.51
1.00
1.40
1.63
1.63
1.42
1.09
0.78
0.61
0.62
0.75
0.87
0.89
0.76
0.50
0.16
-0.25
-0.71
-1.18
-1.58
-1.77
-1.66
-1.24
-0.61
0.02
0.45
0.58
0.47
0.24
0.03
-0.08
-0.12
-0.22
-0.46
-0.84
-1.25
-1.53
-1.56
-1.34
-0.97
-0.63
-0.41
-0.32
-0.24
-0.08
0.19
0.55
0.88
1.11
1.18
1.11
0.96
0.80
0.69
0.70
0.85
1.11
1.39
1.53
1.41
1.00
0.38
-0.26
-0.75
-1.00
-1.00
-0.85
-0.61
-0.30
0.08
0.50
0.86
1.02
0.87
0.43
-0.15
-0.62
-0.79
-0.61
-0.19
0.29
0.66
0.84
0.85
0.73
0.52
0.24
-0.11
-0.45
-0.67
-0.71
-0.55
-0.28
-0.05
0.05
-0.01
-0.12
-0.17
-0.11
0.04
0.16
0.19
0.08
-0.10
-0.27
-0.38
-0.44
-0.52
-0.62
-0.72
-0.75
-0.67
-0.48
-0.28
-0.19
-0.30
-0.59
-0.91
-1.07
-0.93
-0.46
0.21
0.86
1.27
1.36
1.15
0.80
0.45
0.23
0.15
0.16
0.21
0.26
0.29
0.33
0.35
0.30
0.14
-0.15
-0.52
-0.86
-1.02
-0.93
-0.59
-0.12
0.32
0.60
0.68
0.61
0.46
0.33
0.23
0.17
0.12
0.08
0.05
0.05
0.03
-0.05
-0.24
-0.49
-0.75
-0.92
-0.89
-0.64
-0.24
0.22
0.63
0.93
1.11
1.18
1.15
1.04
0.87
0.66
0.46
0.33
0.31
0.41
0.55
0.65
0.59
0.34
-0.09
-0.59
-1.05
-1.35
-1.46
-1.43
-1.38
-1.38
-1.42
-1.40
-1.21
-0.77
-0.17
0.45
0.91
1.16
1.21
1.16
1.06
0.95
0.80
0.57
0.28
0.00
-0.23
-0.43
-0.70
-1.08
-1.58
-2.05
-2.35
-2.32
-1.97
-1.36
-0.68
-0.07
0.34
0.55
0.62
0.67
0.79
1.02
1.27
1.42
1.34
1.03
0.62
0.32
0.30
0.53
0.87
1.10
1.02
0.66
0.19
-0.20
-0.35
-0.29
-0.13
-0.01
0.00
-0.07
-0.16
-0.20
-0.16
-0.04
0.13
0.34
0.54
0.68
0.71
0.57
0.28
-0.12
-0.52
-0.84
-1.02
-1.05
-0.93
-0.69
-0.37
-0.02
0.25
0.36
0.29
0.10
-0.04
0.06
0.48
1.10
1.67
1.91
1.67
1.06
0.36
-0.12
-0.21
0.00
0.29
0.38
0.16
-0.31
-0.86
-1.32
-1.60
-1.72
-1.75
-1.70
-1.57
-1.34
-1.02
-0.69
-0.41
-0.23
-0.12
-0.03
0.06
0.15
0.17
0.12
-0.05
-0.28
-0.52
-0.70
-0.77
-0.67
-0.37
0.10
0.70
1.25
1.61
1.63
1.30
0.73
0.10
-0.38
-0.62
-0.59
-0.39
-0.12
0.11
0.27
0.33
0.28
0.15
-0.05
-0.23
-0.31
-0.18
0.19
0.75
1.37
1.86
2.05
1.86
1.31
0.55
-0.18
-0.65
-0.73
-0.44
0.04
0.49
0.72
0.65
0.34
-0.04
-0.36
-0.54
-0.60
-0.61
-0.60
-0.57
-0.51
-0.40
-0.25
-0.13
-0.12
-0.23
-0.45
-0.70
-0.87
-0.91
-0.80
-0.61
-0.41
-0.27
-0.20
-0.17
-0.14
-0.12
-0.13
-0.22
-0.42
-0.66
-0.87
-0.95
-0.85
-0.61
-0.34
-0.15
-0.12
-0.22
-0.36
-0.41
-0.31
-0.07
0.22
0.48
0.62
0.62
0.51
0.34
0.22
0.23
0.41
0.73
1.10
1.41
1.56
1.55
1.42
1.27
1.12
0.95
0.71
0.38
-0.01
-0.32
-0.47
-0.43
-0.28
-0.13
-0.08
-0.15
-0.26
-0.32
-0.26
-0.10
0.07
0.15
0.08
-0.12
-0.38
-0.62
-0.74
-0.71
-0.53
-0.28
-0.05
0.08
0.06
-0.06
-0.20
-0.25
-0.16
0.08
0.40
0.73
0.98
1.12
1.15
1.08
0.95
0.74
0.48
0.17
-0.17
-0.48
-0.72
-0.83
-0.81
-0.72
-0.62
-0.59
-0.67
-0.84
-1.08
-1.29
-1.41
-1.38
-1.13
-0.71
-0.17
0.36
0.74
0.94
0.95
0.85
0.74
0.63
0.50
0.31
0.09
-0.09
-0.12
0.06
0.40
0.76
0.96
0.92
0.66
0.30
-0.01
-0.18
-0.21
-0.14
-0.05
-0.01
-0.02
-0.06
-0.12
-0.18
-0.27
-0.39
-0.54
-0.66
-0.66
-0.48
-0.11
0.37
0.79
1.02
0.97
0.70
0.33
0.01
-0.16
-0.17
-0.09
-0.00
0.06
0.07
0.09
0.15
0.27
0.41
0.53
0.53
0.40
0.17
-0.07
-0.19
-0.07
0.29
0.79
1.26
1.49
1.36
0.86
0.12
-0.65
-1.24
-1.54
-1.47
-1.11
-0.59
-0.04
0.38
0.56
0.45
0.07
-0.49
-1.07
-1.49
-1.65
-1.51
-1.19
-0.86
-0.68
-0.71
-0.91
-1.11
-1.16
-0.99
-0.66
-0.32
-0.09
-0.00
-0.00
-0.00
0.06
0.15
0.19
0.11
-0.07
-0.29
-0.45
-0.51
-0.46
-0.36
-0.26
-0.17
-0.10
-0.05
-0.04
-0.07
-0.15
-0.23
-0.22
-0.07
0.21
0.55
0.83
0.95
0.91
0.73
0.49
0.26
0.05
-0.16
-0.37
-0.56
-0.64
-0.52
-0.12
0.49
1.19
1.73
1.93
1.70
1.10
0.31
-0.41
-0.87
-0.99
-0.83
-0.54
-0.22
0.07
0.34
0.61
0.87
1.02
0.99
0.76
0.39
0.03
-0.21
-0.28
-0.25
-0.25
-0.35
-0.52
-0.63
-0.52
-0.15
0.40
0.95
1.29
1.32
1.09
0.76
0.53
0.49
0.62
0.81
0.92
0.87
0.69
0.44
0.25
0.16
0.18
0.25
0.31
0.28
0.14
-0.13
-0.49
-0.91
-1.30
-1.62
-1.83
-1.90
-1.85
-1.67
-1.32
-0.80
-0.17
0.48
0.98
1.18
1.04
0.59
0.04
-0.39
-0.49
-0.21
0.37
1.02
1.51
1.68
1.51
1.06
0.50
-0.00
-0.37
-0.57
-0.69
-0.78
-0.92
-1.08
-1.23
-1.30
-1.24
-1.04
-0.78
-0.51
-0.31
-0.19
-0.08
0.06
0.24
0.42
0.51
0.45
0.24
-0.02
-0.23
-0.31
-0.26
-0.15
-0.07
-0.04
-0.02
0.05
0.26
0.53
0.80
0.92
0.82
0.55
0.24
0.04
0.04
0.17
0.30
0.29
0.09
-0.19
-0.38
-0.32
0.03
0.58
1.13
1.52
1.69
1.68
1.56
1.41
1.20
0.86
0.36
-0.28
-0.95
-1.52
-1.85
-1.90
-1.69
-1.31
-0.88
-0.49
-0.22
-0.09
-0.10
-0.19
-0.32
-0.48
-0.66
-0.87
-1.08
-1.25
-1.29
-1.15
-0.82
-0.33
0.22
0.72
1.10
1.28
1.24
1.00
0.60
0.16
-0.22
-0.46
-0.53
-0.47
-0.38
-0.36
-0.44
-0.59
-0.71
-0.69
-0.44
0.01
0.56
1.09
1.49
1.72
1.78
1.69
1.48
1.17
0.79
0.41
0.11
-0.04
-0.04
0.08
0.23
0.31
0.27
0.09
-0.16
-0.41
-0.61
-0.73
-0.81
-0.85
-0.86
-0.77
-0.56
-0.25
0.05
0.15
-0.04
-0.49
-1.02
-1.36
-1.34
-0.98
-0.46
-0.04
0.14
0.06
-0.14
-0.33
-0.41
-0.40
-0.34
-0.22
-0.00
0.32
0.72
1.05
1.17
0.99
0.56
0.05
-0.32
-0.41
-0.17
0.32
0.90
1.42
1.72
1.70
1.34
0.68
-0.14
-0.91
-1.46
-1.63
-1.43
-0.99
-0.46
-0.00
0.27
0.37
0.32
0.18
0.02
-0.13
-0.24
-0.26
-0.19
-0.04
0.18
0.42
0.61
0.70
0.69
0.60
0.49
0.40
0.36
0.38
0.40
0.38
0.28
0.11
-0.11
-0.32
-0.51
-0.70
-0.89
-1.14
-1.44
-1.76
-1.99
-2.04
-1.82
-1.31
-0.55
0.30
1.08
1.63
1.89
1.85
1.60
1.24
0.83
0.43
0.07
-0.23
-0.45
-0.59
-0.68
-0.76
-0.87
-1.00
-1.10
-1.15
-1.10
-0.98
-0.84
-0.72
-0.61
-0.47
-0.26
0.01
0.28
0.51
0.63
0.66
0.61
0.54
0.47
0.40
0.35
0.33
0.39
0.54
0.77
0.99
1.11
1.05
0.84
0.56
0.34
0.27
0.30
0.33
0.21
-0.13
-0.61
-1.09
-1.40
-1.44
-1.23
-0.88
-0.53
-0.28
-0.16
-0.12
-0.11
-0.11
-0.12
-0.17
-0.26
-0.36
-0.42
-0.37
-0.18
0.11
0.42
0.65
0.76
0.71
0.50
0.16
-0.25
-0.61
-0.78
-0.63
-0.16
0.51
1.16
1.64
1.85
1.84
1.72
1.59
1.46
1.28
0.99
0.57
0.11
-0.30
-0.60
-0.79
-0.91
-1.00
-1.08
-1.13
-1.14
-1.10
-1.05
-1.01
-1.00
-1.00
-0.96
-0.84
-0.62
-0.32
0.02
0.38
0.73
1.05
1.31
1.46
1.46
1.27
0.93
0.52
0.14
-0.12
-0.20
-0.12
0.08
0.30
0.43
0.37
0.14
-0.18
-0.44
-0.49
-0.31
0.02
0.36
0.54
0.55
0.46
0.38
0.40
0.51
0.57
0.50
0.27
-0.04
-0.33
-0.51
-0.59
-0.64
-0.70
-0.77
-0.80
-0.68
-0.39
0.02
0.46
0.78
0.89
0.77
0.44
-0.00
-0.46
-0.84
-1.06
-1.09
-0.98
-0.79
-0.59
-0.46
-0.39
-0.33
-0.20
0.04
0.37
0.70
0.89
0.79
0.37
-0.25
-0.83
-1.10
-0.90
-0.25
0.62
1.38
1.76
1.67
1.23
0.67
0.21
-0.03
-0.08
-0.04
-0.03
-0.08
-0.20
-0.32
-0.43
-0.51
-0.63
-0.79
-0.98
-1.14
-1.17
-1.03
-0.73
-0.32
0.08
0.37
0.48
0.42
0.24
0.04
-0.14
-0.28
-0.41
-0.54
-0.64
-0.65
-0.51
-0.22
0.15
0.44
0.51
0.30
-0.11
-0.57
-0.94
-1.14
-1.21
-1.18
-1.08
-0.87
-0.45
0.21
1.01
1.77
2.26
2.30
1.94
1.31
0.67
0.22
0.02
0.06
0.25
0.52
0.81
1.06
1.19
1.12
0.80
0.28
-0.31
-0.77
-0.96
-0.86
-0.57
-0.29
-0.16
-0.22
-0.42
-0.66
-0.84
-0.93
-0.92
-0.85
-0.74
-0.62
-0.51
-0.43
-0.42
-0.44
-0.46
-0.40
-0.26
-0.06
0.13
0.21
0.18
0.07
-0.02
0.02
0.24
0.57
0.90
1.11
1.15
1.08
0.98
0.93
0.91
0.87
0.70
0.36
-0.10
-0.58
-0.91
-0.99
-0.82
-0.49
-0.17
-0.01
-0.08
-0.36
-0.72
-0.99
-1.05
-0.85
-0.49
-0.11
0.17
0.29
0.30
0.29
0.33
0.45
0.58
0.68
0.72
0.72
0.70
0.68
0.65
0.54
0.32
0.03
-0.26
-0.43
-0.43
-0.27
-0.06
0.06
-0.04
-0.41
-0.96
-1.54
-1.95
-2.10
-1.95
-1.60
-1.17
-0.75
-0.37
-0.03
0.25
0.47
0.58
0.59
0.54
0.50
0.52
0.62
0.77
0.89
0.95
0.89
0.74
0.54
0.37
0.31
0.42
0.65
0.89
1.03
0.96
0.72
0.43
0.25
0.30
0.60
1.06
1.52
1.87
2.00
1.85
1.42
0.78
0.09
-0.45
-0.70
-0.63
-0.40
-0.23
-0.34
-0.77
-1.40
-2.01
-2.39
-2.44
-2.20
-1.78
-1.29
-0.79
-0.36
-0.06
0.02
-0.17
-0.59
-1.11
-1.55
-1.70
-1.48
-0.93
-0.20
0.50
1.03
1.32
1.41
1.36
1.24
1.09
0.94
0.78
0.65
0.57
0.55
0.57
0.56
0.46
0.21
-0.15
-0.56
-0.90
-1.08
-1.10
-0.99
-0.84
-0.74
-0.70
-0.68
-0.59
-0.38
-0.05
0.32
0.63
0.79
0.77
0.62
0.42
0.27
0.22
0.26
0.34
0.37
0.29
0.09
-0.16
-0.39
-0.50
-0.45
-0.21
0.12
0.43
0.60
0.57
0.38
0.16
0.09
0.28
0.69
1.18
1.52
1.53
1.17
0.53
-0.20
-0.82
-1.20
-1.29
-1.15
-0.88
-0.57
-0.30
-0.07
0.11
0.28
0.40
0.45
0.41
0.29
0.17
0.17
0.33
0.62
0.93
1.10
1.04
0.72
0.25
-0.24
-0.60
-0.75
-0.69
-0.46
-0.16
0.11
0.29
0.35
0.31
0.19
0.02
-0.19
-0.42
-0.62
-0.73
-0.70
-0.53
-0.26
0.06
0.33
0.52
0.60
0.60
0.55
0.49
0.46
0.46
0.47
0.42
0.25
-0.07
-0.47
-0.81
-0.97
-0.90
-0.66
-0.42
-0.32
-0.45
-0.74
-1.08
-1.30
-1.35
-1.23
-1.03
-0.80
-0.60
-0.38
-0.13
0.19
0.51
0.77
0.87
0.80
0.56
0.23
-0.11
-0.35
-0.44
-0.33
-0.06
0.25
0.46
0.42
0.10
-0.45
-1.07
-1.61
-1.91
-1.91
-1.65
-1.19
-0.63
-0.07
0.43
0.82
1.07
1.14
1.02
0.74
0.40
0.10
-0.02
0.12
0.47
0.93
1.32
1.50
1.45
1.20
0.88
0.55
0.26
0.01
-0.21
-0.35
-0.38
-0.27
-0.06
0.19
0.40
0.52
0.59
0.66
0.79
0.96
1.04
0.89
0.46
-0.17
-0.79
-1.19
-1.24
-1.01
-0.70
-0.47
-0.37
-0.33
-0.22
0.02
0.35
0.63
0.75
0.62
0.29
-0.13
-0.50
-0.73
-0.79
-0.71
-0.53
-0.32
-0.15
-0.07
-0.09
-0.20
-0.34
-0.47
-0.56
-0.56
-0.42
-0.12
0.33
0.82
1.23
1.39
1.25
0.83
0.28
-0.23
-0.60
-0.78
-0.84
-0.81
-0.74
-0.62
-0.46
-0.29
-0.17
-0.17
-0.29
-0.45
-0.52
-0.42
-0.12
0.29
0.65
0.82
0.76
0.53
0.29
0.16
0.19
0.32
0.42
0.41
0.30
0.20
0.22
0.46
0.87
1.31
1.61
1.65
1.44
1.05
0.61
0.22
-0.09
-0.32
-0.52
-0.69
-0.81
-0.84
-0.75
-0.56
-0.35
-0.20
-0.19
-0.28
-0.42
-0.51
-0.53
-0.52
-0.54
-0.65
-0.83
-0.98
-1.03
-0.94
-0.76
-0.56
-0.42
-0.32
-0.24
-0.13
0.01
0.15
0.26
0.31
0.33
0.30
0.22
0.06
-0.17
-0.43
-0.65
-0.76
-0.72
-0.57
-0.35
-0.11
0.09
0.21
0.22
0.11
-0.08
-0.29
-0.42
-0.40
-0.19
0.16
0.50
0.73
0.78
0.65
0.45
0.30
0.28
0.40
0.66
0.95
1.20
1.33
1.29
1.08
0.77
0.46
0.22
0.14
0.20
0.34
0.47
0.54
0.53
0.51
0.50
0.50
0.49
0.43
0.31
0.16
0.04
0.00
0.03
0.05
-0.01
-0.21
-0.54
-0.87
-1.06
-0.96
-0.57
-0.05
0.38
0.51
0.27
-0.21
-0.70
-0.93
-0.81
-0.40
0.10
0.47
0.57
0.39
0.05
-0.31
-0.52
-0.55
-0.42
-0.26
-0.20
-0.30
-0.48
-0.62
-0.55
-0.24
0.21
0.60
0.78
0.70
0.44
0.19
0.05
0.03
0.06
0.03
-0.06
-0.13
-0.06
0.19
0.56
0.87
0.93
0.62
-0.01
-0.80
-1.48
-1.85
-1.82
-1.46
-0.97
-0.53
-0.27
-0.14
-0.04
0.12
0.34
0.50
0.44
0.08
-0.48
-1.02
-1.28
-1.11
-0.57
0.12
0.68
0.93
0.86
0.62
0.41
0.37
0.50
0.68
0.75
0.64
0.36
0.04
-0.17
-0.19
-0.06
0.12
0.20
0.10
-0.14
-0.43
-0.64
-0.66
-0.52
-0.28
-0.04
0.13
0.20
0.19
0.14
0.08
0.01
-0.10
-0.26
-0.45
-0.62
-0.71
-0.64
-0.40
-0.04
0.33
0.60
0.71
0.66
0.51
0.34
0.18
0.02
-0.16
-0.41
-0.66
-0.84
-0.87
-0.72
-0.46
-0.15
0.12
0.32
0.44
0.49
0.47
0.37
0.20
0.01
-0.15
-0.26
-0.31
-0.32
-0.30
-0.25
-0.18
-0.08
0.02
0.07
0.06
0.03
0.07
0.26
0.60
1.00
1.30
1.35
1.08
0.60
0.08
-0.27
-0.36
-0.21
0.06
0.31
0.43
0.45
0.47
0.59
0.84
1.14
1.35
1.35
1.11
0.66
0.12
-0.40
-0.79
-1.02
-1.09
-1.06
-0.97
-0.86
-0.72
-0.56
-0.40
-0.26
-0.20
-0.22
-0.29
-0.36
-0.36
-0.26
-0.12
-0.05
-0.10
-0.30
-0.57
-0.79
-0.86
-0.74
-0.50
-0.25
-0.10
-0.09
-0.18
-0.26
-0.22
-0.01
0.35
0.77
1.12
1.29
1.25
1.02
0.67
0.30
0.01
-0.12
-0.06
0.18
0.52
0.84
1.04
1.07
0.94
0.67
0.31
-0.12
-0.59
-1.03
-1.36
-1.44
-1.25
-0.86
-0.47
-0.24
-0.27
-0.50
-0.79
-0.97
-0.95
-0.73
-0.41
-0.07
0.23
0.43
0.53
0.50
0.34
0.08
-0.20
-0.40
-0.44
-0.31
-0.02
0.33
0.66
0.89
0.97
0.90
0.72
0.54
0.45
0.53
0.75
1.04
1.24
1.25
1.04
0.66
0.19
-0.27
-0.66
-0.93
-1.04
-0.97
-0.75
-0.45
-0.18
-0.05
-0.10
-0.29
-0.50
-0.68
-0.77
-0.78
-0.69
-0.46
-0.06
0.49
1.04
1.44
1.51
1.25
0.78
0.33
0.10
0.13
0.31
0.44
0.37
0.09
-0.25
-0.44
-0.33
0.05
0.49
0.70
0.49
-0.10
-0.87
-1.49
-1.75
-1.62
-1.25
-0.88
-0.68
-0.66
-0.69
-0.62
-0.36
0.04
0.40
0.56
0.43
0.09
-0.30
-0.54
-0.52
-0.30
-0.02
0.10
-0.02
-0.37
-0.75
-0.96
-0.88
-0.52
-0.08
0.24
0.27
0.02
-0.36
-0.65
-0.67
-0.40
0.05
0.47
0.70
0.68
0.53
0.41
0.44
0.63
0.89
1.05
0.99
0.70
0.31
-0.01
-0.14
-0.04
0.22
0.51
0.76
0.93
1.08
1.24
1.39
1.42
1.23
0.81
0.24
-0.32
-0.70
-0.82
-0.75
-0.60
-0.49
-0.44
-0.41
-0.34
-0.19
0.02
0.20
0.31
0.32
0.25
0.12
-0.06
-0.24
-0.34
-0.29
-0.04
0.35
0.71
0.86
0.72
0.33
-0.16
-0.57
-0.79
-0.84
-0.80
-0.76
-0.73
-0.65
-0.47
-0.18
0.13
0.32
0.32
0.16
-0.07
-0.20
-0.14
0.09
0.39
0.61
0.61
0.33
-0.19
-0.81
-1.34
-1.58
-1.45
-0.96
-0.29
0.33
0.70
0.73
0.47
0.08
-0.27
-0.50
-0.61
-0.68
-0.81
-1.02
-1.29
-1.53
-1.65
-1.57
-1.31
-0.91
-0.46
-0.04
0.30
0.58
0.85
1.13
1.45
1.77
2.06
2.25
2.32
2.23
1.99
1.64
1.31
1.19
1.46
2.17
3.15
4.01
4.33
3.86
2.79
1.69
1.37
2.42
4.86
8.05
10.88
12.27
11.79
9.94
8.14
8.08
10.98
16.82
24.21
30.84
34.70
35.02
33.01
31.55
34.11
43.22
59.25
80.13
102.10
121.37
135.46
143.84
147.59
149.01
151.06
157.11
170.11
191.18
217.84
242.94
256.01
246.94
210.72
150.36
76.43
2.41
-61.17
-110.35
-148.41
-182.81
-220.39
-264.08
-312.39
-361.40
-407.88
-450.73
-490.33
-526.83
-558.64
-582.11
-593.08
-590.31
-574.52
-549.13
-519.05
-488.84
-461.24
-436.52
-412.99
-388.29
-360.76
-329.95
-297.16
-264.34
-232.89
-202.77
-172.13
-137.26
-93.13
-34.47
42.56
137.51
244.71
353.65
451.53
526.76
572.94
590.22
583.94
563.62
537.84
513.63
497.05
492.68
503.89
530.42
566.65
601.77
623.17
620.55
589.77
533.30
457.69
370.32
277.13
182.69
91.56
9.34
-58.54
-108.80
-142.12
-163.38
-179.63
-197.46
-220.39
-248.80
-280.39
-312.40
-342.93
-371.01
-395.57
-414.79
-425.47
-422.98
-402.35
-359.45
-292.14
-201.26
-90.78
31.85
156.02
269.86
363.21
429.70
467.98
480.89
473.51
451.31
418.36
379.46
337.89
296.63
258.42
225.30
198.02
174.30
152.50
132.04
113.48
98.14
87.38
81.39
78.65
75.96
69.05
53.66
27.67
-9.67
-56.22
-106.24
-151.73
-185.01
-201.74
-202.55
-192.56
-179.79
-171.79
-172.71
-182.37
-197.70
-215.04
-232.07
-248.08
-263.08
-276.84
-288.35
-296.22
-299.57
-298.56
-294.31
-288.27
-281.37
-273.43
-263.96
-251.89
-236.52
-218.03
-197.39
-175.89
-154.43
-133.13
-111.30
-88.32
-64.09
-39.52
-16.15
4.94
24.25
44.18
68.00
97.73
132.54
168.75
201.43
226.56
242.61
250.44
251.99
248.97
242.84
235.49
230.55
232.49
244.04
263.40
283.19
292.81
283.18
251.55
203.41
150.20
104.13
72.89
57.55
53.36
53.46
52.42
48.07
40.82
31.68
20.29
4.41
-18.67
-49.52
-84.25
-114.16
-128.56
-119.59
-86.58
-37.52
13.42
51.93
69.27
65.60
48.34
27.33
9.64
-3.07
-13.41
-24.95
-38.84
-52.82
-62.86
-66.16
-63.27
-57.98
-55.41
-59.12
-69.42
-83.01
-95.18
-101.87
-101.71
-96.39
-89.38
-84.09
-82.09
-84.72
-92.14
-104.33
-120.62
-138.99
-155.70
-166.27
-167.39
-158.66
-142.65
-124.45
-108.99
-98.08
-89.56
-79.10
-63.70
-45.15
-28.82
-21.22
-26.30
-42.97
-65.23
-84.08
-91.57
-83.34
-59.71
-24.22
18.26
63.29
107.28
147.02
178.61
197.26
198.52
181.29
148.74
108.34
70.10
42.89
31.07
32.86
41.30
47.48
44.50
30.19
7.18
-19.52
-45.45
-68.49
-88.77
-107.09
-123.35
-135.92
-142.47
-140.35
-127.48
-102.95
-68.19
-27.41
12.58
44.24
62.37
66.81
63.04
59.22
62.72
76.15
96.04
115.00
125.92
125.85
116.93
104.21
91.90
81.12
69.51
53.24
30.07
-0.85
-39.08
-83.81
-134.50
-190.21
-247.73
-300.40
-338.18
-350.89
-332.94
-286.49
-221.70
-152.97
-93.18
-48.50
-17.13
8.66
38.46
79.89
135.30
202.16
273.44
339.21
389.06
414.44
410.95
379.33
324.89
256.55
185.47
123.31
80.37
63.44
72.68
100.19
131.97
152.92
152.95
130.84
94.01
52.47
16.13
-9.46
-24.27
-31.67
-35.31
-37.25
-37.90
-37.36
-36.48
-36.47
-38.72
-43.71
-50.73
-57.87
-63.17
-65.35
-64.45
-61.66
-58.55
-56.61
-56.47
-57.74
-59.19
-59.46
-57.72
-54.00
-49.20
-44.44
-40.74
-38.54
-37.61
-37.18
-36.38
-34.66
-31.96
-28.72
-25.54
-22.97
-21.31
-20.51
-20.20
-19.97
-19.47
-18.58
-17.41
-16.22
-15.28
-14.79
-14.80
-15.17
-15.67
-16.06
-16.17
-16.04
-15.90
-16.05
-16.76
-18.13
-19.96
-21.89
-23.48
-24.45
-24.82
-24.95
-25.45
-26.83
-29.37
-32.67
-36.06
-38.78
-40.32
-40.80
-41.03
-42.03
-44.43
-48.15
-52.49
-56.53
-59.18
-59.18
-54.93
-44.73
-27.66
-4.48
21.88
46.92
66.15
76.94
79.45
76.15
70.39
64.69
59.94
55.75
51.46
46.95
42.88
40.02
38.50
37.85
37.17
35.48
32.49
28.59
24.65
21.57
19.87
19.44
19.66
19.65
18.75
16.87
14.43
12.19
10.88
10.77
11.60
12.68
13.27
12.90
11.68
10.27
9.51
10.04
11.94
14.68
17.33
18.98
19.26
18.52
17.72
17.97
19.97
23.66
28.17
32.23
34.91
35.84
35.52
34.92
34.99
36.35
39.45
44.59
51.72
59.77
66.08
66.75
58.02
38.30
9.63
-22.53
-51.33
-71.28
-80.37
-80.33
-75.03
-68.36
-62.58
-58.03
-54.07
-50.21
-46.56
-43.71
-42.09
-41.39
-40.90
-39.91
-37.99
-35.58
-34.17
-35.89
-42.49
-53.77
-66.57
-75.37
-74.10
-59.80
-33.98
-2.65
26.47
47.30
57.78
59.60
56.10
49.44
40.05
27.00
9.95
-9.86
-30.08
-48.56
-64.33
-78.08
-90.62
-101.93
-110.94
-114.83
-110.64
-96.45
-72.35
-41.06
-7.49
22.71
45.00
57.52
61.79
61.57
60.74
61.74
64.92
68.88
72.03
73.32
72.68
70.33
66.37
60.81
54.60
49.44
47.61
51.13
60.10
72.09
82.59
85.95
77.78
56.76
25.62
-9.08
-38.43
-54.00
-50.94
-30.22
0.87
31.27
50.27
51.45
34.96
6.90
-23.74
-49.07
-64.02
-68.78
-66.99
-62.34
-56.38
-48.89
-39.21
-27.95
-17.08
-9.10
-5.82
-6.93
-10.19
-12.55
-11.80
-7.27
-0.20
7.14
12.55
14.73
13.98
11.90
10.48
11.14
14.30
19.23
24.55
28.88
31.34
31.93
31.31
30.37
29.50
28.89
28.11
26.42
23.23
18.24
11.66
4.10
-3.22
-9.91
-15.53
-19.91
-23.08
-25.17
-26.35
-26.79
-26.59
-25.82
-24.71
-23.31
-21.76
-20.22
-18.74
-17.38
-16.17
-15.06
-13.96
-12.87
-11.74
-10.57
-9.65
-8.83
-8.13
-7.57
-7.09
-6.63
-6.15
-5.58
-4.98
-4.43
-4.02
-3.84
-3.91
-4.12
-4.28
-4.26
-3.97
-3.52
-3.15
-3.14
-3.68
-4.79
-6.19
-7.45
-8.18
-8.21
-7.75
-7.36
-7.65
-9.07
-11.62
-14.76
-17.65
-19.52
-20.02
-19.50
-18.89
-19.25
-21.34
-25.18
-29.97
-34.43
-37.58
-38.92
-38.83
-38.30
-38.41
-40.04
-43.81
-50.11
-58.77
-68.52
-76.42
-78.33
-70.36
-50.91
-22.12
10.45
39.78
60.30
70.01
70.77
66.62
61.51
57.52
54.64
51.86
48.42
44.55
41.15
39.10
38.51
38.84
39.26
38.97
37.73
35.75
33.44
31.19
29.26
27.79
26.87
26.55
26.86
27.68
28.68
29.36
29.13
27.59
24.73
21.10
17.82
16.53
18.71
24.83
33.18
39.65
38.77
25.67
-1.63
-41.04
-86.55
-129.77
-162.29
-177.94
-174.30
-153.10
-119.63
-81.23
-45.39
-17.77
-1.06
5.22
3.71
-2.21
-9.77
-17.39
-24.20
-29.52
-32.68
-33.21
-31.35
-28.18
-25.15
-23.31
-22.94
-23.19
-22.64
-20.06
-14.78
-7.10
1.89
10.80
18.52
24.51
28.94
32.38
35.42
38.25
40.56
41.68
40.82
37.46
31.56
23.58
14.31
4.67
-4.61
-13.04
-20.38
-26.45
-31.01
-33.80
-34.47
-32.86
-29.06
-23.52
-16.87
-9.79
-2.88
3.61
9.72
15.58
21.28
26.67
31.38
35.18
37.82
39.32
40.04
40.50
41.11
42.03
43.03
43.65
43.90
43.79
43.54
43.46
43.69
44.33
45.98
50.05
58.51
72.88
92.15
111.88
124.93
123.84
103.66
64.19
9.35
-56.77
-127.78
-197.41
-259.63
-308.31
-337.68
-343.88
-326.45
-289.98
-243.07
-194.92
-152.49
-118.36
-91.08
-67.37
-44.41
-20.25
5.87
34.66
67.99
108.35
158.06
218.18
287.82
357.69
417.19
456.74
470.83
460.05
429.96
388.54
343.47
300.39
262.29
230.40
203.65
178.71
150.66
114.47
67.21
9.99
-51.85
-110.37
-157.34
-187.57
-200.33
-198.79
-188.00
-172.53
-154.82
-134.99
-111.97
-84.79
-54.58
-25.24
-2.55
8.03
3.94
-12.79
-36.26
-59.25
-76.05
-84.70
-86.74
-85.30
-82.75
-79.44
-74.14
-65.61
-54.14
-41.66
-30.95
-24.11
-21.56
-21.67
-21.82
-19.59
-13.87
-5.29
4.28
12.78
18.86
22.21
23.83
25.11
27.22
30.45
34.08
36.74
37.09
34.31
28.31
19.79
9.86
-0.40
-10.14
-19.08
-27.18
-34.44
-40.15
-44.54
-47.70
-49.75
-51.68
-53.24
-54.46
-55.13
-54.76
-52.77
-48.76
-42.92
-35.91
-28.77
-22.53
-18.00
-15.30
-13.92
-13.07
-12.04
-11.07
-10.88
-12.57
-17.13
-24.94
-35.41
-47.06
-58.40
-66.66
-72.33
-76.57
-80.79
-86.47
-94.82
-106.41
-120.63
-136.64
-149.26
-152.57
-141.22
-113.02
-70.49
-20.67
27.20
65.35
90.06
102.58
106.94
107.48
106.34
103.20
96.80
86.68
74.40
62.95
55.43
53.56
57.47
66.45
79.60
96.11
114.38
131.21
141.86
138.91
119.62
86.91
48.46
13.45
-11.14
-23.14
-24.73
-20.59
-15.25
-11.36
-10.68
-15.21
-27.55
-49.98
-82.61
-121.86
-160.46
-187.72
-195.46
-182.28
-154.01
-121.19
-94.37
-79.71
-77.05
-81.20
-85.31
-84.42
-77.43
-66.01
-52.93
-40.21
-28.44
-17.04
-5.16
7.46
20.65
33.15
44.08
53.01
60.35
67.03
74.53
84.86
97.45
113.67
135.59
165.88
205.18
250.86
295.85
330.76
347.36
341.75
316.14
276.92
232.94
191.77
158.37
134.23
118.91
110.72
106.97
104.53
95.98
77.64
50.89
22.78
0.82
-10.48
-11.57
-7.36
-2.32
0.01
-1.84
-10.02
-26.50
-53.23
-89.42
-130.88
-171.60
-205.56
-229.62
-242.90
-247.86
-238.96
-212.40
-166.85
-105.45
-35.59
33.91
91.07
135.14
167.43
189.94
203.29
207.67
204.15
194.05
179.55
162.75
146.61
132.45
120.86
111.00
101.67
91.65
79.89
65.77
48.87
29.77
8.75
-13.25
-35.34
-56.76
-77.09
-96.64
-116.43
-138.16
-163.29
-193.76
-231.41
-278.20
-335.21
-401.09
-470.70
-534.89
-583.06
-605.34
-596.10
-555.61
-490.15
-409.79
-325.14
-244.73
-173.82
-116.06
-72.42
-41.06
-17.07
6.69
37.46
80.21
135.15
196.68
252.48
289.62
300.18
284.27
248.97
204.18
158.35
115.87
76.49
33.95
-17.82
-81.00
-152.44
-225.24
-291.35
-343.36
-375.61
-367.81
-312.39
-220.26
-117.23
-28.91
31.81
65.22
78.38
78.90
71.92
56.02
31.36
2.17
-23.64
-37.96
-36.04
-17.55
14.81
57.20
103.77
147.75
184.74
213.61
235.26
250.72
260.18
263.15
259.08
246.72
226.07
199.84
172.24
147.24
126.98
111.56
99.79
89.81
79.36
66.85
52.90
39.18
27.42
18.40
11.97
7.29
2.97
-0.38
-5.44
-12.87
-22.49
-33.71
-45.82
-58.06
-69.65
-79.82
-87.75
-93.08
-94.55
-91.67
-84.54
-73.90
-61.01
-47.54
-35.34
-26.19
-22.07
-23.48
-30.87
-44.16
-62.66
-85.00
-109.21
-132.89
-153.13
-172.32
-189.43
-203.14
-212.08
-215.17
-211.67
-201.23
-184.02
-160.89
-133.57
-103.42
-72.27
-41.21
-10.97
18.34
47.26
76.72
107.38
139.05
171.50
203.77
235.89
267.56
298.48
328.79
359.49
392.16
428.25
468.53
511.63
555.06
592.93
617.70
623.40
608.36
575.74
531.70
482.86
433.52
386.35
339.32
287.84
228.04
159.17
83.70
5.62
-71.11
-154.40
-239.52
-314.67
-368.73
-397.71
-404.28
-393.85
-372.11
-343.89
-312.81
-279.58
-245.53
-212.68
-182.75
-156.33
-132.88
-111.76
-93.10
-77.68
-65.35
-57.45
-56.33
-63.89
-80.35
-102.48
-126.15
-147.64
-164.34
-174.19
-177.47
-176.18
-172.71
-168.88
-165.83
-164.50
-165.13
-166.51
-165.10
-156.43
-136.80
-105.21
-64.45
-20.76
18.16
46.34
61.74
66.55
65.08
61.32
57.42
53.66
49.57
44.95
40.50
37.31
36.02
36.19
36.59
35.77
32.76
27.64
21.21
14.67
9.03
4.78
1.80
-0.33
-1.98
-3.19
-3.54
-2.42
0.64
5.81
12.82
21.00
29.59
37.83
45.26
51.99
58.63
66.04
74.59
83.47
90.37
92.12
86.03
71.33
49.89
25.60
2.90
-14.82
-26.03
-30.95
-30.96
-28.04
-24.59
-23.38
-27.28
-38.32
-56.47
-79.23
-102.26
-121.30
-133.95
-140.38
-142.99
-145.03
-149.17
-156.81
-168.30
-183.27
-200.52
-217.91
-231.98
-239.04
-236.75
-225.28
-207.07
-185.45
-162.54
-137.15
-107.69
-72.39
-30.97
14.32
59.41
100.25
134.57
162.57
186.27
207.98
229.43
251.00
271.70
289.27
300.93
304.10
297.43
281.54
258.80
232.60
205.93
180.38
156.12
132.85
110.81
91.20
75.46
64.13
56.16
49.22
40.83
29.89
17.40
6.06
-1.07
-2.16
2.44
10.42
18.62
24.45
26.91
26.74
25.69
25.58
27.33
30.77
35.06
39.33
43.18
46.82
50.72
55.12
59.64
63.32
64.98
63.74
59.17
51.25
39.99
25.27
6.86
-15.23
-40.46
-67.61
-94.96
-120.77
-143.52
-161.90
-174.44
-179.53
-176.08
-164.44
-146.95
-127.65
-111.20
-101.21
-99.16
-103.77
-112.12
-121.19
-129.22
-135.94
-141.71
-146.68
-149.91
-149.97
-144.57
-132.09
-112.40
-87.43
-60.41
-34.52
-12.04
6.95
23.74
41.59
63.58
90.70
120.39
147.39
166.28
173.55
169.96
159.83
151.47
153.84
173.75
213.07
268.35
332.52
