1537273830.00
64.000000
-0.00
-0.00
-0.00
-0.00
-0.00
-0.00
-0.00
-0.00
-0.00
-0.00
0.00
0.01
0.01
-0.00
-0.03
-0.05
-0.05
0.00
0.13
0.36
0.66
1.01
1.37
1.72
2.06
2.40
2.79
3.24
3.80
4.42
5.06
5.67
6.21
6.70
7.19
7.76
8.45
9.38
10.46
11.59
12.65
13.58
14.45
15.39
16.64
18.33
20.69
23.53
26.58
29.56
32.28
34.82
37.50
40.74
44.89
50.33
56.71
63.53
70.20
76.36
82.08
87.84
94.36
102.18
111.89
123.00
134.73
146.20
156.83
166.64
176.22
186.96
197.60
210.46
226.18
244.90
265.41
284.77
298.61
302.23
292.29
267.99
231.77
187.56
139.72
91.48
44.35
-1.51
-46.30
-89.73
-130.89
-168.28
-200.98
-228.39
-250.25
-266.16
-275.48
-277.92
-273.18
-261.52
-243.69
-221.33
-196.42
-170.87
-146.17
-123.22
-102.27
-83.09
-65.34
-48.76
-33.55
-20.08
-8.86
0.18
7.16
12.40
16.33
19.36
21.81
23.77
25.27
26.27
26.78
26.80
26.37
25.58
24.53
23.29
21.88
20.37
18.78
17.14
15.39
13.43
11.19
8.63
5.76
2.68
-0.42
-3.34
-5.92
-8.18
-10.29
-12.52
-15.15
-18.33
-21.97
-25.71
-29.07
-31.67
-33.42
-34.68
-36.10
-38.41
-42.01
-46.86
-52.37
-57.70
-62.17
-65.65
-68.65
-72.16
-77.13
-84.03
-92.54
-101.67
-110.26
-117.69
-124.05
-130.17
-137.04
-145.24
-154.83
-165.67
-178.04
-192.53
-209.28
-226.55
-240.19
-244.59
-235.57
-213.12
-182.50
-152.19
-129.75
-118.13
-114.48
-112.50
-106.59
-95.14
-81.04
-68.92
-61.56
-57.75
-53.32
-44.38
-30.62
-15.96
-6.48
-6.67
-16.18
-29.54
-38.85
-38.03
-26.29
-8.65
6.85
13.51
9.45
-1.67
-13.14
-19.06
-17.61
-11.51
-5.98
-5.11
-9.04
-13.99
-14.87
-9.07
1.08
9.09
7.90
-5.58
-27.73
-49.39
-60.27
-54.60
-34.56
-9.31
9.77
14.84
5.49
-11.67
-26.90
-32.62
-27.29
-15.68
-5.60
-3.00
-8.47
-17.18
-22.10
-18.51
-7.45
4.66
9.57
2.15
-16.02
-36.98
-50.29
-48.45
-31.06
-5.05
18.81
31.39
29.78
18.19
5.19
-1.09
2.53
13.30
24.94
31.92
32.96
31.61
33.57
42.80
58.35
74.54
84.05
82.36
71.04
57.26
50.03
55.38
72.77
95.42
113.68
120.23
113.81
99.63
86.17
80.47
84.22
93.62
102.20
105.02
101.74
96.50
94.82
99.73
109.20
116.94
116.17
104.00
84.03
64.91
55.91
61.84
79.78
100.34
112.34
108.64
89.84
63.88
41.57
30.98
33.42
43.48
52.57
54.04
46.81
35.48
27.12
26.55
32.80
39.56
39.05
27.16
6.65
-13.71
-23.85
-18.03
1.58
25.61
42.13
42.69
26.90
2.36
-19.43
-29.14
-24.38
-10.29
3.96
10.63
7.57
-1.17
-8.35
-8.26
-0.40
10.09
15.52
10.51
-4.19
-21.69
-32.54
-29.94
-13.97
8.37
26.68
32.59
24.06
6.11
-12.06
-22.16
-21.13
-12.15
-2.05
3.06
1.67
-2.78
-4.66
-0.12
9.86
19.81
22.87
15.15
-1.40
-19.50
-30.11
-27.37
-12.09
8.64
25.11
30.03
22.31
7.09
-7.45
-14.65
-12.87
-5.77
0.51
1.52
-2.70
-7.86
-8.49
-1.60
10.67
21.96
25.12
16.42
-1.60
-20.90
-32.00
-29.00
-13.07
8.06
24.08
27.48
17.46
-0.09
-16.06
-23.09
-19.73
-10.58
-3.07
-2.61
-9.02
-16.68
-18.21
-9.34
7.82
25.37
33.71
27.07
7.34
-16.53
-32.95
-33.70
-18.53
4.86
24.93
32.28
24.51
7.01
-10.47
-19.39
-17.00
-7.19
2.42
5.39
0.39
-8.15
-13.15
-9.31
3.05
17.74
26.12
22.11
6.03
-15.17
-31.45
-34.96
-24.22
-4.80
13.82
23.23
20.59
9.37
-3.28
-10.78
-10.93
-6.37
-2.19
-2.32
-6.70
-11.27
-10.67
-2.05
12.39
25.81
30.37
21.75
2.38
-19.28
-32.86
-31.45
-15.60
6.84
24.98
30.64
22.56
6.56
-8.22
-14.59
-11.14
-2.43
4.34
4.06
-2.90
-10.95
-12.92
-4.74
11.36
27.55
34.54
26.76
5.89
-19.49
-37.97
-41.12
-27.84
-4.84
16.87
27.67
24.11
9.96
-6.40
-16.82
-17.72
-11.50
-4.22
-1.50
-4.69
-10.11
-11.72
-5.28
8.26
22.77
30.13
25.16
9.00
-11.05
-25.27
-26.68
-14.91
3.81
20.11
26.47
21.10
8.39
-4.10
-10.19
-8.54
-2.83
1.02
-0.94
-7.89
-14.71
-15.26
-6.60
8.36
21.89
25.56
15.25
-5.89
-28.45
-41.49
-38.14
-19.50
5.85
26.12
32.45
23.26
4.60
-13.37
-21.88
-18.18
-6.25
6.00
11.58
8.59
0.97
-4.31
-1.96
7.93
19.63
25.07
18.93
2.42
-16.92
-29.03
-26.89
-10.77
11.79
29.85
34.75
24.54
4.66
-15.36
-26.82
-26.15
-16.10
-3.41
5.29
7.21
4.33
1.55
3.12
9.46
16.67
18.99
12.57
-1.46
-16.88
-25.62
-22.22
-7.25
12.56
27.68
30.74
20.41
1.95
-15.79
-25.07
-23.42
-14.46
-5.27
-1.83
-5.36
-11.71
-14.36
-8.99
3.14
15.46
19.82
11.66
-6.56
-26.12
-36.50
-31.04
-10.92
15.10
35.20
40.49
29.57
8.94
-10.80
-20.72
-18.07
-7.13
4.04
8.61
5.04
-2.45
-6.98
-3.53
7.50
20.20
26.39
20.50
3.14
-18.51
-34.07
-35.39
-21.20
1.91
22.71
31.12
23.57
4.60
-15.88
-27.94
-26.91
-15.34
-0.79
8.94
10.26
5.36
0.19
0.33
7.13
16.75
22.41
18.78
5.73
-10.94
-22.57
-22.39
-9.66
9.70
26.18
31.72
23.92
6.98
-10.74
-21.39
-21.71
-14.14
-4.75
0.61
-0.03
-3.99
-6.09
-2.43
6.46
15.33
17.32
8.52
-8.84
-26.89
-36.12
-30.70
-12.00
11.77
29.73
33.87
23.12
3.68
-14.69
-23.69
-20.81
-9.99
1.07
5.73
2.34
-4.95
-9.07
-4.66
7.91
22.21
29.33
23.16
4.47
-18.80
-35.43
-36.67
-21.12
4.32
27.95
39.25
34.33
17.37
-1.98
-14.12
-14.50
-5.66
5.14
10.47
7.35
-1.23
-8.42
-7.97
1.68
16.16
27.40
28.05
15.88
-4.72
-24.82
-35.53
-32.65
-18.89
-1.94
9.83
11.88
5.56
-3.50
-9.23
-8.94
-4.75
-1.78
-4.41
-12.85
-22.60
-26.95
-20.81
-4.34
16.38
32.20
35.58
24.84
5.24
-13.83
-23.81
-21.55
-10.49
1.84
8.45
7.05
1.05
-3.00
0.26
11.16
24.30
31.57
26.86
10.11
-11.91
-28.74
-31.72
-18.77
4.09
25.80
36.02
30.65
13.60
-5.84
-18.21
-18.98
-10.58
-0.19
4.76
1.19
-7.95
-15.62
-15.07
-4.21
12.81
27.59
31.98
22.79
3.72
-16.57
-28.84
-28.24
-16.59
-0.95
10.59
13.24
7.78
-0.60
-5.89
-5.19
-0.36
3.41
1.25
-7.64
-19.01
-25.77
-22.11
-7.42
12.66
28.99
33.65
24.40
5.81
-13.12
-23.96
-23.12
-13.41
-1.91
4.29
2.53
-4.22
-9.29
-6.71
4.53
19.31
29.06
26.73
11.19
-11.48
-30.87
-37.62
-28.35
-7.46
15.25
29.68
30.60
19.79
4.37
-7.40
-10.88
-7.04
-1.22
0.84
-3.06
-10.10
-14.30
-10.57
1.70
17.67
29.44
30.32
18.79
-0.64
-19.59
-30.05
-28.48
-17.38
-3.50
5.99
7.65
3.33
-1.38
-1.16
5.32
14.15
18.51
13.04
-2.24
-21.32
-35.02
-35.78
-22.11
0.38
21.65
32.26
28.01
11.96
-7.55
-21.37
-24.24
-17.13
-6.04
1.96
3.06
-1.23
-5.43
-3.80
5.51
19.08
29.85
31.16
20.70
2.22
-16.24
-26.45
-24.22
-11.62
4.46
16.08
18.77
13.50
5.67
1.24
2.78
7.78
10.59
6.35
-5.27
-19.26
-27.82
-24.96
-10.16
10.78
28.54
35.00
27.56
10.39
-7.93
-18.97
-18.96
-10.37
-0.03
5.32
3.06
-3.73
-8.59
-5.90
5.10
19.46
29.00
26.84
11.66
-11.30
-32.42
-42.41
-37.09
-19.54
1.67
16.78
20.07
12.42
0.38
-8.11
-8.36
-1.67
5.95
7.71
0.65
-12.44
-24.40
-27.75
-19.16
-1.53
17.42
29.15
28.73
17.35
1.33
-11.52
-16.23
-12.96
-6.37
-2.13
-3.15
-7.71
-10.70
-7.09
4.38
19.78
31.85
33.80
23.32
4.16
-15.50
-27.24
-26.65
-15.69
-1.23
8.90
10.54
5.17
-1.35
-2.90
2.72
12.03
18.07
14.75
1.06
-17.65
-32.27
-34.74
-22.49
-0.10
22.80
36.31
35.16
21.26
2.29
-12.46
-17.20
-12.31
-3.42
2.45
1.43
-4.87
-10.63
-9.72
0.14
15.44
28.56
31.87
22.06
2.13
-19.87
-34.73
-36.61
-25.85
-8.46
7.20
14.92
13.63
7.24
1.60
0.73
4.16
7.62
6.11
-2.45
-15.36
-26.27
-28.71
-20.03
-3.14
14.74
25.84
25.87
16.37
3.31
-6.28
-8.51
-4.67
0.02
0.16
-6.13
-15.66
-21.87
-18.89
-5.42
13.80
30.15
35.55
26.92
7.98
-12.57
-25.50
-25.71
-14.82
0.14
10.79
12.26
5.79
-2.36
-5.03
1.30
14.09
26.02
29.20
19.78
0.64
-19.91
-32.23
-30.50
-15.69
5.00
22.12
28.79
24.04
12.61
1.66
-3.62
-2.83
-0.04
-0.54
-6.99
-17.45
-26.25
-27.41
-18.26
-1.58
15.65
25.62
23.90
11.87
-4.16
-16.45
-19.91
-14.67
-5.44
1.72
3.26
0.12
-3.14
-1.65
6.15
17.07
24.76
23.42
11.32
-7.62
-25.47
-34.17
-29.64
-14.25
4.36
17.25
18.90
10.03
-3.07
-12.46
-13.18
-6.09
2.93
6.68
1.31
-11.16
-23.68
-28.20
-20.21
-1.61
20.01
35.00
36.69
24.65
4.93
-13.42
-23.03
-22.02
-14.15
-6.04
-2.68
-4.52
-7.61
-6.58
1.48
14.58
26.63
30.83
23.58
6.79
-12.80
-26.98
-30.19
-22.38
-8.82
3.02
7.77
5.21
0.02
-1.48
4.36
15.62
25.82
27.71
18.00
-0.11
-18.19
-27.20
-22.24
-5.49
15.05
29.70
32.30
23.19
8.64
-2.89
-5.80
-0.52
6.99
9.19
1.84
-12.89
-27.35
-32.71
-24.13
-3.89
19.35
35.14
36.49
23.52
2.96
-15.52
-24.43
-21.99
-12.34
-2.56
1.75
-0.29
-4.65
-5.56
0.61
12.48
24.31
29.04
22.56
6.25
-13.60
-28.88
-33.94
-28.40
-16.89
-6.07
-0.84
-1.44
-3.86
-2.66
5.09
17.31
27.48
28.39
16.72
-4.28
-25.99
-38.73
-36.91
-21.98
-1.52
14.93
20.92
16.34
6.91
0.29
1.50
9.67
18.79
21.30
12.92
-4.49
-23.40
-34.49
-31.71
-15.78
6.10
24.07
30.55
24.17
9.80
-4.51
-12.04
-10.99
-5.01
-0.48
-2.27
-10.36
-19.73
-23.36
-16.75
-1.04
17.24
29.41
29.33
16.81
-2.39
-19.67
-28.01
-25.62
-16.09
-5.87
-0.13
0.12
-1.75
-0.66
6.56
18.45
29.31
32.22
23.37
4.92
-15.67
-29.41
-30.58
-19.77
-3.37
10.23
15.20
11.29
3.48
-1.27
1.53
10.80
20.36
22.49
12.91
-6.00
-25.94
-37.00
-33.01
-15.26
8.19
26.68
32.70
25.56
11.42
-0.79
-4.61
0.35
8.67
12.62
7.10
-6.98
-23.02
-32.13
-28.19
-11.62
10.43
27.93
33.11
24.73
8.27
-7.55
-15.72
-14.52
-7.67
-1.56
-1.03
-6.34
-13.20
-15.50
-9.09
5.12
21.47
32.31
32.23
21.10
4.22
-10.67
-17.55
-15.45
-8.53
-3.12
-3.42
-8.63
-13.64
-12.47
-2.45
13.58
28.55
34.96
28.80
12.00
-8.58
-24.45
-29.80
-24.33
-13.13
-3.54
-0.86
-5.25
-11.81
-13.75
-6.70
7.90
23.23
30.52
24.19
5.42
-18.08
-36.00
-40.60
-30.69
-11.82
6.84
17.51
17.60
10.56
3.27
1.65
6.87
14.75
18.45
12.86
-1.71
-19.33
-31.46
-31.66
-19.31
-0.08
17.26
25.31
21.81
10.41
-1.90
-8.93
-8.74
-4.30
-1.23
-3.85
-11.92
-20.47
-22.70
-14.17
3.66
23.80
37.12
37.43
24.91
5.91
-10.67
-18.12
-15.40
-7.04
-0.04
0.43
-5.73
-13.63
-16.28
-9.01
7.23
25.60
36.79
34.02
17.23
-6.54
-26.70
-34.63
-28.23
-12.58
3.28
11.61
10.15
2.80
-3.39
-2.67
5.61
16.71
23.14
19.20
4.52
-15.29
-31.42
-36.40
-28.21
-11.28
6.14
16.55
17.25
11.21
4.71
3.00
7.06
13.05
15.11
9.32
-3.39
-17.36
-25.17
-21.72
-7.51
11.39
26.31
30.60
23.21
9.24
-3.35
-8.31
-4.99
1.66
4.40
-1.26
-13.89
-26.61
-31.09
-22.53
-2.92
19.70
35.30
36.97
24.55
4.42
-13.91
-22.70
-19.74
-9.17
1.42
5.51
1.60
-6.14
-10.59
-6.30
6.79
23.02
33.96
33.05
19.46
-1.38
-20.65
-30.54
-28.33
-17.27
-4.38
3.71
4.36
0.08
-3.66
-2.18
4.92
13.37
16.77
10.85
-3.40
-19.97
-30.95
-30.84
-19.66
-2.78
12.11
19.10
17.13
10.04
4.01
3.61
9.05
15.86
17.63
10.10
-5.66
-23.10
-33.51
-30.69
-15.02
6.66
24.42
30.64
23.85
9.32
-4.45
-10.47
-7.25
0.76
6.07
2.85
-9.27
-24.69
-34.63
-32.00
-15.71
8.15
29.30
38.39
32.13
14.74
-4.67
-17.19
-18.82
-12.12
-3.85
-0.54
-4.36
-11.96
-16.68
-12.81
0.63
18.95
33.91
38.18
29.35
11.45
-7.43
-19.32
-20.84
-14.53
-6.77
-3.45
-6.17
-11.45
-13.24
-7.15
6.35
21.58
30.82
28.49
14.57
-5.25
-22.34
-29.59
-25.11
-13.04
-0.99
4.38
1.29
-6.19
-10.84
-6.98
5.53
20.78
29.85
26.21
9.67
-12.99
-31.52
-37.44
-28.51
-9.62
10.03
21.79
22.11
13.87
4.29
0.45
4.91
14.03
20.42
17.47
3.82
-15.39
-31.12
-35.54
-26.47
-8.50
9.67
20.12
19.92
12.11
3.23
-0.58
2.52
9.37
13.79
10.63
-0.73
-15.55
-26.01
-25.63
-13.23
6.00
23.30
30.96
26.81
15.05
3.52
-1.24
1.97
8.45
10.87
4.05
-11.37
-28.74
-38.92
-35.26
-17.64
7.05
28.15
36.71
30.04
12.86
-5.56
-16.39
-16.17
-8.06
0.64
3.18
-2.33
-11.99
-18.69
-16.48
-4.29
13.08
27.61
32.12
24.25
7.53
-10.56
-22.53
-24.85
-19.30
-11.37
-6.51
-6.68
-9.14
-8.78
-1.71
11.43
25.20
32.26
27.64
11.83
-9.13
-26.52
-33.34
-27.76
-13.84
0.83
9.24
8.87
2.80
-2.31
-0.30
10.29
24.80
34.79
32.83
17.26
-6.33
-27.84
-37.93
-33.01
-16.78
2.15
15.11
17.91
12.40
4.50
0.32
2.30
7.92
11.61
8.38
-2.66
-17.42
-28.70
-30.09
-19.72
-1.68
16.11
26.14
25.28
16.12
4.81
-2.60
-3.90
-1.35
0.12
-3.56
-12.56
-22.65
-27.58
-22.63
-7.83
11.53
27.36
32.76
25.79
10.44
-5.56
-15.03
-15.26
-9.21
-3.21
-2.86
-9.27
-18.38
-23.54
-19.56
-6.16
11.60
25.89
30.20
22.57
6.45
-11.33
-23.92
-27.75
-23.75
-16.21
-10.06
-7.87
-8.61
-8.59
-4.18
5.55
17.63
26.66
27.68
19.07
3.74
-12.40
-23.24
-25.61
-20.40
-11.63
-3.83
0.46
1.92
3.43
7.95
15.94
24.65
29.27
25.76
13.55
-3.58
-18.91
-26.07
-22.32
-9.99
4.90
15.75
18.99
15.62
10.21
7.97
11.53
19.29
26.25
26.90
18.45
2.90
-13.84
-24.84
-26.07
-18.41
-7.08
1.72
4.49
2.44
0.16
2.15
9.25
17.46
20.41
13.37
-3.16
-23.17
-37.81
-40.18
-28.92
-9.13
10.37
21.51
21.02
11.85
1.13
-3.88
-0.16
9.38
17.52
17.27
6.36
-10.78
-25.23
-28.50
-17.62
2.96
23.74
35.29
33.27
20.27
3.87
-7.98
-11.28
-7.75
-3.06
-3.06
-9.86
-20.46
-28.32
-27.32
-15.58
2.84
19.86
27.71
23.44
10.65
-2.76
-9.30
-6.62
1.19
6.47
3.18
-8.71
-22.79
-29.90
-23.65
-4.56
19.78
38.75
44.09
34.17
14.38
-5.91
-18.27
-19.21
-11.45
-1.89
2.55
-1.12
-10.23
-18.09
-17.89
-7.10
10.58
26.84
33.23
26.13
8.88
-10.13
-22.22
-23.55
-16.98
-9.67
-8.09
-13.49
-21.10
-23.19
-14.41
4.34
25.56
39.15
37.84
21.34
-3.41
-25.86
-37.02
-33.81
-19.87
-3.38
7.57
9.12
3.45
-2.80
-2.51
7.40
23.84
38.86
43.87
34.68
14.07
-9.27
-25.29
-28.06
-18.88
-5.01
4.99
6.52
1.32
-4.36
-4.28
3.46
14.93
22.73
20.55
7.22
-12.23
-29.26
-36.30
-30.84
-16.52
-0.98
8.35
8.29
1.55
-4.87
-4.05
6.48
22.45
34.94
35.21
20.24
-5.12
-30.05
-43.46
-39.90
-22.32
-0.19
16.03
20.67
15.33
6.77
2.21
4.63
11.39
16.26
13.57
1.89
-14.73
-28.86
-33.50
-25.86
-9.05
9.44
21.53
22.72
14.36
2.83
-4.34
-3.07
4.48
11.13
9.25
-3.97
-23.96
-40.76
-44.52
-31.38
-5.92
21.00
38.22
40.00
28.59
11.96
-1.14
-6.14
-4.32
-1.06
-1.81
-8.32
-17.56
-23.45
-20.55
-7.48
11.53
28.50
35.55
29.14
12.22
-7.03
-19.59
-20.48
-11.75
-1.17
2.59
-4.47
-18.75
-30.94
-31.49
-16.72
8.53
33.11
45.72
41.01
22.20
-1.13
-18.48
-23.86
-18.15
-7.51
0.79
2.74
-0.64
-4.44
-3.33
4.91
17.64
28.62
31.22
22.27
4.19
-15.81
-29.36
-31.46
-23.38
-11.69
-4.28
-5.36
-12.61
-18.88
-16.72
-3.67
15.46
30.90
33.65
20.82
-2.23
-24.74
-36.33
-32.42
-16.16
3.76
18.12
21.99
16.65
8.14
3.33
5.85
14.00
21.90
22.82
13.45
-3.85
-21.80
-31.92
-29.19
-15.19
2.69
15.36
17.37
10.17
1.00
-1.87
5.10
18.08
27.81
25.47
8.46
-17.30
-40.34
-49.74
-41.23
-19.33
5.42
22.15
25.23
16.52
3.45
-5.66
-6.17
0.52
8.35
10.38
3.11
-11.28
-25.82
-32.56
-27.11
-11.40
7.15
19.89
21.96
15.18
6.63
4.29
11.43
24.33
34.20
32.59
16.92
-7.38
-29.66
-39.76
-33.49
-14.76
6.94
21.66
24.18
16.15
4.57
-2.65
-1.05
7.90
17.79
20.98
13.07
-4.46
-24.59
-38.37
-39.70
-28.68
-11.53
3.12
9.21
6.89
1.95
1.83
10.25
24.22
35.39
35.17
20.41
-4.06
-27.46
-39.04
-34.03
-16.31
4.12
16.78
16.76
6.90
-4.51
-8.87
-2.32
12.19
26.91
33.77
28.79
14.06
-3.83
-17.53
-22.73
-20.12
-14.41
-11.09
-12.97
-18.30
-21.60
-17.01
-2.15
19.52
39.63
48.85
41.95
20.95
-5.38
-25.88
-32.77
-25.90
-12.28
-1.92
-1.74
-11.33
-23.58
-29.09
-22.15
-4.36
16.17
29.77
30.68
20.18
5.27
-5.81
-8.48
-4.21
1.03
0.86
-7.04
-19.39
-28.88
-28.39
-15.15
7.14
29.81
43.26
41.75
26.46
4.92
-12.87
-19.63
-14.73
-4.19
3.07
0.59
-11.47
-26.37
-34.74
-30.22
-13.42
8.27
24.99
30.08
23.62
11.85
2.81
1.26
5.87
10.58
8.71
-2.35
-19.22
-34.14
-39.25
-31.02
-12.34
8.82
23.64
26.99
20.10
9.56
3.63
7.41
19.60
32.96
38.19
29.26
7.37
-19.31
-39.88
-46.50
-38.82
-23.56
-10.26
-5.44
-8.94
-14.56
-14.68
-5.33
11.00
26.82
34.21
29.58
15.78
0.22
-9.43
-9.74
-3.07
3.90
4.26
-5.05
-21.04
-36.10
-41.64
-32.64
-10.79
16.01
37.25
45.02
38.11
22.63
8.42
3.73
10.25
22.28
30.12
26.14
9.50
-12.99
-30.87
-36.17
-28.04
-12.86
-0.05
3.87
-0.67
-7.22
-7.72
1.87
18.55
33.98
39.53
31.41
13.29
-5.92
-17.30
-16.90
-7.89
1.54
3.11
-6.79
-24.92
-42.82
-51.26
-44.97
-25.50
-0.42
20.37
29.61
26.15
15.16
5.25
3.56
11.58
24.22
32.75
29.84
14.33
-8.01
-27.52
-36.21
-32.35
-21.18
-11.14
-8.43
-12.96
-18.69
-17.91
-6.59
12.50
31.23
40.73
36.71
22.09
5.06
-5.67
-5.82
2.08
10.61
11.77
1.71
-16.82
-35.75
-45.84
-41.37
-23.27
1.24
22.26
32.01
28.93
18.08
8.28
6.80
15.07
27.68
35.53
31.30
14.05
-9.80
-30.11
-38.66
-34.06
-22.05
-11.66
-9.33
-15.04
-22.58
-23.86
-14.16
4.64
25.01
38.17
39.16
29.52
16.06
6.81
6.47
13.82
22.54
24.94
16.22
-2.51
-24.68
-41.41
-45.93
-37.27
-20.78
-5.33
1.62
-1.78
-10.55
-16.02
-10.96
5.56
27.23
43.60
46.11
33.17
11.25
-8.77
-17.93
-14.37
-4.05
3.19
-0.17
-14.53
-33.17
-46.34
-47.17
-35.62
-18.04
-2.97
3.91
2.96
-0.31
0.83
9.96
25.03
39.53
46.22
41.29
26.50
8.33
-5.49
-9.83
-4.98
3.57
8.06
2.87
-12.07
-30.85
-44.44
-45.43
-32.46
-11.27
8.34
17.82
14.92
4.82
-2.99
-0.54
13.62
33.20
47.86
49.27
36.10
14.66
-5.11
-15.40
-14.94
-8.98
-5.63
-10.37
-22.51
-35.68
-41.94
-36.57
-21.07
-2.15
12.19
17.17
13.89
8.22
7.09
14.29
28.07
41.86
47.89
41.32
23.07
-0.28
-19.74
-28.45
-25.24
-15.23
-6.98
-7.72
-19.13
-36.08
-49.23
-50.18
-36.52
-13.28
9.51
22.50
22.35
13.37
4.62
4.32
14.40
29.45
40.15
39.02
25.15
4.60
-13.27
-21.45
-19.15
-11.93
-7.68
-11.52
-22.58
-34.64
-39.90
-33.47
-16.29
5.36
23.03
30.57
27.25
17.95
10.47
11.39
22.13
37.90
49.95
50.26
36.17
12.22
-12.23
-27.73
-29.96
-22.04
-12.11
-8.32
-13.51
-23.53
-30.15
-26.55
-11.87
7.78
22.99
26.76
18.81
5.73
-3.17
-1.44
10.39
25.27
33.46
28.12
9.12
-16.80
-39.73
-51.38
-49.05
-36.40
-20.96
-10.05
-6.97
-9.56
-11.88
-8.12
3.74
20.19
34.04
38.47
31.29
16.64
2.91
-2.28
3.08
13.83
20.44
14.96
-3.70
-28.35
-47.25
-50.60
-36.52
-11.94
11.33
23.34
21.45
11.06
1.70
1.03
10.16
23.22
31.38
28.18
13.49
-6.68
-23.79
-31.56
-29.32
-21.97
-16.74
-18.82
-28.15
-39.35
-44.71
-38.29
-19.68
5.32
27.19
37.34
32.45
16.12
-3.10
-16.14
-18.26
-11.43
-3.00
-1.50
-11.48
-30.98
-52.54
-67.29
-70.10
-62.24
-50.31
-42.18
-41.96
-47.83
-53.73
-53.55
-45.50
-33.93
-26.89
-31.12
-47.55
-69.83
-87.98
-94.58
-89.16
-78.38
-72.03
-76.26
-89.20
-101.71
-102.41
-85.01
-52.86
-16.87
10.90
23.69
23.63
20.19
24.88
45.92
84.61
135.36
190.19
242.95
290.91
334.77
376.69
415.70
448.68
475.28
492.90
496.08
481.06
446.78
395.90
334.32
269.53
208.58
155.26
107.13
59.60
8.01
-50.46
-115.28
-183.05
-249.47
-311.42
-368.31
-421.71
-472.63
-519.77
-559.92
-589.45
-606.15
-610.35
-604.34
-591.29
-573.67
-553.01
-527.20
-492.56
-446.00
-386.69
-316.84
-240.98
-164.68
-92.95
-28.64
27.90
78.40
125.96
174.26
226.46
283.57
342.68
396.02
433.08
443.46
423.16
377.12
317.89
260.29
214.89
184.29
163.85
146.22
125.57
99.80
69.40
35.45
-1.08
-38.08
-70.29
-89.36
-86.67
-58.44
-8.69
51.33
107.84
150.64
176.76
190.55
198.94
208.78
223.66
243.30
264.92
284.96
300.58
309.72
310.87
302.66
284.34
256.43
221.16
182.36
144.29
110.48
82.52
59.99
41.11
23.99
7.70
-7.71
-21.04
-31.04
-37.26
-40.48
-42.87
-47.72
-58.78
-78.09
-106.34
-140.66
-174.68
-200.29
-210.91
-204.41
-183.79
-157.15
-133.88
-120.78
-119.41
-126.67
-137.30
-146.88
-153.49
-157.51
-160.18
-161.95
-162.34
-160.30
-155.13
-146.80
-135.31
-119.86
-98.32
-68.95
-30.74
13.98
59.24
97.09
120.62
126.66
116.64
95.55
69.73
45.45
27.80
20.56
25.70
42.48
66.73
91.25
107.97
110.43
96.60
69.18
33.92
-3.21
-38.04
-68.81
-95.57
-118.85
-139.15
-156.66
-171.84
-185.60
-199.04
-213.38
-229.31
-246.95
-265.69
-284.53
-302.31
-317.95
-330.70
-339.81
-344.41
-343.26
-335.18
-318.03
-289.35
-246.96
-189.65
-117.96
-34.25
57.30
151.28
241.60
322.65
390.02
440.96
475.05
492.58
494.20
480.57
452.63
411.99
361.35
304.50
245.89
190.09
141.26
103.27
79.49
72.42
82.58
107.29
140.02
171.46
192.31
196.11
182.46
156.77
127.65
103.05
87.28
80.33
78.79
78.12
74.19
64.30
46.35
19.28
-16.17
-56.73
-96.91
-130.97
-155.37
-170.65
-181.55
-195.22
-217.95
-251.92
-293.41
-333.15
-358.94
-359.32
-327.25
-262.64
-172.96
-71.47
26.26
106.51
161.14
189.05
195.45
188.77
176.83
164.04
150.60
133.96
111.71
84.11
54.89
30.00
14.78
11.37
17.43
27.35
34.41
33.76
24.17
7.62
-12.77
-35.18
-60.05
-89.28
-124.23
-164.03
-205.35
-243.74
-275.68
-300.11
-318.83
-335.63
-354.24
-376.69
-402.20
-427.37
-447.29
-457.89
-456.48
-442.63
-417.93
-384.65
-344.66
-298.29
-244.42
-181.09
-106.57
-19.93
78.68
187.91
304.90
424.20
537.53
634.55
705.49
744.21
750.53
730.31
693.03
648.15
602.16
557.55
513.89
470.16
426.30
383.46
342.95
305.20
269.40
234.34
200.10
167.25
137.18
111.49
90.83
74.37
59.85
44.26
25.05
1.03
-27.39
-58.28
-89.15
-117.93
-143.55
-165.82
-184.79
-200.04
-210.34
-214.20
-210.30
-198.59
-180.73
-160.00
-140.13
-124.29
-114.20
-109.23
-108.54
-111.45
-118.35
-130.18
-147.27
-168.40
-191.10
-213.04
-233.72
-254.72
-277.49
-300.40
-317.24
-319.04
-298.66
-255.58
-197.66
-138.60
-91.87
-64.70
-55.95
-58.75
-65.91
-74.24
-84.62
-98.28
-112.43
-119.27
-109.66
-79.68
-35.19
9.09
36.35
37.15
15.28
-13.54
-29.69
-20.25
14.21
60.94
102.94
128.00
133.61
125.07
109.57
91.02
69.64
45.48
22.85
10.31
15.87
40.63
75.65
105.81
117.98
108.31
83.51
55.37
32.62
16.67
3.37
-10.87
-24.66
-32.46
-30.20
-20.15
-10.90
-11.67
-24.53
-41.21
-47.77
-33.93
-0.54
39.96
71.43
83.79
77.97
63.51
50.91
44.69
42.40
38.68
30.46
19.15
8.14
-1.08
-10.89
-25.45
-46.55
-70.50
-88.87
-92.59
-76.28
-40.14
11.02
69.95
128.65
178.87
212.75
224.37
212.00
179.20
133.80
84.85
39.71
2.32
-26.43
-47.40
-62.63
-75.05
-87.94
-103.57
-121.00
-135.25
-139.35
-128.70
-105.56
-79.60
-63.67
-66.32
-85.78
-109.98
-123.22
-115.71
-90.00
-60.08
-43.40
-51.30
-82.62
-124.83
-161.24
-179.40
-176.20
-157.25
-131.54
-105.66
-81.01
-55.08
-25.21
8.08
40.80
68.04
87.53
101.44
114.89
132.76
156.20
181.99
204.30
218.02
221.21
215.44
204.64
193.28
185.10
182.42
185.89
193.99
203.11
208.48
206.24
195.50
178.90
161.20
146.21
134.22
121.65
103.21
74.83
35.83
-10.87
-60.00
-105.72
-142.92
-168.06
-179.98
-180.91
-176.38
-173.88
-179.54
-194.55
-213.51
-226.60
-224.83
-205.46
-174.38
-143.30
-123.52
-119.80
-127.92
-137.48
-137.82
-123.40
-95.83
-61.90
-29.71
-5.23
9.25
14.65
13.99
11.51
11.65
17.63
29.99
45.65
59.10
65.28
62.55
54.06
46.02
44.04
49.53
58.66
64.80
62.59
51.46
36.26
24.55
22.08
29.56
41.98
51.67
52.39
42.48
25.26
6.66
-7.89
-15.94
-18.14
-16.71
-13.62
-9.87
-5.82
-2.11
0.19
0.27
-1.42
-2.87
-1.44
4.59
14.95
27.56
39.75
49.57
56.15
59.15
57.99
51.72
39.72
22.58
2.44
-17.67
-34.88
-47.12
-52.95
-51.20
-40.75
-21.50
4.48
32.36
55.59
68.29
67.88
56.34
39.04
22.16
9.82
3.01
0.28
-0.30
0.31
2.30
6.30
12.17
18.70
24.05
26.66
25.83
21.80
15.51
8.29
1.60
-3.19
-5.37
-5.31
-4.47
-4.60
-6.67
-9.92
-12.31
-11.67
-7.32
-0.66
5.37
7.86
5.53
-0.88
-9.01
-16.25
-20.79
-22.05
-20.31
-16.31
-10.90
-4.92
0.60
4.67
6.55
6.14
3.97
1.08
-1.47
-2.88
-2.78
-1.30
1.14
3.79
5.80
6.23
4.54
0.70
-4.63
-10.31
-15.15
-18.24
-19.13
-17.64
-13.63
-6.98
2.05
12.61
23.04
31.36
36.22
37.62
37.12
37.07
39.32
44.06
49.76
54.19
55.84
54.95
53.34
53.31
56.17
61.67
68.32
74.56
79.76
83.93
86.93
87.62
84.28
75.83
63.26
49.49
37.90
29.99
24.12
16.24
2.04
-20.58
-50.88
-86.24
-124.34
-164.10
-205.12
-245.68
-281.10
-303.96
-306.43
-283.97
-237.79
-175.52
-108.77
-49.51
-6.43
17.01
22.20
13.54
-3.02
-20.49
-30.93
-25.98
0.69
50.13
115.71
183.86
239.06
270.65
278.07
270.95
263.96
269.07
289.72
319.99
347.86
361.93
355.93
329.99
288.18
235.22
174.05
105.87
31.75
-45.82
-122.33
-192.63
-252.75
-301.59
-340.98
-374.71
-406.46
-438.11
-468.94
-495.79
-515.36
-524.51
-521.81
-507.89
-484.96
-455.77
-422.57
-386.68
-348.45
-308.04
-265.84
-223.15
-182.02
-144.76
-113.27
-88.42
-69.98
-56.74
-47.14
-39.67
-33.42
-28.06
-23.65
-20.25
-17.72
-15.59
-13.17
-9.84
-5.19
0.77
7.65
14.94
22.18
29.22
36.29
43.81
52.27
62.00
73.03
85.16
98.07
111.48
125.25
139.41
154.11
169.77
187.23
207.69
232.13
260.41
290.56
318.53
339.40
349.05
345.99
331.83
310.44
286.12
261.89
238.89
217.00
196.10
176.74
160.00
146.49
135.61
125.70
115.11
103.28
91.23
80.80
73.38
68.82
65.29
60.29
52.09
40.73
27.89
15.97
6.90
1.13
-2.21
-4.61
-7.15
-9.90
-12.04
-12.48
-10.71
-7.21
-3.35
-0.78
-0.67
-3.09
-7.03
-10.93
-13.36
-13.82
-12.85
-11.79
-11.94
-13.81
-16.74
-19.20
-19.69
-17.54
-13.52
-9.51
-7.59
-8.82
-12.67
-17.20
-20.06
-19.84
-16.74
-12.45
-9.15
-8.32
-9.94
-12.73
-15.06
-16.03
-16.09
-16.59
-18.94
-23.50
-29.12
-33.57
-34.67
-31.44
-24.71
-16.73
-10.08
-6.35
-5.48
-5.92
-5.58
-3.15
1.12
5.59
8.21
7.76
4.57
0.34
-2.80
-3.52
-1.97
0.56
2.60
3.49
3.82
4.90
7.81
12.45
17.34
20.35
19.90
15.91
9.97
4.55
1.75
2.19
4.68
6.81
6.26
2.09
-4.87
-12.36
-17.99
-20.38
-19.82
-17.76
-15.70
-13.89
-11.12
-5.43
4.62
18.58
34.01
47.44
56.14
59.55
59.34
58.25
58.37
59.91
61.26
60.32
56.18
49.99
44.92
44.74
52.18
67.81
90.08
116.07
142.67
167.35
188.33
204.32
214.10
216.49
210.51
195.87
173.12
143.82
110.24
74.79
39.64
6.29
-24.43
-52.24
-77.11
-98.98
-117.68
-132.96
-144.64
-152.75
-157.61
-159.77
-159.87
-158.47
-155.96
-152.54
-148.27
-143.18
-137.37
-131.01
-124.34
-117.57
-110.88
-104.36
-98.01
-91.81
-85.75
-79.83
-74.09
-68.58
-63.34
-58.39
-53.73
-49.34
-45.19
-41.27
-37.59
-34.16
-31.02
-28.16
-25.58
-23.24
-21.07
-19.03
-17.08
-15.20
-13.43
-11.83
-10.45
-9.31
-8.40
-7.63
-6.92
-6.20
-5.45
-4.74
-4.20
-3.92
-3.94
-4.18
-4.45
-4.55
-4.35
-3.92
-3.50
-3.40
-3.88
-5.00
-6.51
-7.95
-8.86
-8.94
-8.30
-7.43
-7.03
-7.71
-9.62
-12.39
-15.18
-17.03
-17.35
-16.25
-14.52
-13.40
-14.03
-16.75
-21.00
-25.38
-28.49
-29.31
-27.84
-25.03
-22.34
-21.27
-22.98
-28.08
-36.19
-45.23
-51.56
-50.74
-39.10
-15.73
16.49
52.03
84.74
109.77
124.47
128.11
121.40
106.10
84.84
60.93
37.57
16.87
-0.95
-16.95
-32.41
-47.50
-60.91
-71.00
-77.62
-82.55
-88.32
-95.77
-102.30
-102.49
-90.87
-65.56
-30.11
7.92
40.01
60.29
67.87
66.51
61.72
57.94
56.62
56.51
55.39
52.00
46.99
42.39
40.14
40.96
43.93
47.22
48.81
47.84
44.75
41.20
39.15
39.95
43.74
49.30
54.61
57.86
58.66
57.58
56.36
56.44
57.64
57.80
53.20
40.41
18.31
-10.85
-42.06
-69.31
-88.01
-96.33
-95.12
-86.50
-72.42
-53.99
-31.87
-7.74
14.95
31.42
37.62
32.70
19.72
3.99
-10.03
-21.01
-30.54
-40.44
-49.93
-54.75
-49.80
-33.12
-8.67
14.69
27.66
25.79
11.76
-6.55
-20.41
-25.05
-21.41
-14.99
-12.48
-17.83
-30.44
-45.61
-56.19
-55.19
-38.35
-6.47
33.38
69.73
91.10
90.77
68.99
32.33
-9.69
-48.96
-78.92
-95.98
-102.57
-103.55
-101.88
-97.34
-87.83
-72.21
-52.44
-33.39
-21.26
-20.86
-33.01
-53.63
-74.88
-87.59
-83.79
-59.68
-16.97
36.74
89.90
130.55
149.91
144.85
118.96
81.92
46.70
25.47
24.77
42.69
69.67
92.47
99.96
87.87
60.06
25.55
-6.10
-28.76
-40.44
-41.61
-32.98
-15.85
5.96
26.41
38.69
39.32
30.68
19.37
12.70
13.81
19.72
23.67
20.27
8.86
-6.39
-19.19
-25.84
-25.54
-19.19
-7.55
9.72
33.34
62.53
93.31
119.65
133.48
129.21
105.84
67.19
20.87
-24.23
-60.16
-82.62
-90.55
-88.93
-84.05
-81.28
-83.46
-91.04
-103.45
-120.50
-143.65
-159.09
-159.86
-145.16
-119.71
-89.89
-60.50
-38.98
-25.30
-19.95
-22.33
-32.89
-50.72
-70.05
-83.77
-84.59
-62.13
-17.62
34.42
77.43
101.18
105.61
97.54
85.16
74.28
66.64
60.60
53.94
47.12
41.39
38.02
37.36
38.46
39.96
40.50
38.96
35.30
31.19
28.11
26.70
26.70
27.23
27.62
27.67
27.19
26.29
25.54
25.05
24.28
22.76
20.20
17.11
14.38
12.46
11.38
11.33
12.86
16.22
21.29
26.67
29.51
26.25
13.92
-7.81
-35.82
-64.78
-89.42
-106.46
-115.62
-118.46
-116.57
-110.65
-100.50
-86.24
-70.02
-56.55
-51.12
-57.15
-73.15
-92.41
-105.58
-104.26
-84.76
-50.26
-9.54
27.30
50.87
57.38
50.25
36.26
21.12
7.67
-3.63
-15.52
-28.19
-39.04
-43.76
-39.03
-24.93
-5.14
15.34
31.45
40.49
43.57
44.76
49.64
63.23
88.62
120.74
154.79
185.30
206.91
215.56
208.85
187.13
154.00
115.85
80.16
53.84
39.67
35.45
35.66
34.37
28.46
18.99
9.84
4.75
5.14
8.55
10.37
6.77
-2.92
-15.55
-25.26
-25.92
-13.57
12.16
47.21
84.58
116.76
138.35
147.45
145.79
137.09
124.88
110.89
94.73
75.18
51.60
24.77
-3.71
-31.75
-57.45
-79.45
-97.10
-110.04
-117.95
-121.27
-121.88
-124.00
-132.41
-150.36
-177.77
-211.23
-243.85
-267.14
-274.50
-263.90
-239.63
-208.81
-177.92
-150.49
-128.39
-111.79
-99.96
-92.69
-90.29
-94.15
-103.57
-115.12
-123.83
-127.08
-123.89
-113.92
-97.49
-67.64
-25.33
20.20
56.21
84.91
111.63
138.71
165.90
191.19
211.76
224.12
227.41
223.99
218.13
211.78
205.18
197.78
188.88
178.18
165.08
150.27
135.82
124.20
115.73
109.53
104.31
98.72
91.65
81.91
69.27
54.36
38.27
21.07
2.78
-15.74
-33.03
-47.71
-59.54
-69.10
-77.26
-84.50
-91.04
-96.62
-100.82
-103.72
-106.05
-108.93
-112.84
-117.16
-120.28
-120.60
-117.11
-109.68
-99.07
-86.62
-74.06
-62.84
-53.82
-47.19
-42.69
-39.65
-37.24
-34.71
-31.71
-28.69
-26.24
-24.35
-22.43
-19.74
-15.73
-10.24
-3.52
3.94
11.31
18.54
26.67
36.79
48.78
61.08
71.41
77.69
78.72
73.47
62.07
46.18
28.38
11.31
-2.50
-10.90
-12.59
-3.65
14.54
33.80
45.20
46.05
39.74
31.84
26.64
25.18
24.99
20.59
7.29
-15.37
-42.84
-67.54
-82.04
-82.33
-69.77
-50.33
-32.38
-21.75
-18.91
-19.95
-19.98
-16.17
-8.92
-1.59
2.69
1.06
-7.54
-22.04
-39.47
-55.73
-66.12
-65.86
-51.61
-22.96
16.00
57.80
93.78
116.90
123.68
114.58
93.72
67.49
42.72
24.67
16.42
18.74
30.37
48.30
67.85
83.08
88.86
82.88
66.42
44.04
21.83
4.85
-4.82
-9.39
-13.12
-19.61
-30.08
-43.32
-56.76
-68.04
-76.36
-78.28
-74.15
-67.74
-62.82
-60.05
-57.54
-53.49
-47.86
-42.00
-37.07
-33.48
-30.03
-24.64
-16.25
-6.29
1.89
4.94
1.59
-6.06
-14.07
-17.83
-14.24
-3.48
10.93
23.41
28.77
24.09
10.49
-6.95
-20.91
-24.36
-12.65
14.23
51.20
89.28
117.91
129.04
119.46
92.41
56.58
23.38
2.55
-1.77
7.34
20.95
29.95
29.63
21.97
14.47
16.35
33.96
67.47
111.85
152.82
174.18
166.75
132.38
81.66
27.89
-18.39
-52.38
-74.86
-89.56
-99.35
-104.46
-103.44
-95.26
-81.17
-65.00
-51.72
-45.34
-48.68
-57.69
-66.38
-69.60
-65.04
-54.16
-41.10
-30.69
-27.07
-27.70
-32.55
-39.61
-46.00
-49.72
-50.75
-50.51
-50.74
-55.70
-63.68
-72.82
-80.53
-84.09
-81.59
-72.77
-58.62
-37.16
-13.01
10.64
31.02
46.90
58.57
66.25
70.47
70.61
65.53
53.47
34.54
9.33
-20.23
-49.99
-76.29
-98.04
-115.86
-130.84
-144.39
-156.74
-168.90
-182.75
-198.48
-211.50
-221.58
-228.60
-229.93
-221.50
-199.83
-165.61
-123.94
-77.92
-31.37
10.73
45.15
72.40
95.86
119.89
147.68
180.74
225.50
285.79
358.90
437.47
513.63
581.57
637.75
680.12
671.93
597.90
474.29
336.49
213.07
115.35
42.88
-9.21
-46.99
-76.24
-94.70
-99.55
-91.51
-75.14
-56.30
-40.86
-34.11
-40.75
-63.24
-94.72
-125.88
-150.44
-167.55
-180.04
-191.47
-204.25
-214.77
-220.26
-216.13
-201.88
-183.49
-171.20
-173.50
-192.30
-214.18
-223.38
-209.90
-174.14
-126.15
-78.31
-38.96
-10.18
10.67
27.55
41.78
51.96
56.88
56.29
51.51
45.15
39.97
38.23
40.91
46.31
51.21
52.62
49.31
42.13
33.65
26.79
23.75
25.19
29.57
34.01
35.78
33.61
27.89
20.56
14.02
10.14
9.98
13.08
17.94
22.41
24.16
20.94
11.41
-4.36
-24.06
-43.01
-55.43
-56.55
-44.79
-22.33
3.60
25.38
37.76
39.79
34.48
26.57
19.91
15.89
13.56
10.86
6.88
2.21
-1.44
-2.33
0.10
4.85
10.09
13.61
14.02
11.45
6.99
2.41
-0.69
-1.64
-0.61
2.00
6.09
11.72
18.79
25.87
30.10
28.18
18.25
1.51
-17.66
-33.16
-40.28
-37.64
-27.49
-14.06
-1.22
9.11
17.08
23.75
29.75
34.69
37.74
38.50
37.56
36.37
36.51
39.05
43.97
50.14
55.94
59.86
61.02
59.31
55.28
49.74
43.30
36.11
27.97
18.51
7.59
-4.20
-16.23
-27.51
-37.01
-44.00
-48.19
-49.79
-49.38
-47.72
-45.84
-44.14
-42.94
-42.23
-41.73
-41.01
-39.68
-37.63
-35.04
-32.42
-30.43
-29.61
-30.09
-31.45
-32.91
-33.45
-32.52
-30.31
-27.15
-23.73
-20.86
-18.34
-15.95
-13.57
-11.28
-9.09
-6.43
-2.25
4.29
13.43
22.37
27.53
25.93
16.73
1.93
-14.54
-28.65
-37.98
-42.93
-44.82
-45.11
-44.51
-41.89
-35.85
-25.76
-12.24
3.17
18.86
33.74
47.12
58.89
68.69
75.69
78.70
76.64
69.09
56.64
40.85
24.25
9.51
-1.36
-7.32
-8.49
-5.70
-0.03
7.51
16.01
24.87
33.11
39.32
41.68
38.52
28.90
13.30
-5.32
-24.91
-42.96
-57.56
-68.11
-75.17
-79.99
-83.88
-88.09
-93.65
-101.13
-109.50
-116.07
-116.66
-107.16
-85.76
-54.50
-19.00
13.41
36.62
48.37
50.35
46.63
41.17
36.05
31.37
26.24
20.28
14.14
9.23
6.49
5.72
5.61
4.27
0.57
-5.61
-13.31
-21.01
-27.35
-31.78
-34.76
-37.49
-41.27
-46.97
-54.57
-63.18
-71.47
-78.27
-83.05
-85.92
-87.54
-88.41
-88.52
-86.96
-82.46
-73.02
-57.48
-36.10
-10.47
16.77
42.95
65.74
83.90
97.29
106.67
112.92
116.39
116.89
113.96
107.89
99.70
91.49
85.96
85.49
91.43
103.86
122.02
143.18
165.21
184.37
195.77
194.85
179.46
151.31
115.82
80.25
50.40
28.81
14.28
3.73
-5.83
-15.27
-23.66
-29.89
-34.30
-39.78
-50.59
-70.43
-99.64
-133.88
-164.99
-183.66
-183.33
-162.36
-125.33
-81.71
-42.87
-18.78
-15.32
-33.03
-67.27
-109.23
-147.65
-171.80
-174.64
-155.26
-119.40
-77.10
-38.99
-12.45
0.66
3.78
3.32
5.96
16.57
37.04
66.40
100.65
133.72
156.09
161.72
149.65
124.48
94.65
68.48
51.41
44.32
43.86
44.90
43.21
36.60
25.26
12.30
0.09
-8.46
-11.17
-8.07
-2.04
2.16
-1.26
-15.13
-38.85
-69.04
-101.06
-131.03
-156.47
-175.88
-188.57
-192.25
-184.88
-166.03
-137.47
-102.31
-64.02
-25.63
11.25
44.74
74.87
102.17
126.57
147.16
162.74
172.31
175.54
173.13
166.55
158.23
150.34
144.21
140.25
137.96
136.32
134.03
131.98
128.14
121.70
112.58
101.06
87.58
72.45
55.62
36.73
13.89
-11.84
-38.89
-65.40
-89.33
-108.65
-122.07
-129.60
-132.50
-132.75
-132.16
-131.90
-131.82
-130.72
-127.13
-119.01
-104.93
-84.06
-56.49
-23.71
10.58
40.79
60.16
64.63
54.72
35.44
14.54
-0.92
-7.35
-5.62
0.53
7.08
12.06
15.72
19.26
23.46
27.79
30.95
31.84
30.50
28.06
26.36
26.92
30.00
34.71
39.52
43.05
44.71
44.82
44.47
44.99
47.22
50.91
55.17
58.83
60.74
60.44
57.91
53.39
47.05
38.75
27.89
13.94
-3.15
-22.70
-42.84
-61.92
-78.54
-91.97
-102.43
-110.88
-118.33
-125.30
-131.82
-136.60
-138.73
-137.65
-134.00
-128.24
-121.40
-114.41
-108.19
-103.47
-100.43
-98.43
-95.17
-86.97
-70.17
-43.35
-8.63
28.27
60.20
81.49
89.93
87.36
78.17
66.90
56.19
46.91
38.40
30.23
22.95
17.72
15.48
16.35
19.68
24.32
29.22
33.95
38.73
44.07
50.08
56.35
62.02
66.08
67.44
65.31
59.24
48.54
33.94
16.24
-3.51
-23.87
-43.12
-59.78
-72.86
-82.10
-88.15
-92.13
-94.95
-96.72
-96.91
-93.46
-84.65
-69.47
-47.84
-20.36
11.92
46.80
79.88
105.72
119.08
116.77
99.53
72.21
42.18
16.34
-1.44
-11.03
-14.60
-14.84
-13.44
-10.81
-7.13
-3.03
-0.14
-0.55
-5.91
-15.98
-28.02
-37.26
-37.84
-25.50
0.62
36.71
75.34
108.21
129.64
138.57
138.56
134.73
130.18
125.75
119.92
110.54
96.62
79.13
60.36
41.88
25.38
10.61
-3.36
-17.53
-31.91
-45.51
-56.76
-64.29
-67.54
-67.03
-64.31
-61.09
-58.74
-57.79
-57.94
-58.39
-58.34
-57.38
-55.64
-53.72
-52.28
-51.80
-52.34
-53.58
-55.03
-56.29
-57.20
-57.83
-58.51
-59.55
-61.17
-63.45
-66.22
-69.32
-72.63
-76.03
-79.37
-82.53
-85.23
-87.02
-87.35
-85.56
-80.92
-72.92
-61.37
-46.38
-28.43
-8.33
12.90
33.60
52.67
69.17
82.42
92.00
97.89
100.35
99.85
97.51
93.64
88.82
83.53
78.14
72.84
67.77
62.96
58.42
54.12
49.91
45.90
42.11
38.54
35.19
32.06
29.14
26.39
23.80
21.32
19.01
16.89
14.96
13.22
11.66
10.28
9.01
7.88
6.83
5.89
5.08
4.38
3.81
3.36
3.08
2.93
3.01
3.34
3.92
4.78
5.84
7.03
8.17
9.36
10.11
10.12
9.22
7.31
4.42
0.69
-3.60
-8.13
-12.57
-16.66
-20.16
-22.92
-24.91
-26.17
-26.75
-26.72
-26.14
-25.13
-23.86
-22.43
-20.98
-19.66
-18.51
-17.54
-16.60
-15.58
-14.44
-13.29
-12.21
-11.36
-10.95
-10.98
-11.24
-11.35
-10.90
-9.66
-7.72
-5.13
-2.29
0.37
2.65
4.77
7.22
10.55
15.06
20.62
27.15
34.02
40.52
46.20
51.03
55.48
60.32
66.55
75.06
86.86
101.46
116.71
129.25
135.50
133.10
121.97
104.72
81.86
57.53
35.76
18.96
7.53
0.38
-4.09
-7.17
-9.54
-11.51
-12.65
-13.07
-13.24
-13.71
-14.92
-17.02
-19.93
-23.36
-26.97
-29.90
-31.57
-31.80
-30.66
-28.53
-25.82
-22.86
-19.87
-16.90
-13.62
-9.95
-6.17
-2.78
-0.19
1.49
2.56
3.11
3.16
2.86
2.49
2.43
3.01
4.09
4.66
2.74
-4.85
-20.63
-44.67
-73.96
-103.27
-127.02
-141.10
-143.96
-136.51
-122.49
-106.32
-91.32
-79.14
-70.05
-63.83
-60.06
-58.14
-57.23
-58.06
-62.00
-69.72
-80.81
-94.34
-110.03
-128.73
-151.87
-168.62
-169.35
-149.56
-111.70
-63.15
-12.51
32.46
66.30
87.93
99.28
107.45
117.44
131.39
148.50
165.84
179.61
186.79
186.33
177.89
161.74
137.70
106.58
70.38
31.86
-6.79
-44.68
-81.99
-119.26
-148.96
-164.31
-162.18
-145.45
-120.62
-93.82
-68.59
-45.92
-25.48
-6.88
8.57
19.07
23.86
23.90
21.40
18.75
17.52
18.10
19.85
21.03
20.31
17.75
14.78
13.22
14.27
17.59
21.75
24.50
24.38
20.41
12.52
1.57
-10.75
-22.07
-29.58
-29.41
-20.44
-3.81
17.13
38.18
55.85
68.63
76.86
81.30
81.89
76.79
63.80
42.23
14.07
-16.92
-45.18
-64.79
-71.05
-62.12
-40.97
-14.92
7.17
18.02
15.08
2.01
-13.05
-21.59
-19.05
-7.07
9.10
25.55
41.52
57.71
73.35
84.09
83.10
64.51
26.63
-25.93
-81.40
-126.46
-151.74
-154.34
-137.19
-105.85
-62.24
-9.52
41.37
80.06
102.50
111.62
112.08
105.17
87.43
54.08
5.92
-54.47
-116.14
-164.71
-189.01
-185.60
-159.70
-122.37
-85.39
-54.99
-35.15
-22.65
-9.42
12.79
48.08
93.51
139.52
173.64
185.72
170.72
131.90
78.67
22.68
-25.16
-57.40
-70.74
-65.17
-42.43
-7.39
33.19
71.21
98.86
111.54
108.17
90.82
57.25
13.20
-30.68
-64.12
-81.50
-80.25
-61.12
-26.77
17.67
66.03
110.45
145.46
168.93
182.60
181.18
165.55
141.26
114.36
87.92
63.09
40.81
22.16
7.75
-3.21
-11.68
-19.30
-27.27
-35.63
-43.43
-50.92
-61.13
-77.66
-100.95
-124.87
-139.57
-136.99
-115.91
-84.55
-54.29
-36.23
-35.51
-48.74
-65.53
-74.80
-70.42
-53.38
-29.96
-7.61
8.13
15.60
16.60
14.71
12.79
11.78
11.01
9.43
6.91
4.14
2.51
3.23
6.24
10.43
14.18
16.26
16.42
15.46
14.61
15.05
17.75
23.18
31.27
41.13
50.95
58.45
61.66
59.82
53.94
46.48
40.21
36.96
36.77
38.16
39.17
38.54
36.19
32.90
29.53
26.44
23.44
20.10
16.27
12.29
8.68
5.68
3.13
0.69
-1.59
-2.90
-2.07
1.82
8.74
17.39
25.72
31.66
33.91
32.29
27.46
20.23
11.40
1.81
-7.58
-15.72
-21.78
-25.44
-27.10
-27.75
-29.16
-32.63
-38.30
-45.16
-51.63
-56.48
-59.24
-60.13
-59.56
-59.04
-59.22
-59.26
-57.22
-51.18
-40.47
-25.96
-9.49
7.11
20.50
28.65
31.76
31.96
31.64
31.64
30.78
26.43
15.60
-6.63
-42.97
-92.01
-148.28
-204.62
-255.33
-297.89
-332.98
-346.02
-328.43
-281.68
-217.41
-149.31
-86.08
-31.29
14.02
49.80
76.89
94.53
103.23
105.18
103.64
101.50
100.02
99.21
98.84
99.03
98.37
95.78
91.27
85.96
81.21
77.68
75.38
74.16
73.91
73.54
72.10
69.42
66.15
63.33
61.67
61.39
62.32
63.58
64.01
62.21
57.24
49.02
38.25
25.95
13.20
1.53
-8.90
-18.45
-27.76
-37.35
-47.16
-56.52
-64.43
-70.09
-72.93
-73.20
-71.58
-69.09
-66.98
-66.59
-69.21
-75.48
-84.30
-92.09
-93.66
-83.96
-60.74
-26.48
12.08
46.37
69.74
79.99
79.73
74.16
68.10
64.03
61.93
60.94
60.57
60.77
61.02
59.17
51.80
36.15
12.23
-16.42
-43.58
-62.58
-69.96
-66.08
-54.45
-39.46
-24.62
-11.82
-1.63
5.55
8.85
6.81
-1.18
-13.66
-26.63
-34.51
-32.11
-17.51
6.63
33.63
54.98
64.59
61.38
48.98
33.57
20.46
11.99
7.35
4.84
3.70
4.98
10.16
18.70
27.28
30.46
23.74
5.84
-19.15
-44.59
-64.40
-75.71
-78.95
-75.81
-67.40
-52.78
-31.01
-3.14
26.45
51.27
65.48
66.13
55.61
39.08
21.89
7.27
-4.15
-13.38
-21.35
-27.87
-31.91
-32.11
-28.00
-20.30
-10.63
-1.03
6.99
12.63
15.88
17.22
17.39
16.73
15.22
12.71
9.26
5.47
2.52
1.75
4.25
10.46
19.78
30.59
40.76
48.39
52.36
52.55
49.64
44.73
38.82
32.54
25.85
18.55
10.78
3.50
-1.64
-2.87
1.06
10.19
23.45
38.36
52.04
62.22
67.95
69.53
68.02
64.77
61.39
59.72
60.93
65.11
70.59
73.68
69.33
53.06
23.28
-18.77
-64.09
-102.24
-125.91
-133.27
-127.56
-114.81
-100.73
-88.85
-80.17
-74.13
-70.02
-67.25
-65.05
-62.33
-58.23
-52.47
-45.63
-38.94
-34.89
-35.32
-41.29
-51.76
-63.12
-69.92
-66.83
-51.05
-23.32
11.29
45.78
74.14
93.72
105.81
114.32
123.66
133.99
145.74
155.70
158.52
149.43
126.82
93.29
54.81
18.54
-9.95
-28.01
-36.63
-38.47
-35.86
-29.87
-20.57
-8.56
4.18
13.91
18.10
15.16
5.63
-7.79
-20.86
-29.05
-29.52
-22.30
-11.51
-3.01
-2.58
-12.79
-31.54
-52.68
-68.89
-75.07
-70.36
-58.77
-45.55
-35.00
-28.95
-26.93
-27.72
-30.89
-37.46
-44.35
-52.60
-63.61
-77.77
-93.51
-107.25
-114.48
-111.64
-97.55
-74.10
-46.35
-19.00
5.28
26.24
45.20
63.19
79.69
93.41
103.52
109.83
113.59
115.58
114.31
105.89
86.06
53.46
11.13
-33.58
-72.24
-98.36
-109.84
-109.28
-101.73
-89.65
-76.77
-63.40
-48.27
-31.01
-13.08
2.70
13.49
17.81
15.31
7.23
-4.31
-16.96
-28.01
-34.30
-32.91
-22.46
-3.42
19.34
39.78
53.60
59.62
59.64
56.67
52.88
48.49
42.38
33.60
23.23
14.38
10.50
13.24
21.18
30.38
36.32
36.04
29.46
19.83
12.23
10.70
16.93
30.01
47.26
65.30
80.76
90.01
89.68
77.26
52.79
20.69
-10.55
-31.15
-34.73
-22.06
-1.56
15.14
19.06
8.27
-11.60
-31.31
-43.35
-45.77
-40.97
-35.19
-32.71
-33.35
-33.83
-30.85
-23.89
-15.05
-7.32
-2.60
-0.97
-0.94
-0.43
1.13
2.45
1.00
-5.20
-16.49
-30.93
-44.49
-51.67
-47.58
-30.74
-5.16
20.36
36.15
35.82
19.15
-8.24
-37.28
-59.44
-70.50
-72.43
-71.70
-74.33
-82.04
-91.56
-96.52
-90.63
-70.47
-33.77
17.40
71.82
114.83
136.80
137.68
125.02
108.40
94.80
87.15
84.47
84.20
82.96
78.83
69.95
54.07
29.62
-2.80
-38.79
-69.57
-87.92
-91.32
-81.85
-64.47
-44.34
-24.96
-8.02
6.21
17.38
24.56
27.33
26.75
24.65
22.64
21.68
21.35
21.14
19.92
16.12
8.53
-3.10
-18.32
-36.28
-54.52
-72.71
-91.04
-109.51
-126.96
-140.14
-144.18
-134.65
-110.16
-73.86
-33.07
3.89
30.76
45.39
49.77
48.16
44.50
40.84
37.38
33.32
28.56
24.01
20.98
20.32
21.74
23.97
25.35
24.59
21.26
16.13
10.71
6.59
4.88
5.60
7.87
10.21
11.17
9.79
6.04
0.85
-4.34
-7.97
-9.04
-7.47
-3.96
0.31
4.39
7.62
10.18
12.89
16.99
23.56
33.58
47.71
65.80
85.87
103.62
113.13
107.98
86.37
51.58
11.69
-23.37
-45.76
-52.87
-47.89
-37.45
-28.39
-25.06
-28.40
-37.12
-48.47
-58.84
-64.38
-61.80
-49.45
-29.46
-6.78
12.73
24.64
28.02
25.51
21.50
19.57
20.89
24.14
26.47
25.08
18.02
4.79
-13.45
-34.02
-53.05
-66.36
-71.15
-66.81
-55.19
-39.65
-23.55
-8.89
3.94
15.56
26.59
36.83
45.16
49.84
49.51
44.04
35.31
26.97
23.31
27.42
39.53
56.36
72.23
81.26
79.83
68.23
49.98
29.77
11.09
-4.91
-18.96
-32.17
-43.85
-52.58
-56.17
-53.08
-43.63
-30.23
-16.41
-5.19
2.17
6.31
9.03
12.35
17.56
24.54
32.11
38.73
43.38
45.97
47.11
47.52
47.85
48.25
48.01
45.90
40.74
32.01
20.10
5.95
-9.21
-23.75
-36.10
-45.11
-50.24
-51.20
-47.95
-40.45
-29.33
-15.81
-1.14
13.19
25.51
33.86
36.87
33.84
25.24
13.48
-0.24
-14.31
-27.19
-37.82
-46.23
-52.53
-59.34
-65.37
-69.37
-70.21
-66.83
-58.78
-46.74
-33.11
-20.45
-11.14
-6.32
-6.47
-11.27
-19.98
-31.99
-43.32
-54.45
-66.29
-79.49
-93.96
-109.75
-126.60
-143.16
-156.18
-160.81
-152.63
-128.96
-91.30
-45.56
-0.70
35.02
57.11
66.06
65.98
61.27
55.14
48.57
41.23
32.74
23.75
15.72
10.00
6.94
5.19
2.96
-1.41
-8.46
-17.60
-27.34
-36.19
-43.02
-47.47
-50.25
-52.30
-54.24
-55.95
-56.91
-55.66
-51.07
-42.39
-29.43
-12.98
5.75
25.46
44.96
63.36
80.06
94.55
105.60
113.75
119.63
123.91
127.04
129.21
130.28
129.94
127.68
123.63
118.57
113.40
109.03
106.04
104.41
103.39
103.00
101.22
96.89
89.89
80.63
70.14
59.98
52.07
47.92
47.66
48.89
47.31
37.82
16.64
-16.27
-56.11
-94.64
-123.32
-136.27
-133.57
-119.84
-101.73
-84.99
-72.98
-66.77
-65.83
-69.23
-75.30
-81.26
-83.15
-77.42
-62.52
-41.14
-18.56
-0.44
9.70
11.62
7.57
0.62
-7.16
-15.23
-23.74
-32.09
-38.44
-40.44
-36.60
-27.68
-16.54
-6.96
-2.11
-3.03
-8.10
-13.85
-16.54
-13.28
-2.97
13.56
33.53
52.31
63.81
61.80
42.46
7.07
-36.72
-76.43
-99.18
-97.11
-70.98
-29.82
13.20
46.59
64.82
69.12
64.84
57.82
51.74
47.75
45.35
43.41
40.51
34.73
23.40
3.44
-27.16
-67.46
-112.57
-154.28
-183.34
-192.40
-178.61
-144.39
-97.27
-47.39
-4.23
26.50
43.56
49.39
48.09
43.63
39.55
38.25
41.28
47.77
57.26
68.89
81.49
94.31
107.99
125.66
150.44
183.03
220.05
254.64
278.35
284.43
270.31
232.44
174.79
106.66
39.13
-19.02
-63.22
-92.87
-109.59
-115.96
-115.04
-109.22
-101.12
-93.35
-87.82
-85.11
-84.63
-85.05
-85.10
-84.07
-81.23
-76.93
-72.42
-69.23
-68.35
-69.79
-72.51
-74.58
-73.60
-66.94
-53.59
-35.12
-15.84
-1.43
3.75
-1.19
-13.07
-26.10
-34.89
-37.56
-36.72
-37.58
-44.01
-55.03
-64.67
-64.48
-48.22
-15.43
27.59
70.02
100.63
111.96
102.54
76.29
40.51
3.27
-28.28
-48.64
-54.32
-44.55
-22.30
5.48
28.89
38.37
29.14
3.53
-29.12
-56.17
-67.22
-58.43
-33.09
0.17
32.18
57.08
73.40
83.13
89.77
96.36
104.77
116.21
130.42
145.40
157.28
160.82
151.60
128.17
92.77
46.90
-2.68
-48.44
-84.28
-104.53
-108.42
-101.08
-90.48
-83.44
-82.68
-85.91
-88.21
-84.21
-70.79
-48.92
-23.04
1.44
20.15
31.40
36.87
39.75
43.23
49.01
56.48
63.51
68.59
70.33
68.43
63.53
56.14
46.64
34.84
21.01
7.06
-2.98
-4.20
6.81
29.94
60.78
92.55
118.55
134.65
140.13
136.79
126.44
109.53
84.65
48.52
0.43
-57.75
-122.44
-190.29
-259.33
-328.51
-395.68
-455.97
-501.99
-526.05
-523.89
-496.69
-450.80
-395.04
-337.07
-281.06
-227.56
-175.28
-123.15
-71.83
-23.12
21.67
63.14
104.11
148.63
200.57
262.05
332.60
408.40
482.59
546.48
591.70
613.07
610.70
590.24
560.46
529.62
502.25
478.24
454.54
428.01
397.68
364.77
330.88
295.81
256.80
210.03
153.62
89.98
25.81
-29.85
-69.39
-89.63
-92.84
-85.79
-77.41
-76.45
-89.01
-116.89
-156.75
-200.37
-236.54
-254.34
-247.13
-215.62
-168.58
-120.09
-84.77
-72.52
-85.59
-118.65
-162.08
-206.28
-244.96
-276.24
-301.60
-323.99
-346.13
-369.31
-392.92
-414.23
-429.01
-432.27
-420.07
-391.06
-347.41
-294.16
-237.23
-181.30
-128.60
-79.32
-33.13
9.05
44.51
69.53
81.17
78.68
63.57
38.58
6.33
-31.22
-72.49
-114.70
-153.20
-182.08
-196.25
-193.93
-178.02
-155.28
-133.37
-117.59
-108.81
-103.90
-98.13
-87.98
-72.95
-55.24
-38.00
-23.24
-10.76
1.51
16.30
35.52
59.91
89.07
121.64
155.16
185.74
208.32
218.11
212.70
193.57
165.88
136.10
109.15
86.56
66.80
47.46
27.55
8.24
-8.40
-21.22
-31.10
-40.23
-50.29
-61.01
-70.02
-74.36
-72.35
-64.83
-54.90
-46.57
-43.13
-46.07
-54.96
-67.97
-82.57
-96.09
-106.09
-110.56
-108.00
-97.66
-79.74
-55.62
-27.96
-0.46
22.89
38.77
45.45
43.43
35.27
24.85
16.25
12.73
15.92
25.80
41.13
60.27
81.98
105.88
132.28
161.71
194.21
228.57
262.20
291.29
311.83
320.75
317.15
302.70
281.30
257.87
236.69
220.12
207.92
197.52
184.96
166.23
138.51
101.09
55.70
6.16
-42.59
-85.76
-119.85
-143.28
-156.16
-159.75
-155.61
-145.19
-129.85
-111.11
-90.76
-70.77
-52.90
-38.23
-26.91
-18.40
-11.82
-6.53
-2.33
0.61
1.93
1.63
0.07
-2.01
-3.95
-5.42
-6.63
-8.08
-10.16
-12.93
-15.93
-18.43
-19.57
-18.65
-15.16
-8.93
-0.11
10.72
22.54
33.99
43.68
50.59
54.48
56.02
56.43
56.96
58.18
59.51
59.18
54.80
44.29
27.04
4.49
-19.98
-42.07
-58.08
-66.25
-67.19
-63.33
-57.72
-52.58
-48.58
-44.85
-39.73
-31.76
-20.36
-5.99
10.16
26.64
42.19
55.97
67.46
76.50
83.01
87.02
88.66
88.28
86.35
83.48
80.17
76.57
72.49
67.43
60.97
53.07
44.23
35.30
27.22
20.62
15.58
11.75
8.64
5.97
3.85
2.63
2.67
4.19
7.50
13.20
22.25
35.50
52.85
72.57
91.15
104.22
107.90
100.36
82.39
57.23
29.38
3.22
-18.04
-32.80
-40.99
-43.56
-42.08
-38.37
-34.30
-31.55
-31.53
-35.12
-42.45
-52.74
-64.31
-75.02
-82.83
-86.47
-85.80
-81.72
-75.71
-69.05
-62.47
-55.94
-49.07
-41.59
-33.63
-25.75
-18.63
-12.73
-7.99
-4.02
-0.24
3.66
7.76
11.88
15.80
19.43
22.73
25.91
29.06
32.34
35.68
38.91
41.70
43.65
44.38
43.71
41.83
39.24
36.63
34.69
33.81
33.89
34.32
34.16
32.38
28.29
21.71
13.07
3.24
-6.85
-16.53
-25.41
-33.28
-39.88
-44.92
-48.15
-49.76
-50.36
-51.07
-52.94
-56.63
-62.12
-68.86
-75.86
-82.10
-86.61
-88.46
-87.01
-81.89
-73.27
-61.94
-49.17
-36.33
-24.54
-14.54
-6.56
-0.62
3.47
6.05
7.54
8.50
9.48
10.79
12.50
14.45
16.39
18.20
20.03
22.17
24.96
28.55
32.79
37.32
41.78
45.92
49.72
53.27
56.49
59.11
60.63
60.56
58.73
55.37
51.05
46.32
41.58
36.87
32.11
27.14
21.93
16.49
10.84
5.07
-0.65
-5.91
-10.13
-12.69
-13.32
-12.26
-10.27
-8.31
-7.10
-6.97
-7.79
-9.25
-10.94
-12.66
-14.25
-15.47
-15.85
-14.85
-12.17
-8.02
-3.08
1.77
5.63
7.76
7.86
6.34
4.08
1.96
0.63
0.50
1.77
4.28
7.14
9.40
10.93
12.72
16.31
23.17
34.24
49.62
68.22
87.39
104.28
117.40
126.85
133.34
137.43
139.40
139.26
136.28
127.92
110.72
82.04
40.89
-12.08
-74.50
-142.27
-207.34
-255.17
-274.18
-264.55
-236.35
-200.90
-165.39
-132.63
-102.96
-76.05
-52.23
-33.08
-19.96
-12.21
-7.21
-1.77
6.38
18.04
32.68
48.20
61.75
70.43
72.96
69.87
62.56
52.34
40.02
26.82
13.30
-0.65
-15.19
-29.69
-42.75
-52.85
-59.04
-61.24
-60.02
-56.63
-52.68
-49.47
-47.52
-46.62
-45.96
-44.79
-42.81
-40.08
-37.22
-35.09
-34.26
-34.88
-36.65
-38.66
-39.99
-40.15
-39.31
-38.29
-38.23
-39.87
-43.45
-48.63
-54.15
-58.33
-59.76
-57.84
-53.11
-48.14
-44.59
-43.97
-48.76
-58.51
-69.49
-75.71
-71.51
-54.36
-26.15
6.90
38.14
61.29
72.99
72.85
62.55
44.97
23.59
2.49
-13.45
-20.71
-18.74
-9.96
1.13
10.46
17.34
24.18
34.68
51.27
72.72
93.99
108.99
112.60
104.38
87.58
67.21
47.48
30.20
14.97
0.54
-13.46
-26.09
-35.61
-41.06
-43.06
-43.51
-44.66
-48.29
-54.73
-62.83
-70.55
-75.77
-77.02
-73.80
-66.41
-55.46
-41.62
-25.33
-7.05
12.29
31.65
49.63
64.99
77.00
85.62
91.51
95.57
98.43
100.18
100.90
99.95
97.18
93.15
88.91
85.55
83.89
84.37
87.10
91.82
97.13
100.27
97.45
85.14
62.07
30.48
-4.23
-35.50
-58.12
-70.35
-73.78
-71.76
-67.32
-61.84
-55.20
-47.10
-38.21
-30.06
-24.32
-21.53
-20.65
-19.93
-17.85
-14.06
-10.00
-8.15
-11.01
-20.32
-36.46
-58.02
-81.98
-103.73
-117.87
-119.90
-107.95
-84.07
-53.90
-24.77
-2.40
10.56
15.16
14.79
12.79
10.84
8.72
5.37
0.31
-5.42
-9.88
-11.25
-8.99
-4.15
1.25
5.20
6.70
6.27
5.49
6.11
9.20
14.61
20.92
26.08
28.49
27.67
24.80
22.05
21.68
25.04
31.95
40.59
48.28
52.73
52.77
49.19
44.06
39.89
38.65
41.44
48.22
57.66
67.24
73.31
72.32
61.69
41.40
14.92
-11.35
-30.59
-38.43
-35.05
-25.43
-16.52
-14.48
-21.67
-35.73
-51.18
-62.74
-67.54
-64.54
-57.23
-47.66
-37.13
-26.38
-16.15
-7.79
-3.00
-2.38
-3.64
-2.15
7.60
28.66
60.31
98.69
138.52
173.86
199.40
210.92
205.35
181.77
141.45
88.60
30.16
-20.42
-50.13
-52.65
-30.73
6.70
50.40
93.93
135.09
174.28
212.18
247.58
277.87
301.49
317.99
328.42
334.20
336.70
336.74
334.46
328.66
317.72
300.27
275.25
246.26
216.18
186.95
159.29
132.31
104.04
72.46
36.63
-2.75
-43.24
-81.77
-114.77
-138.85
-151.69
-152.27
-140.92
-119.08
-88.91
-52.91
-14.16
24.30
59.55
88.25
107.88
117.30
116.98
108.74
95.19
78.78
61.52
44.63
26.16
4.29
-21.65
-50.64
-80.69
-109.75
-136.55
-160.86
-183.56
-211.00
-248.24
-297.08
-355.40
-418.82
-483.01
-544.97
-603.43
-658.48
-718.38
-788.87
-870.83
-960.08
-1050.48
-1136.63
-1214.02
-1277.82
-1321.93
-1349.36
-1361.35
-1357.15
-1334.88
-1294.79
-1240.45
-1177.32
-1110.51
-983.69
-773.00
-489.76
-177.33
114.24
351.84
525.97
643.57
717.98
762.45
777.74
764.84
726.69
673.96
618.46
569.22
531.10
505.07
489.46
473.94
450.74
417.46
377.95
338.81
304.51
277.51
258.16
245.44
233.16
216.80
195.16
170.69
147.06
127.24
112.69
103.33
98.14
93.47
86.56
76.38
63.96
51.02
39.17
29.48
22.39
17.89
14.90
12.47
10.14
8.04
6.47
5.65
5.73
6.67
8.30
10.39
12.60
14.67
16.45
18.01
19.68
22.05
25.76
31.24
38.54
47.29
56.84
66.46
75.69
84.49
93.20
102.36
112.38
123.29
134.75
146.21
157.17
167.50
177.53
187.88
199.35
212.84
229.27
249.32
272.97
298.89
324.16
344.74
356.59
357.16
346.38
326.69
301.98
276.05
251.47
229.28
209.50
191.97
176.83
164.41
154.65
146.68
138.91
129.52
117.27
102.00
84.60
66.75
50.12
35.95
24.69
16.16
9.76
4.84
0.95
-2.26
-5.03
-7.73
-10.86
-14.93
-20.28
-26.85
-34.20
-41.52
-48.00
-53.04
-56.56
-58.85
-60.41
-61.67
-62.82
-63.72
-64.13
-63.80
-62.64
-60.69
-58.06
-54.88
-51.30
-47.52
-43.79
-40.41
-37.56
-35.26
-33.39
-31.72
-30.03
-28.22
-26.24
-24.13
-21.87
-19.42
-16.68
-13.62
-10.25
-6.64
-2.88
0.98
4.82
8.50
11.79
14.53
16.74
18.74
21.08
24.19
28.06
31.92
34.32
33.73
29.17
20.84
10.16
-0.70
-9.63
-15.40
-17.98
-18.36
-17.95
-18.01
-19.21
-21.58
-24.69
-27.86
-30.45
-31.93
-31.97
-30.48
-27.66
-23.93
-19.90
-16.17
-13.20
-11.17
-9.96
-9.22
-8.52
-7.46
-5.89
-3.89
-1.80
-0.09
0.85
0.76
-0.46
-2.78
-6.12
-10.29
-14.92
-19.44
-23.12
-25.32
-25.73
-24.54
-22.37
-20.05
-18.34
-17.64
-17.97
-19.02
-20.26
-21.16
-21.27
-20.37
-18.65
-16.56
-14.81
-14.23
-15.58
-19.33
-25.55
-33.86
-43.31
-52.51
-59.73
-63.16
-61.25
-53.03
-38.33
-18.10
5.70
30.21
52.04
67.85
74.96
71.87
58.61
37.03
10.15
-18.52
-45.67
-68.97
-87.13
-99.72
-106.70
-107.88
-102.07
-88.31
-66.60
-38.64
-7.89
21.14
44.06
57.63
60.40
54.44
43.34
31.22
21.78
17.85
21.39
33.47
53.96
81.28
115.04
153.98
196.26
239.43
280.71
317.58
348.22
371.65
387.76
400.83
416.07
438.41
470.57
511.74
557.73
602.21
638.37
639.82
588.34
477.46
317.46
132.97
-47.52
-202.69
-323.30
-410.73
-472.38
-513.86
-539.21
-549.99
-545.82
-525.49
-488.19
-435.04
-370.68
-303.41
-240.81
-188.83
-149.61
-121.37
-100.48
-83.87
-70.36
-60.43
-54.68
-50.99
-46.47
-39.52
-31.94
-28.89
-36.13
-56.43
-87.57
-122.92
-153.48
-172.43
-177.13
-169.34
-153.46
-134.22
-115.12
-98.15
-84.33
-73.76
-66.63
-62.38
-59.44
-55.07
-46.07
-29.79
-5.80
23.04
51.07
71.59
79.82
75.02
60.67
42.75
26.82
15.58
8.21
1.62
-7.64
-21.31
-38.94
-58.47
-76.90
-91.63
-100.87
-104.09
-101.67
-94.82
-85.34
-75.21
-66.52
-60.48
-57.45
-56.59
-55.84
-52.11
-42.42
-25.05
-0.42
28.99
59.61
88.01
111.94
130.75
144.90
154.83
160.48
161.29
157.02
148.39
137.33
126.56
118.90
116.47
120.33
130.58
146.57
165.00
182.32
193.81
194.32
179.93
149.65
106.18
55.38
4.26
-41.43
-78.66
-107.38
-129.07
-144.84
-153.79
-153.44
-141.23
-116.76
-83.21
-46.69
-14.25
9.08
21.86
26.37
26.03
22.67
15.02
-0.70
-28.36
-69.47
-122.05
-181.49
-242.34
-300.61
-354.76
-405.57
-454.66
-502.20
-545.27
-577.54
-591.21
-580.31
-544.37
-489.55
-426.63
-366.47
-315.31
-272.82
-233.77
-192.14
-145.05
-94.37
-44.96
-1.25
35.20
66.34
95.97
127.23
160.87
195.02
226.25
251.47
269.54
281.46
290.13
298.92
310.23
324.70
341.35
358.62
375.32
391.00
405.43
417.94
426.94
430.13
425.31
411.23
388.08
357.28
321.00
281.37
240.14
198.49
157.00
116.19
76.76
39.63
5.60
-25.04
-52.93
-79.28
-105.02
-129.87
-151.70
-167.06
-172.54
-166.22
-148.12
-120.01
-84.50
-44.03
-0.52
44.63
90.08
134.26
175.45
211.97
242.39
265.78
281.87
291.05
294.20
292.15
284.81
270.88
248.06
213.94
167.28
108.90
41.81
-29.62
-100.76
-167.91
-228.88
-282.82
-330.10
-371.79
-409.47
-444.85
-479.44
-513.67
-546.67
-576.18
-598.98
-611.73
-611.73
-597.65
-569.98
-531.16
-485.11
-436.41
-388.98
-344.98
-304.48
-266.02
-227.80
-188.81
-149.14
-109.24
-69.10
-27.63
16.96
65.80
118.22
171.23
220.08
259.98
287.78
303.07
308.17
306.96
303.03
298.37
292.83
284.51
271.12
251.20
224.93
194.23
162.57
134.42
114.55
107.04
113.78
133.48
161.21
189.61
210.86
219.07
211.64
189.39
155.49
113.92
68.37
21.91
-22.78
-62.80
-94.99
-116.52
-125.77
-123.20
-111.46
-94.65
-76.89
-60.83
-46.64
-32.27
-14.96
6.92
32.71
59.54
83.77
102.51
114.74
121.27
123.78
123.53
120.68
114.47
104.17
90.30
74.48
59.14
46.91
39.79
38.68
43.30
52.70
65.80
82.28
101.62
122.97
145.36
167.70
189.02
208.47
225.67
240.72
254.55
266.73
275.43
278.53
275.01
265.52
251.84
235.86
218.43
199.47
176.01
143.57
98.85
41.87
-24.15
-94.27
-163.72
-234.81
-301.92
-355.95
-390.36
-405.02
-403.95
-391.75
-371.52
-345.42
-314.74
-280.07
-243.29
-207.23
-174.52
-146.55
-123.99
-106.46
-93.33
-82.65
-70.14
-51.67
-24.97
7.37
40.70
68.17
83.73
84.79
73.46
55.78
37.76
22.76
11.00
1.38
-7.43
-15.51
-22.09
-26.28
-27.32
-25.14
-20.80
-15.58
-9.62
-2.49
6.74
18.25
31.66
46.14
60.72
74.64
87.67
100.23
112.44
123.48
130.11
127.62
111.61
80.01
33.89
-22.65
-83.94
-145.05
-196.51
-229.86
-241.40
-233.08
-210.37
-179.56
-145.85
-112.91
-83.44
-58.89
-40.49
-28.63
-22.38
-19.13
-15.51
-8.87
2.16
17.17
34.45
51.25
65.04
74.59
79.98
82.00
81.40
78.18
71.52
60.33
42.98
19.81
-8.34
-39.84
-71.78
-99.74
-118.04
-121.19
-106.18
-74.49
-32.55
10.04
44.10
64.34
70.65
66.93
58.42
48.71
38.77
27.44
13.35
-3.29
-20.26
-34.01
-41.51
-41.29
-33.60
-19.64
-0.70
22.18
46.51
68.67
83.88
87.43
76.87
53.61
22.91
-8.04
-32.99
-48.70
-55.33
-55.25
-51.42
-46.12
-40.71
-36.19
-33.67
-34.15
-37.84
-43.55
-49.13
-52.28
-51.66
-47.13
-39.82
-31.59
-24.34
-19.50
-17.39
-16.44
-13.38
-4.16
14.20
41.49
73.47
102.58
120.78
121.82
105.84
77.49
44.00
12.52
-13.53
-32.92
-45.85
-52.71
-53.16
-46.20
-31.76
-11.14
12.95
37.02
57.80
73.20
82.63
86.77
87.42
86.16
83.99
81.42
78.63
75.88
73.30
70.60
66.67
59.73
47.87
30.19
7.66
-17.01
-40.32
-59.37
-72.76
-80.67
-84.13
-84.37
-82.21
-78.21
-73.02
-67.36
-61.72
-55.95
-49.27
-40.70
-29.89
-17.54
-5.11
5.63
13.39
17.77
19.15
18.45
16.79
15.40
15.53
18.21
24.09
33.04
44.03
55.29
64.71
70.46
71.51
67.79
60.21
50.28
39.57
29.29
19.91
11.17
2.41
-6.96
-17.07
-27.39
-36.93
-44.54
-49.28
-50.63
-48.51
-43.20
-35.22
-25.27
-14.03
-2.09
10.06
21.99
33.35
43.96
54.04
64.18
75.09
86.88
98.33
106.87
109.37
103.76
90.45
72.75
55.77
44.19
40.03
41.75
45.04
45.02
38.54
25.41
8.12
-9.67
-24.93
-36.20
-43.61
-47.93
-49.60
-48.26
-42.86
-32.55
-17.36
1.25
20.70
38.00
50.77
57.88
59.73
57.91
54.60
51.81
50.83
51.91
54.29
56.45
56.46
52.40
42.72
26.54
3.24
-27.04
-63.09
-102.68
-142.88
-180.41
-211.81
-234.01
-244.87
-244.07
-232.37
-210.78
-180.07
-140.84
-93.85
-40.43
17.38
76.72
133.11
182.44
222.11
251.43
270.84
281.61
285.89
286.50
286.21
283.22
274.68
259.00
236.61
208.84
177.47
144.91
113.57
84.82
51.30
6.14
-51.12
-113.59
-171.91
-218.25
-247.69
-258.57
-252.15
-242.85
-242.80
-253.84
-268.61
-280.08
-287.20
-293.98
-306.00
-327.54
-374.69
-457.39
-571.48
-701.62
-833.11
-958.22
-1074.06
-1178.41
-1179.38
-1026.27
-747.84
-431.88
-152.14
63.33
217.58
324.50
398.97
453.23
481.97
481.07
457.25
426.39
402.39
390.87
390.40
396.38
403.68
397.18
367.14
316.90
261.39
216.55
193.25
192.61
208.17
229.84
241.51
233.37
207.02
173.05
142.47
120.68
107.28
99.24
93.78
86.41
75.10
61.18
47.87
37.47
30.02
24.00
18.31
13.02
7.94
3.39
0.44
0.42
3.53
8.63
13.77
17.29
18.61
18.18
17.02
16.74
18.54
22.79
28.80
34.99
39.58
41.44
40.79
38.72
37.50
38.68
42.20
46.16
47.34
42.28
28.38
4.93
-27.53
-65.96
-106.14
-142.58
-168.32
-176.48
-163.00
-129.27
-78.80
-23.96
21.08
45.30
46.73
34.22
23.24
28.35
56.41
104.83
162.53
216.83
255.82
271.91
262.97
230.64
178.16
109.17
29.09
-56.85
-131.55
-177.81
-189.69
-173.93
-142.97
-107.21
-75.33
-44.31
-10.41
27.88
65.43
92.91
102.11
87.00
46.82
-13.39
-83.54
-148.82
-190.96
-200.94
-183.62
-150.72
-111.94
-71.66
-31.28
8.69
46.36
78.98
103.88
118.15
121.44
115.60
103.19
85.74
63.92
36.79
6.63
-24.42
-54.71
-82.22
-104.92
-121.32
-131.26
-135.75
-136.96
-137.16
-138.23
-139.56
-137.17
-125.52
-100.88
-64.22
-21.17
19.98
51.94
70.86
77.45
75.97
71.30
66.49
62.04
57.19
51.54
46.02
42.22
41.27
43.11
46.33
48.86
48.72
45.29
39.50
33.47
29.40
28.57
30.90
34.87
38.30
39.36
37.46
33.18
27.90
22.85
18.35
13.87
8.48
1.93
-5.01
-11.26
-16.90
-23.43
-33.33
-48.30
-67.44
-86.92
-101.59
-107.58
-104.19
-93.55
-78.63
-60.98
-40.16
-15.21
13.05
40.07
59.41
65.64
57.67
39.42
17.97
0.16
-9.93
-12.36
-9.61
-4.50
1.19
7.35
14.60
23.31
33.02
42.62
50.85
56.97
60.98
63.41
65.10
66.72
68.53
70.87
74.38
79.75
86.62
92.71
93.79
85.29
64.27
31.10
-9.80
-51.31
-85.89
-108.15
-116.03
-110.49
-94.11
-70.41
-44.01
-20.11
-3.25
4.05
2.68
-2.77
-5.18
2.57
23.61
54.59
85.93
105.59
103.40
74.71
21.64
-48.24
-122.99
-186.05
-223.45
-229.55
-207.56
-166.27
-115.45
-63.23
-17.53
19.58
46.63
62.65
68.31
67.58
66.60
71.69
84.62
102.80
119.31
125.41
118.72
100.37
75.68
51.86
33.54
24.34
22.47
21.41
14.21
-3.45
-30.69
-60.48
-83.42
-93.07
-88.95
-76.07
-60.89
-47.83
-37.63
-28.87
-19.76
-10.19
-1.89
2.99
3.24
-0.32
-5.33
-8.73
-8.71
-5.06
0.70
6.20
9.42
9.42
6.77
3.19
0.66
0.39
2.54
6.17
9.87
12.45
13.34
12.81
11.74
11.06
11.38
12.90
15.44
18.88
23.25
28.63
35.25
43.14
51.93
60.88
69.17
75.82
80.11
81.45
79.47
73.77
64.00
49.91
31.81
10.89
-11.05
-31.74
-49.06
-61.62
-69.29
-73.19
-75.39
-77.78
-81.50
-86.43
-91.13
-93.94
-93.53
-89.83
-84.22
-79.11
-76.74
-78.84
-85.97
-96.91
-108.69
-116.83
-116.96
-105.91
-84.41
-56.97
-30.46
-11.27
-1.74
0.15
-0.27
2.68
12.22
28.17
48.40
69.93
89.75
105.25
114.43
116.47
112.91
108.33
107.13
111.85
120.51
126.40
121.58
101.28
66.74
26.83
-7.81
-29.99
-38.56
-37.70
-33.22
-28.43
-23.27
-16.07
-6.26
3.81
9.14
5.16
-9.48
-31.69
-54.94
-71.68
-76.26
-67.53
-48.88
-26.88
-8.64
1.21
1.34
-5.47
-13.55
-16.45
-9.68
7.24
30.72
54.17
70.04
72.04
57.30
28.10
-8.41
-41.94
-62.52
-63.95
-46.19
-15.40
18.65
46.56
62.74
67.23
63.75
56.50
47.46
36.53
23.15
8.08
-5.87
-15.04
-17.12
-12.46
-4.17
3.55
7.02
4.81
-1.95
-10.29
-16.73
-18.99
-17.07
-13.03
-9.85
-10.19
-15.26
-24.39
-35.35
-44.90
-49.78
-47.38
-36.46
-17.88
4.77
25.61
37.99
36.96
22.20
-1.20
-24.66
-39.63
-41.50
-31.15
-13.98
3.12
14.98
19.73
18.40
13.06
5.82
-1.05
-4.66
-1.79
9.00
25.30
40.72
47.12
38.88
16.79
-11.45
-34.31
-41.82
-30.46
-4.46
25.87
48.89
55.96
44.34
17.21
-18.13
-53.22
-80.65
-95.47
-97.06
-87.81
-71.72
-52.80
-34.36
-18.87
-7.31
0.35
5.82
12.04
21.75
35.89
52.45
66.39
73.04
69.60
56.01
34.85
9.87
-15.33
-37.70
-55.25
-65.88
-67.87
-60.65
-45.49
-25.21
-3.41
16.91
34.26
48.62
61.25
73.32
85.37
96.68
105.65
110.57
110.43
105.64
98.01
90.09
83.89
80.45
79.43
79.52
79.24
77.52
74.47
71.30
69.77
71.35
77.38
88.71
104.95
123.85
141.08
151.07
148.88
132.45
103.31
67.16
31.66
3.35
-14.64
-23.08
-25.77
-27.63
-28.74
-29.91
-31.09
-31.82
-31.71
-30.64
-28.46
-24.80
-18.92
-9.95
2.16
16.95
32.94
47.31
56.26
56.10
44.45
21.21
-11.64
-51.67
-97.04
-147.26
-203.00
-264.81
-331.47
-399.60
-464.46
-521.99
-570.62
-610.58
-642.19
-663.80
-671.31
-659.84
-627.04
-575.58
-513.36
-451.15
-398.33
-359.78
-334.81
-318.75
-305.53
-289.98
-268.90
-240.82
-204.95
-160.61
-107.69
-47.36
17.64
83.34
145.19
199.30
243.19
276.27
299.58
314.80
323.57
326.98
325.69
320.34
311.63
300.18
287.13
273.81
261.17
249.73
239.64
230.96
224.83
222.48
224.77
234.00
253.43
285.12
328.42
378.58
427.23
466.37
489.29
491.51
475.28
447.81
416.65
387.51
363.30
345.15
335.95
337.15
345.38
357.91
372.48
385.49
393.87
395.34
388.49
375.14
355.14
323.28
278.62
225.25
168.41
114.35
67.03
8.28
-66.68
-129.66
-173.93
-205.21
-223.37
-229.31
-224.17
-213.17
-203.65
-200.18
-207.12
-230.44
-268.37
-311.45
-348.99
-367.26
-358.27
-321.16
-260.96
-190.86
-130.35
-93.26
-83.68
-99.56
-129.39
-163.33
-194.38
-218.58
-236.85
-254.22
-273.36
-280.06
-285.40
-279.46
-254.81
-207.09
-137.28
-55.50
20.17
71.32
86.99
66.21
23.79
-22.07
-55.51
-68.50
-63.44
-49.09
-34.44
-24.40
-21.80
-25.96
-40.19
-69.23
-108.32
-145.78
-166.43
-161.02
-129.68
-80.15
-20.60
40.06
94.74
139.16
170.71
188.85
194.88
191.41
181.81
169.95
156.99
141.91
122.16
94.25
58.49
17.59
-23.95
-61.25
-90.12
-108.98
-118.57
-121.02
-119.43
-117.00
-116.79
-120.52
-127.41
-134.01
-134.91
-124.56
-99.62
-61.32
-15.65
28.32
62.31
82.00
88.01
84.51
76.69
68.66
62.29
57.81
54.55
51.87
49.28
46.26
42.10
36.16
28.58
20.16
12.27
6.44
3.79
5.37
11.52
21.17
31.52
38.38
37.51
26.36
5.69
-20.62
-47.04
-68.82
-83.67
-91.90
-94.89
-93.12
-85.43
-69.34
-43.36
-8.94
28.76
62.13
84.03
90.89
84.23
69.97
56.26
49.47
51.49
59.26
66.62
67.64
59.34
42.51
20.15
-4.33
-28.83
-52.92
-76.59
-98.81
-116.94
-127.31
-124.78
-107.00
-74.65
-31.08
18.92
70.69
120.99
168.84
215.58
263.83
315.18
368.57
419.10
458.77
479.24
475.16
446.76
400.14
344.97
290.57
243.05
204.11
172.04
144.10
118.52
95.07
74.40
56.76
41.00
24.98
6.52
-15.63
-41.29
-68.92
-96.58
-122.89
-147.92
-173.24
-200.88
-231.88
-265.01
-296.55
-321.45
-335.51
-337.07
-327.74
-311.41
-292.35
-273.59
-256.43
-241.02
-227.42
-216.17
-207.72
-201.73
-196.49
-189.39
-178.15
-162.07
-142.50
-122.41
-105.22
-93.44
-87.86
-87.49
-90.14
-93.39
-95.45
-95.73
-94.79
-93.73
-93.42
-94.01
-95.00
-95.84
-96.41
-97.37
-99.75
-104.40
-111.77
-121.99
-135.38
-152.84
-175.84
-205.88
-243.21
-285.85
-328.96
-365.59
-388.50
-392.48
-376.16
-342.62
-298.29
-250.61
-205.84
-167.54
-136.77
-113.16
-96.17
-85.60
-81.29
-82.41
-86.86
-91.76
-94.23
-92.35
-85.59
-74.86
-61.73
-47.61
-33.09
-17.72
-0.41
19.98
43.92
70.90
99.52
128.04
155.09
180.25
204.11
227.97
253.15
280.27
308.85
337.57
364.83
389.42
411.19
431.00
450.56
472.01
497.68
529.56
568.81
614.65
663.57
709.23
743.63
759.42
752.43
723.22
676.80
620.63
561.98
506.01
455.00
409.11
367.67
330.02
295.80
264.67
235.87
208.35
181.11
153.63
125.96
98.67
72.44
47.66
24.35
2.15
-19.36
-40.59
-61.68
-82.62
-103.35
-123.88
-144.64
-166.43
-190.20
-216.44
-244.42
-271.90
-295.25
-310.62
-315.43
-309.42
-295.08
-276.77
-259.16
-245.74
-238.01
-235.28
-235.45
-235.89
-234.03
-227.65
-214.86
-194.17
-164.72
-126.77
-82.25
-35.01
9.69
46.25
70.36
80.36
77.60
65.87
49.89
33.80
20.20
9.90
2.55
-2.74
-6.73
-9.69
-11.32
-10.75
-6.94
0.54
10.92
22.08
31.02
35.16
33.53
27.39
19.72
14.07
13.38
19.15
31.30
48.23
67.05
83.82
94.17
94.43
82.68
59.57
27.86
-8.87
-47.78
-87.45
-127.35
-166.56
-202.60
-231.73
-250.39
-256.87
-252.50
-241.15
-227.44
-214.96
-204.98
-196.49
-187.36
-175.79
-161.11
-144.00
-126.07
-109.20
-95.19
-85.48
-81.03
-82.02
-87.42
-94.67
-99.85
-98.59
-87.81
-67.46
-41.24
-15.51
3.36
11.86
11.12
6.08
2.86
5.55
14.07
24.82
32.87
34.91
30.88
23.88
18.12
16.99
21.73
31.11
42.37
52.48
59.14
61.43
59.77
55.52
50.29
45.17
40.30
35.03
28.20
18.80
6.44
-8.27
-23.51
-36.35
-43.27
-41.27
-29.25
-9.02
14.77
36.00
49.42
52.97
48.44
40.50
34.23
32.58
35.02
38.16
37.90
31.56
19.25
3.53
-12.02
-24.45
-32.46
-36.43
-37.63
-37.47
-37.16
-37.69
-40.15
-45.88
-56.12
-71.55
-91.79
-115.35
-140.01
-163.48
-183.91
-200.06
-210.98
-215.59
-212.52
-200.49
-179.29
-150.61
-118.04
-86.06
-58.46
-36.82
-20.15
-5.79
8.85
24.77
40.89
54.84
64.47
68.96
69.22
67.47
66.22
67.35
71.70
78.87
87.43
95.28
100.41
101.55
98.86
93.79
88.63
85.54
85.64
88.59
92.88
96.70
98.90
99.53
99.83
101.62
106.84
116.95
132.64
153.51
178.05
203.59
226.65
243.67
251.86
249.74
237.13
214.87
184.06
145.74
100.91
50.83
-2.30
-55.08
-103.24
-142.74
-170.84
-187.14
-193.76
-194.52
-193.83
-194.67
-197.54
-200.39
-199.92
-193.38
-180.06
-161.72
-141.97
-125.22
-115.02
-113.19
-119.76
-133.27
-151.24
-170.35
-186.72
-196.81
-199.33
-195.25
-187.84
-181.76
-181.52
-189.70
-205.51
-224.74
-241.28
-251.10
-252.16
-244.56
-229.67
-209.45
-185.81
-159.93
-132.63
-104.93
-80.52
-61.60
-47.16
-33.33
-16.31
4.12
23.90
36.20
34.79
13.84
-26.46
-79.59
-135.28
-183.92
-219.08
-237.34
-237.39
-200.46
-122.26
-16.75
88.65
168.86
212.65
222.91
210.04
184.91
155.36
122.42
86.10
47.26
11.05
-17.15
-34.58
-41.33
-39.51
-31.96
-23.19
-15.68
-8.17
3.21
22.10
47.26
75.22
101.67
123.20
136.76
142.05
143.03
145.32
152.97
166.76
184.69
203.22
219.07
229.43
233.73
236.53
244.73
264.48
298.55
345.16
397.82
447.03
482.57
496.79
489.99
467.94
438.92
410.68
389.42
379.47
383.32
400.93
407.94
384.32
319.15
215.50
87.77
-46.15
-171.76
-280.39
-369.04
-436.16
-483.81
-512.50
-522.51
-515.94
-496.92
-470.38
-440.61
-410.58
-382.10
-353.52
-321.92
-285.35
-244.02
-199.97
-155.86
-114.09
-76.32
-43.19
-12.93
17.35
50.00
85.82
124.26
164.52
206.00
248.53
292.27
337.62
383.83
427.94
464.61
488.38
496.95
491.28
474.94
453.05
430.59
410.73
394.14
378.43
360.48
339.87
316.92
291.63
264.50
236.36
208.40
182.16
157.46
133.55
112.54
95.13
78.93
60.75
37.58
7.78
-28.43
-71.28
-120.69
-172.56
-224.18
-275.92
-327.34
-376.09
-417.54
-433.30
-407.47
-357.19
-297.02
-229.45
-161.52
-100.18
-50.22
-12.66
15.27
36.38
52.86
68.14
80.95
84.81
73.87
46.00
4.09
-45.64
-97.85
-148.42
-191.16
-221.07
-235.81
-234.71
-220.56
-199.82
-181.06
-172.53
-177.84
-193.26
-212.78
-232.97
-254.25
-279.91
-312.67
-351.37
-390.06
-420.05
-433.06
-425.68
-400.32
-362.90
-320.13
-277.69
-239.63
-208.70
-185.97
-170.00
-157.04
-141.96
-120.38
-90.97
-56.29
-21.74
6.87
26.29
36.62
40.80
42.71
45.33
50.16
57.92
69.07
83.60
101.38
122.03
145.06
170.03
197.21
227.61
262.91
303.57
346.74
386.28
413.97
422.49
408.45
374.13
326.04
273.08
222.09
175.34
131.36
87.04
40.38
-8.17
-55.94
-100.89
-141.48
-171.32
-184.26
-175.82
-145.99
-99.27
-41.53
22.41
83.99
141.63
192.79
232.81
257.43
264.20
252.67
222.68
175.52
112.25
37.05
-43.64
-122.14
-191.49
-248.15
-293.06
-330.13
-351.62
-350.36
-319.44
-257.13
-169.09
-66.96
35.74
127.97
203.96
263.47
307.83
340.15
362.53
375.31
378.38
372.15
357.82
337.22
312.22
282.82
248.76
209.29
166.35
122.63
81.03
43.89
12.50
-12.80
-33.62
-52.55
-72.90
-97.49
-127.33
-159.65
-187.99
-204.53
-204.01
-187.80
-163.80
-143.09
-134.46
-140.61
-157.67
-178.69
-198.54
-216.73
-236.86
-262.98
-296.29
-334.36
-373.39
-410.72
-445.78
-478.51
-506.75
-525.22
-526.92
-506.38
-462.85
-401.27
-330.57
-260.39
-198.19
-147.60
-108.77
-79.60
-56.67
-35.86
-12.66
17.16
55.70
100.98
145.93
179.58
190.42
170.94
121.10
49.32
-29.79
-100.04
-148.50
-168.95
-162.46
-135.56
-96.92
-54.33
-12.98
24.78
58.53
88.54
114.87
137.23
155.47
170.32
183.62
197.76
214.70
235.19
258.96
285.50
314.82
347.13
381.44
414.21
438.59
445.99
429.45
387.25
324.61
252.38
182.89
125.40
83.27
54.32
33.37
15.18
-3.94
-26.59
-55.31
-92.73
-140.25
-195.62
-251.88
-298.69
-326.05
-328.83
-309.28
-276.03
-240.20
-210.52
-190.07
-176.28
-163.12
-144.76
-118.30
-84.25
-45.43
-5.11
34.51
72.96
110.92
149.53
189.32
229.69
268.79
304.07
333.09
354.21
366.75
370.41
364.65
348.35
319.88
278.24
224.03
159.99
90.81
22.24
-40.25
-92.32
-131.35
-156.52
-168.69
-170.04
-163.79
-153.73
-143.21
-134.53
-128.08
-122.08
-113.17
-97.96
-74.82
-45.18
-13.50
14.46
34.20
44.44
47.36
47.08
47.21
48.66
49.73
47.21
38.67
23.92
5.18
-14.01
-30.35
-41.72
-47.49
-47.96
-43.95
-36.32
-26.16
-14.84
-3.96
4.95
10.90
13.71
14.01
12.56
10.04
6.70
2.85
-0.67
-2.47
-1.40
2.34
6.54
7.42
1.51
-12.31
-31.70
-51.41
-65.65
-70.86
-67.16
-57.99
-47.78
-39.37
-32.78
-25.85
-16.13
-2.98
11.89
25.57
35.78
42.22
46.59
51.04
56.30
60.93
62.07
57.60
47.98
36.63
28.38
26.98
33.00
43.45
53.68
59.92
61.36
60.27
60.12
63.03
68.13
71.82
69.76
59.52
42.04
21.32
2.55
-10.44
-16.67
-18.05
-17.93
-19.19
-22.66
-27.15
-30.49
-30.99
-28.62
-24.92
-22.05
-21.54
-23.49
-26.72
-29.83
-32.23
-34.48
-38.02
-44.11
-53.03
-63.92
-75.09
-84.62
-90.90
-92.86
-89.86
-81.74
-68.87
-52.11
-32.74
-12.32
7.57
25.28
39.23
48.20
51.67
50.42
46.63
43.30
43.16
47.47
55.56
65.24
74.04
80.37
84.07
86.13
87.81
89.82
91.96
93.49
93.85
93.23
92.54
93.03
95.51
99.89
105.17
109.85
112.65
113.23
112.43
111.81
112.88
116.22
121.01
125.40
127.16
124.66
117.47
106.37
92.89
78.48
63.90
48.94
32.70
14.23
-6.65
-28.92
-50.32
-67.90
-79.04
-82.49
-79.05
-71.38
-63.11
-57.46
-56.10
-58.64
-63.04
-66.63
-67.43
-64.83
-59.78
-53.99
-48.97
-45.25
-42.27
-38.88
-34.26
-28.69
-23.45
-20.19
-19.93
-22.28
-25.56
-27.49
-26.25
-21.27
-13.37
-4.31
4.04
10.28
13.81
14.61
13.08
9.88
5.81
1.75
-1.34
-2.62
-1.48
2.26
8.12
14.91
20.89
24.14
23.21
17.56
7.83
-4.28
-16.53
-26.88
-34.17
-38.48
-41.07
-43.83
-48.50
-55.93
-65.83
-76.93
-87.61
-96.68
-103.75
-109.32
-114.33
-119.64
-125.58
-131.78
-137.43
-141.50
-143.25
-142.46
-139.56
-135.47
-131.34
-128.07
-125.98
-124.68
-123.17
-120.14
-114.35
-104.85
-91.18
-73.47
-52.65
-30.49
-9.41
7.88
19.02
22.60
18.58
8.15
-6.51
-22.99
-38.95
-52.55
-62.75
-69.60
-74.33
-78.98
-85.97
-96.90
-112.05
-129.97
-147.99
-163.25
-173.89
-179.72
-181.92
-182.22
-181.43
-178.74
-171.79
-157.75
-134.74
-102.95
-64.69
-23.47
17.35
55.81
91.58
125.40
158.18
190.32
221.84
252.75
283.47
314.54
345.93
376.32
402.99
422.55
432.16
430.54
418.22
396.95
368.68
334.95
296.97
256.12
214.47
174.65
139.06
108.97
83.93
62.04
40.99
19.10
-3.99
-27.18
-48.55
-66.17
-78.64
-85.44
-86.83
-83.59
-76.81
-67.80
-58.03
-49.04
-42.23
-38.48
-37.79
-39.18
-41.04
-41.67
-40.00
-36.03
-30.73
-25.69
-22.47
-22.07
-24.69
-29.78
-36.27
-42.79
-48.15
-51.72
-53.65
-54.89
-56.76
-60.39
-66.13
-73.42
-81.16
-88.35
-94.68
-100.58
-106.74
-113.47
-120.15
-125.42
-127.65
-125.57
-118.54
-106.24
-88.43
-64.98
-36.29
-4.03
28.68
57.83
79.88
93.16
98.68
99.76
100.41
103.64
110.31
118.99
126.89
131.17
129.97
122.78
110.30
93.91
75.12
55.44
36.09
17.98
1.62
-13.08
-26.71
-40.17
-54.28
-69.40
-85.19
-100.66
-114.51
-125.47
-132.65
-135.65
-134.50
-129.62
-121.62
-111.23
-99.14
-85.92
-72.04
-58.19
-45.36
-34.87
-28.11
-25.88
-27.88
-32.57
-37.59
-40.77
-41.18
-39.40
-37.32
-37.15
-40.42
-47.41
-57.18
-67.83
-77.49
-84.95
-89.99
-93.35
-96.35
-99.96
-103.88
-105.94
-101.86
-87.03
-58.60
-16.82
34.86
90.97
145.96
195.93
239.28
277.50
312.78
346.94
381.23
416.69
453.81
491.52
526.14
551.21
561.15
552.00
523.26
478.76
425.64
371.57
322.08
279.23
241.93
210.28
184.40
163.66
146.46
130.41
112.52
90.27
62.76
18.71
-43.13
-114.72
-182.69
-234.39
-263.50
-271.89
-266.82
-255.43
-245.01
-236.45
-226.88
-214.42
-198.84
-181.45
-165.48
-156.01
-157.69
-173.83
-203.74
-244.11
-292.53
-345.83
-393.05
-419.79
-414.23
-374.17
-308.95
-241.79
-183.52
-138.93
-108.14
-87.24
-69.15
-48.66
-22.75
9.95
49.94
96.79
146.23
189.29
217.88
229.16
229.50
224.60
217.95
211.23
205.02
198.55
190.70
181.35
170.57
157.42
139.54
115.05
83.75
47.94
10.45
-25.95
-58.82
-87.13
-112.03
-136.68
-164.51
-197.84
-236.52
-278.13
-318.09
-350.39
-369.62
-373.17
-362.07
-339.93
-311.23
-279.62
-247.51
-216.64
-188.66
-165.43
-148.47
-137.52
-129.37
-118.35
-98.42
-65.58
-19.43
37.17
99.47
162.36
221.15
271.59
309.34
330.35
331.89
313.86
279.48
234.52
185.75
139.22
99.38
68.99
49.28
39.97
38.73
41.05
40.89
32.36
11.89
-20.46
-60.89
-103.04
-139.77
-164.83
-174.01
-165.95
-142.63
-109.17
-73.00
-41.54
-19.58
-7.19
-0.21
6.96
17.57
30.10
38.59
35.70
16.48
-19.24
-66.90
-120.08
-173.17
-222.40
-264.78
-296.36
-312.17
-308.11
-283.89
-243.72
-196.39
-152.52
-120.96
-105.81
-105.38
-113.49
-122.08
-123.66
-111.53
-81.95
-35.12
24.35
89.02
150.88
203.62
243.42
269.24
284.40
294.04
303.48
316.40
334.45
356.67
379.24
395.92
390.11
352.20
285.64
208.36
142.09
99.56
78.70
67.48
52.22
25.65
-8.85
-41.71
-61.02
-62.21
-45.17
-12.91
29.36
73.22
108.12
125.46
120.53
94.31
52.75
4.82
-42.59
-81.38
-107.09
-119.88
-122.65
-119.87
-116.19
-115.64
-119.63
-124.73
-124.37
-113.31
-91.71
-65.08
-40.69
-23.30
-13.95
-10.34
-9.05
-8.06
-7.79
-9.79
-14.55
-20.55
-25.02
-25.71
-22.05
-15.02
-6.85
-0.31
2.76
2.07
-1.21
-5.22
-8.29
-9.47
-8.58
-6.19
-3.47
-1.78
-2.25
-5.60
-11.80
-20.24
-29.83
-39.08
-46.59
-51.62
-52.95
-49.42
-40.17
-25.49
-7.75
8.32
16.87
13.54
-2.18
-25.94
-50.07
-66.90
-72.29
-67.36
-57.84
-49.92
-46.73
-46.25
-42.77
-30.65
-7.68
23.70
57.81
87.71
107.94
115.09
107.68
84.93
47.14
-3.35
-61.93
-118.00
-160.42
-181.72
-181.07
-163.60
-138.05
-112.75
-93.87
-84.05
-82.34
-85.70
-88.17
-83.83
-67.97
-39.82
-2.54
37.16
71.64
95.28
104.85
101.55
88.88
71.10
51.51
33.72
20.84
15.73
20.44
34.00
55.54
80.03
104.16
126.14
147.73
172.17
202.72
241.06
284.24
328.63
369.55
402.52
413.43
393.93
343.03
267.82
192.45
125.98
71.71
30.07
-2.78
-29.75
-53.51
-77.92
-106.73
-142.58
-184.39
-224.17
-252.04
-261.68
-253.38
-232.14
-205.12
-178.20
-154.52
-136.01
-122.02
-111.42
-103.45
-97.32
-91.66
-85.08
-76.48
-65.79
-54.68
-45.28
-39.78
-39.25
-42.23
-44.10
-38.46
-19.88
13.41
57.79
103.89
140.45
159.18
157.84
140.05
112.67
82.30
53.24
27.30
5.03
-13.43
-28.08
-39.38
-48.33
-56.28
-64.00
-71.09
-75.52
-74.02
-63.11
-40.45
-6.68
33.80
73.16
101.72
111.23
98.32
66.16
22.88
-21.80
-60.39
-89.85
-109.45
-120.81
-126.60
-128.59
-126.41
-119.05
-106.68
-91.08
-74.95
-60.46
-48.64
-39.24
-31.14
-22.24
-9.67
9.01
35.46
70.03
111.04
154.19
193.89
220.59
229.32
220.34
197.92
167.68
134.25
100.19
66.18
33.09
2.85
-21.01
-35.33
-39.31
-36.33
-32.76
-35.88
-51.32
-79.91
-117.05
-153.39
-177.99
-181.42
-159.16
-112.69
-48.38
24.73
97.62
162.24
212.19
243.33
253.64
243.30
214.54
172.07
120.86
69.03
27.07
1.47
-7.42
-2.71
9.39
20.45
22.81
11.37
-13.94
-49.43
-89.56
-127.31
-157.34
-177.13
-187.86
-192.55
-195.34
-198.75
-204.56
-214.16
-226.49
-239.01
-240.31
-221.84
-181.47
-127.04
-71.48
-27.13
-4.21
1.47
-1.24
-3.30
0.37
14.61
34.68
55.53
74.90
87.95
91.72
86.71
77.94
71.57
71.77
78.01
87.69
97.48
105.28
111.94
118.85
126.61
132.56
132.35
121.90
100.83
72.13
40.84
13.30
-3.71
-6.82
3.26
22.74
46.06
69.08
89.84
108.03
124.68
141.40
157.46
169.98
174.99
169.01
151.54
125.24
95.08
66.66
44.16
28.49
17.56
9.74
2.02
-8.02
-22.15
-41.51
-66.25
-94.25
-120.89
-139.56
-146.11
-140.85
-129.22
-120.53
-123.96
-143.77
-176.59
-212.58
-239.70
-251.05
-246.02
-229.04
-207.05
-186.42
-171.55
-164.80
-167.52
-167.96
-160.62
-145.81
-128.46
-114.24
-105.22
-100.17
-96.58
-92.47
-87.79
-84.98
-84.68
-83.89
-77.34
-60.02
-30.95
5.64
42.21
70.39
83.69
80.96
68.83
55.94
50.54
54.34
62.39
69.60
71.12
65.13
53.79
42.61
36.84
39.46
50.31
68.13
93.59
126.17
163.27
199.93
229.21
243.83
239.67
217.13
177.52
130.87
85.92
47.56
17.45
-4.04
-18.26
-25.58
-26.46
-22.73
-16.63
-12.31
-14.10
-24.31
-42.90
-67.76
-94.96
-120.02
-139.09
-148.97
-149.51
-143.37
-135.19
-130.78
-135.07
-149.59
-171.19
-192.29
-203.12
-196.32
-169.73
-126.78
-75.81
-26.75
12.76
39.20
53.52
59.59
62.11
61.29
59.31
59.06
63.80
76.99
100.79
134.42
173.73
212.07
242.70
261.82
268.99
266.68
258.46
247.43
235.34
222.98
210.83
199.39
188.96
178.54
165.94
149.02
126.99
100.99
73.27
45.40
17.16
-12.77
-45.20
-78.66
-108.89
-130.38
-139.29
-135.22
-121.85
-105.33
-91.37
-83.36
-81.35
-82.51
-82.80
-78.87
-69.53
-56.09
-41.67
-29.52
-21.43
-16.93
-13.61
-8.48
0.52
13.49
28.77
43.83
56.25
64.40
67.58
65.80
59.65
50.21
38.93
27.35
16.68
7.39
-0.95
-9.40
-19.01
-30.14
-42.03
-53.05
-61.34
-65.74
-66.42
-64.75
-62.53
-60.90
-59.68
-57.39
-52.43
-44.16
-33.38
-22.00
-11.77
-3.45
3.24
8.79
13.12
15.13
13.47
7.66
-1.24
-10.87
-18.71
-23.45
-25.55
-26.65
-28.46
-31.57
-35.32
-38.52
-40.28
-40.51
-39.64
-37.95
-34.94
-29.60
-20.93
-9.00
4.63
17.44
26.85
31.32
31.06
27.79
23.84
21.37
21.39
23.53
26.58
29.02
29.87
29.27
28.38
28.78
31.79
37.58
45.15
52.70
58.32
60.79
59.97
56.69
52.25
47.86
44.09
40.87
37.79
34.32
30.31
26.03
21.97
18.35
14.75
9.96
2.59
-8.05
-21.39
-35.60
-48.88
-60.64
-72.53
-88.06
-111.21
-144.52
-188.12
-240.03
-297.20
-356.43
-414.39
-467.10
-509.21
-535.30
-541.53
-527.77
-498.34
-460.33
-420.54
-382.77
-347.25
-312.02
-275.44
-237.42
-198.69
-159.01
-115.55
-63.61
0.76
77.73
162.65
247.10
322.20
382.12
425.69
456.06
478.75
499.60
523.05
551.39
583.84
616.46
642.73
655.22
648.70
622.24
580.20
530.65
482.67
443.30
415.99
400.81
395.38
396.33
399.96
402.53
399.81
387.62
362.26
321.68
265.75
196.01
115.80
29.26
-59.39
-147.29
-232.88
-315.08
-391.53
-457.56
-506.46
-531.15
-527.41
-496.37
-446.01
-388.52
-335.87
-295.40
-267.75
-248.41
-230.01
-210.18
-189.35
-171.87
-161.65
-159.48
-160.73
-157.98
-145.78
-125.10
-98.80
-68.25
-32.31
12.86
70.48
139.83
213.53
278.02
317.39
318.77
276.93
195.13
83.89
-42.94
-171.82
-292.20
-396.77
-480.06
-536.90
-562.46
-554.11
-513.09
-445.55
-360.67
-268.78
-178.81
-97.19
-27.98
26.24
63.12
80.61
78.15
59.34
31.14
2.58
-17.63
-23.09
-10.77
18.11
57.94
99.43
133.60
152.61
152.92
136.86
112.77
92.60
86.90
100.12
128.97
167.80
210.93
256.77
307.41
366.10
433.99
507.69
579.52
622.62
616.51
554.30
448.27
321.94
197.20
86.29
-8.13
-88.53
-157.65
-212.01
-249.97
-269.33
-270.47
-256.99
-233.76
-204.78
-172.30
-137.57
-99.61
-59.04
-17.34
23.07
60.49
94.99
127.53
158.30
185.90
209.31
227.66
241.55
250.56
252.49
243.38
219.15
178.04
122.46
59.55
-2.11
-54.59
-95.07
-124.57
-146.08
-162.09
-173.44
-179.39
-178.46
-170.07
-153.28
-129.69
-101.78
-72.52
-44.75
-21.12
-3.98
4.40
1.01
-9.27
-22.61
-35.08
-44.28
-49.46
-50.96
-49.17
-44.13
-44.51
-50.48
-62.03
-78.76
-100.67
-127.26
-158.10
-193.44
-226.52
-254.51
-274.55
-286.19
-289.34
-284.99
-273.79
-256.34
-233.50
-206.46
-177.86
-149.04
-121.75
-96.82
-75.45
-58.35
-46.01
-39.42
-40.07
-50.46
-72.05
-106.36
-145.65
-183.76
-215.50
-236.68
-243.68
-232.89
-202.62
-154.38
-94.87
-34.36
15.24
45.80
55.80
49.54
32.87
12.65
-6.04
-20.04
-26.91
-25.13
-12.96
11.14
47.34
94.17
146.32
196.99
240.30
272.71
292.79
301.76
302.64
298.70
292.64
286.11
279.50
272.37
263.97
257.54
252.73
249.55
248.10
248.20
248.63
247.09
240.53
226.29
197.44
155.71
106.62
56.35
10.36
-27.49
-55.06
-72.04
-80.41
-84.72
-91.26
-107.04
-137.37
-182.11
-234.04
-280.76
-309.29
-312.06
-290.30
-254.35
-214.93
-180.88
-155.59
-136.87
-119.78
-99.75
-75.63
-49.28
-23.07
1.71
25.02
48.16
71.94
95.43
116.38
131.35
137.80
136.17
129.83
123.35
121.50
127.79
140.39
158.70
181.34
205.61
227.92
242.92
244.09
226.82
191.00
141.74
88.47
42.21
7.66
-13.65
-23.13
-24.67
-23.34
-24.18
-31.33
-46.53
-69.40
-96.93
-123.51
-143.34
-152.55
-150.25
-138.19
-120.37
-99.33
-79.80
-66.48
-61.44
-63.13
-66.07
-62.43
-45.75
-14.82
24.82
61.58
82.52
79.17
50.37
1.89
-57.11
-118.28
-176.56
-229.32
-273.97
-305.96
-319.70
-312.72
-289.27
-260.58
-240.35
-237.97
-253.24
-276.47
-293.43
-292.48
-270.04
-231.16
-185.44
-141.57
-103.58
-70.78
-40.37
-10.34
19.21
46.63
70.54
91.26
111.02
133.07
160.16
193.05
229.67
265.60
295.32
314.05
319.39
312.13
295.66
274.50
252.48
231.45
211.20
190.40
168.01
144.31
121.03
100.59
84.86
74.30
67.83
63.47
59.32
54.34
48.64
43.08
38.58
35.48
33.46
31.77
29.75
27.22
24.47
22.00
20.11
18.68
17.19
15.07
11.94
7.94
3.68
-0.02
-2.39
-3.02
-2.01
0.14
2.71
4.89
6.01
5.62
3.67
0.51
-3.18
-6.68
-9.48
-11.55
-13.28
-15.34
-18.29
-22.29
-26.93
-31.36
-34.64
-36.10
-35.59
-33.60
-30.93
-28.45
-26.70
-25.78
-25.33
-24.83
-23.97
-22.74
-21.46
-20.45
-19.78
-19.18
-18.15
-16.20
-13.12
-9.11
-4.66
-0.46
2.90
5.13
6.28
6.75
7.11
7.87
9.05
10.06
9.63
6.34
-0.72
-11.40
-24.31
-37.23
-47.94
-54.82
-57.12
-54.72
-47.71
-36.28
-21.00
-3.19
15.10
31.54
44.40
53.29
59.22
63.96
68.86
74.07
78.43
80.23
78.08
71.65
61.67
49.45
36.14
22.41
8.61
-4.86
-17.13
-26.98
-33.32
-35.93
-35.86
-35.28
-36.75
-42.19
-52.10
-65.24
-79.06
-90.59
-97.52
-99.02
-95.88
-90.05
-83.65
-77.98
-73.10
-67.94
-61.13
-51.77
-39.96
-26.73
-13.52
-1.54
8.55
16.54
22.52
26.48
28.42
28.39
26.68
23.80
20.45
17.24
14.59
12.65
11.33
10.34
9.31
7.85
5.73
2.96
-0.14
-3.07
-5.26
-6.28
-5.99
-4.43
-1.82
1.73
6.16
11.47
17.55
24.06
30.45
35.97
39.86
41.54
40.75
37.44
31.72
23.75
13.72
2.09
-10.33
-22.34
-32.58
-39.91
-43.73
-44.12
-41.74
-37.47
-32.06
-26.08
-19.90
-13.90
-8.57
-4.34
-1.43
0.30
1.32
2.28
3.63
5.46
7.55
9.53
11.05
12.09
12.82
13.49
14.26
15.08
15.83
16.44
16.97
17.63
18.56
19.76
20.95
21.77
21.86
21.12
19.73
18.03
16.36
14.95
13.91
13.19
12.77
12.62
12.70
12.91
13.05
12.92
12.42
11.57
10.54
9.58
8.86
8.36
7.98
7.47
6.62
5.35
3.74
2.06
0.61
-0.32
-0.67
-0.61
-0.50
-0.70
-1.39
-2.39
-3.18
-3.06
-1.50
1.57
5.74
10.22
14.13
16.86
18.23
18.49
18.15
17.73
17.56
17.69
17.97
18.06
17.61
16.32
14.03
10.82
6.87
2.42
-2.35
-7.37
-12.69
-18.34
-24.30
-30.49
-36.73
-42.59
-47.42
-50.25
-50.08
-46.29
-39.25
-30.50
-22.51
-17.57
-16.76
-19.28
-22.86
-24.91
-23.82
-19.68
-14.05
-8.86
-5.27
-3.14
-1.41
0.97
4.15
7.18
8.46
6.73
1.85
-4.91
-11.46
-15.74
-16.58
-14.20
-9.94
-5.72
-3.15
-3.02
-5.18
-8.87
-12.94
-16.16
-17.26
-15.22
-9.75
-1.64
7.09
13.87
16.71
15.31
11.37
7.84
7.46
11.30
18.33
25.97
31.60
33.78
32.71
29.65
25.91
22.20
18.42
14.20
9.49
4.90
1.56
0.63
2.63
7.19
13.02
18.38
21.57
21.56
18.19
12.22
5.00
-2.03
-7.75
-11.66
-13.78
-14.41
-13.89
-12.40
-10.03
-6.98
-3.66
-0.70
1.20
1.60
0.51
-1.49
-3.48
-4.53
-4.10
-2.24
0.46
3.18
5.30
6.64
7.53
8.54
10.10
12.29
14.74
16.94
18.41
18.98
18.77
18.00
16.77
14.91
11.98
7.62
1.81
-4.98
-11.80
-17.53
-21.26
-22.58
-21.68
-19.26
-16.18
-13.24
-10.98
-9.63
-9.15
-9.28
-9.63
-9.75
-9.29
-8.09
-6.26
-4.05
-1.74
0.53
2.74
4.94
7.09
8.98
10.33
10.90
10.59
9.56
8.09
6.49
5.01
3.84
3.06
2.68
2.52
2.31
1.75
0.64
-1.01
-2.95
-4.79
-6.17
-6.95
-7.25
-7.36
-7.55
-7.94
-8.37
-8.50
-7.94
-6.47
-4.11
-1.23
1.68
4.20
6.07
7.33
8.11
8.53
8.56
8.12
7.17
5.85
4.45
3.32
2.75
2.84
3.52
4.56
5.74
6.82
7.61
7.93
7.69
6.97
6.04
5.27
5.03
5.46
6.49
7.84
9.19
10.40
11.79
14.03
17.80
23.44
30.65
38.56
45.89
51.32
54.04
54.14
52.62
51.02
50.66
52.19
55.50
59.76
63.61
65.77
65.65
63.61
60.71
58.19
56.97
57.35
58.36
57.24
49.90
32.08
1.02
-43.47
-99.01
-161.36
-222.74
-273.17
-303.54
-309.30
-292.06
-257.54
-212.12
-161.06
-108.47
-58.13
-13.65
21.88
46.95
62.17
70.02
73.98
76.18
76.53
73.22
64.28
48.82
27.78
3.81
-19.15
-36.65
-45.08
-42.35
-28.32
-4.71
25.38
59.69
95.46
130.77
165.51
200.80
237.38
274.15
307.11
329.52
334.04
316.33
278.21
228.58
180.66
146.79
133.08
136.49
146.14
148.94
136.41
108.74
74.13
43.75
25.77
21.64
26.49
32.70
34.15
28.63
17.19
1.54
-18.31
-45.02
-82.46
-133.44
-197.83
-271.93
-349.99
-426.34
-496.72
-557.76
-605.89
-636.50
-645.60
-632.89
-603.93
-569.37
-540.61
-524.29
-518.72
-514.94
-501.79
-472.06
-425.77
-368.82
-308.90
-251.69
-199.88
-154.87
-118.86
-94.61
-83.95
-85.45
-93.63
-101.08
-101.94
-94.30
-80.47
-64.59
-48.73
-32.85
-15.43
4.75
27.18
49.63
69.38
84.29
94.53
104.33
118.59
141.57
176.25
224.05
284.64
355.33
429.83
500.44
562.48
612.06
647.14
667.92
676.63
677.10
673.65
668.62
663.90
663.13
665.62
666.94
661.28
645.30
621.34
597.24
581.16
550.43
488.94
388.26
253.23
98.93
-57.40
-201.95
-317.77
-408.23
-476.75
-520.58
-537.79
-529.75
-502.73
-466.63
-432.80
-410.73
-405.11
-412.05
-418.57
-410.43
-376.81
-314.14
-226.94
-125.92
-24.35
64.67
133.80
183.34
217.25
240.33
255.15
261.02
255.11
235.19
201.14
157.18
110.57
67.70
32.00
3.20
-21.44
-44.95
-68.97
-93.51
-116.97
-137.31
-153.30
-164.44
-170.44
-170.87
-165.08
-152.66
-133.91
-109.62
-81.12
-50.03
-18.17
12.37
39.15
59.75
72.37
76.46
73.00
64.17
52.71
41.01
30.56
21.88
14.80
8.94
3.96
-0.31
-3.96
-7.10
-9.85
-12.40
-14.93
-17.55
-20.23
-22.69
-24.36
-24.58
-22.80
-18.77
-12.78
-5.58
1.79
8.28
13.12
16.07
17.49
18.09
18.70
19.97
22.15
25.07
28.34
31.55
34.43
36.94
39.13
41.07
42.70
43.87
44.42
44.26
43.26
41.20
37.46
31.12
21.20
7.07
-11.19
-32.60
-55.52
-77.93
-97.87
-113.71
-124.36
-129.39
-129.01
-124.13
-116.20
-106.84
-97.55
-89.33
-82.64
-77.50
-73.70
-70.99
-69.09
-67.65
-66.19
-64.21
-61.35
-57.71
-53.87
-50.79
-49.43
-50.27
-53.13
-57.20
-61.47
-65.15
-67.96
-70.14
-72.09
-74.05
-75.79
-76.69
-75.92
-72.71
-66.62
-57.66
-46.25
-33.10
-19.11
-5.19
8.03
20.50
32.88
46.59
63.50
85.32
112.81
145.37
180.96
216.57
248.92
275.08
293.15
302.59
304.21
299.66
290.76
278.99
265.26
250.10
233.64
216.11
197.96
179.63
161.29
142.83
124.18
105.66
88.08
71.31
54.62
36.74
16.51
-6.34
-30.79
-54.48
-74.27
-87.08
-92.84
-93.16
-90.60
-87.37
-84.71
-83.09
-82.57
-83.30
-85.77
-93.90
-111.55
-140.18
-177.09
-216.22
-251.21
-278.35
-297.56
-310.99
-324.26
-340.84
-360.33
-379.58
-396.05
-411.00
-429.28
-455.98
-469.20
-448.37
-381.39
-273.24
-143.12
-12.51
103.83
200.35
278.62
343.87
398.22
441.57
473.28
493.74
505.76
512.38
515.75
517.05
516.57
511.30
496.99
470.66
431.93
382.96
327.09
267.55
206.54
144.45
85.65
32.34
-13.35
-49.02
-72.02
-80.39
-73.42
-51.91
-17.91
24.81
70.97
115.84
155.43
186.94
208.44
218.82
217.62
205.21
182.55
150.59
111.16
66.22
17.95
-31.46
-80.20
-126.87
-170.20
-209.02
-242.65
-270.54
-293.74
-313.55
-331.29
-348.14
-365.11
-382.73
-400.68
-418.03
-433.14
-446.74
-459.05
-469.62
-477.92
-484.39
-491.28
-502.03
-519.62
-544.59
-577.16
-612.14
-639.98
-650.76
-638.77
-604.97
-555.84
-499.99
-444.75
-399.03
-366.02
-342.98
-323.61
-301.60
-273.05
-236.95
-194.43
-118.24
-2.39
138.88
278.70
393.88
474.34
521.25
541.03
541.19
528.50
503.84
468.98
427.64
384.99
344.95
309.05
276.82
247.31
219.09
189.39
158.63
130.56
110.69
103.50
110.48
130.05
158.76
192.52
223.98
248.40
264.53
273.72
278.16
279.71
279.75
279.02
277.21
271.13
256.48
229.39
188.70
137.31
82.13
31.92
-6.13
-28.95
-38.73
-40.52
-39.41
-38.23
-37.22
-35.29
-31.66
-26.91
-22.59
-20.17
-20.09
-21.54
-22.93
-22.49
-19.01
-12.20
-2.73
8.29
19.51
29.76
38.15
44.42
48.14
49.08
47.05
41.56
32.20
18.62
0.90
-20.23
-43.28
-67.05
-90.71
-113.55
-134.15
-149.55
-155.61
-148.41
-126.57
-92.98
-54.58
-19.82
4.58
16.34
17.84
14.22
10.43
8.95
9.10
8.44
4.79
-2.43
-11.85
-21.10
-28.07
-31.66
-32.18
-31.12
-30.21
-30.19
-30.86
-30.75
-27.87
-20.64
-8.66
7.36
25.88
44.96
62.26
74.53
77.68
67.83
43.33
7.15
-32.71
-65.05
-79.83
-72.57
-46.60
-11.60
20.91
42.11
48.98
43.84
31.79
17.47
3.31
-10.20
-22.81
-33.20
-39.34
-39.03
-31.61
-18.50
-2.84
11.88
23.01
29.95
34.24
37.94
42.68
48.75
54.94
59.11
58.99
53.12
39.46
20.25
-1.63
-23.63
-44.16
-62.74
-79.49
-94.82
-108.75
-121.35
-131.68
-138.91
-142.45
-142.26
-138.94
-133.07
-125.49
-116.94
-107.87
-98.04
-87.37
-75.88
-63.80
-51.60
-39.22
-26.66
-13.66
0.33
16.37
35.45
58.54
86.70
116.71
146.82
175.73
202.53
226.71
248.08
266.35
281.18
292.52
300.88
308.08
315.86
325.07
334.85
342.68
345.31
340.10
326.07
303.91
275.73
243.61
209.38
174.99
142.92
115.90
95.88
82.82
74.23
66.66
57.08
44.51
30.44
17.92
10.27
9.94
17.75
32.60
51.62
70.30
83.27
86.01
76.37
55.49
27.35
-2.93
-30.87
-53.74
-70.57
-81.46
-86.84
-87.53
-85.02
-81.81
-80.92
-84.92
-94.98
-110.55
-129.87
-150.89
-172.37
-194.27
-217.59
-243.80
-274.33
-310.23
-351.64
-397.33
-443.96
-486.13
-517.74
-534.16
-534.42
-521.74
-502.04
-481.00
-461.24
-441.48
-418.02
-387.52
-349.22
-305.18
-258.62
-211.80
-164.81
-116.22
-64.87
-11.36
41.93
92.19
137.73
178.88
217.24
254.15
289.13
319.44
340.81
349.13
342.29
320.90
288.46
250.54
213.53
183.37
164.23
157.41
160.84
169.26
175.48
172.53
155.95
125.52
85.44
43.03
6.38
-18.38
-28.98
-27.35
-18.45
-8.10
-0.77
1.75
0.23
-3.01
-5.61
-6.29
-4.98
-2.26
1.12
4.61
7.64
9.16
7.81
2.47
-6.93
-18.82
-30.23
-37.93
-39.69
-35.22
-26.33
-16.16
-8.07
-4.58
-6.70
-13.87
-24.27
-35.39
-44.77
-50.70
-52.59
-51.27
-48.75
-47.48
-49.69
-56.24
-65.86
-75.39
-81.07
-80.20
-72.76
-61.54
-50.88
-44.91
-46.26
-56.09
-74.92
-103.09
-139.91
-182.11
-222.88
-252.90
-263.63
-251.21
-218.61
-174.64
-130.11
-93.47
-68.06
-52.24
-41.68
-32.01
-20.05
-3.70
18.91
49.56
88.98
135.51
184.50
229.27
263.03
281.33
283.32
271.52
250.42
224.83
198.63
174.58
154.47
139.36
129.44
123.70
120.08
116.23
110.68
103.69
97.12
93.29
93.55
97.17
101.39
102.73
98.69
89.09
76.20
63.79
55.58
53.83
58.80
69.00
81.97
95.04
105.96
113.23
116.40
116.20
114.36
112.96
113.36
115.31
116.71
114.32
105.13
87.77
63.16
34.15
4.28
-23.34
-46.77
-65.14
-78.28
-86.27
-89.38
-88.21
-83.71
-77.12
-69.46
-61.41
-53.26
-45.37
-38.56
-34.14
-33.38
-36.76
-43.44
-51.39
-58.24
-62.51
-64.41
-65.62
-68.31
-73.60
-80.76
-87.39
-90.61
-88.69
-81.88
-72.36
-62.98
-55.88
-51.49
-48.66
-45.54
-40.73
-34.06
-26.54
-19.72
-14.87
-12.39
-11.79
-12.09
-12.45
-12.46
-12.26
-12.22
-12.54
-13.06
-13.34
-12.94
-11.77
-10.17
-8.81
-8.32
-9.04
-10.86
-13.31
-15.81
-17.89
-19.35
-20.26
-20.83
-21.33
-22.00
-22.97
-24.30
-25.91
-27.59
-29.04
-29.94
-30.05
-29.31
-27.85
-25.92
-23.90
-22.16
-21.01
-20.69
-21.29
-22.63
-24.28
-25.63
-26.18
-25.84
-25.17
-25.11
-26.39
-28.94
-31.58
-32.30
-29.19
-21.36
-9.36
4.95
19.27
31.70
41.37
48.50
54.01
59.13
65.09
73.07
83.99
98.51
116.72
138.23
162.32
188.24
215.49
243.65
272.15
299.78
324.63
344.34
356.89
361.30
358.00
348.68
335.77
321.61
307.72
294.39
280.63
264.61
244.39
218.65
187.24
151.23
112.68
74.01
37.19
3.44
-26.79
-53.49
-76.61
-95.77
-110.25
-119.15
-121.72
-117.88
-108.47
-95.16
-80.31
-66.30
-54.96
-47.07
-42.41
-39.81
-37.74
-34.75
-29.90
-23.10
-15.45
-9.29
-8.07
-15.00
-31.59
-56.24
-83.77
-106.63
-117.17
-110.12
-84.63
-45.10
0.21
41.51
70.44
82.75
79.11
63.86
42.76
20.94
2.06
-10.83
-14.62
-6.39
14.98
46.78
81.67
110.01
123.88
120.92
105.62
86.93
73.83
71.62
80.30
96.12
114.31
131.14
144.48
153.22
156.21
152.14
140.14
120.12
93.36
62.31
29.40
-3.79
-37.07
-71.66
-109.22
-150.82
-196.27
-243.79
-290.60
-333.97
-372.24
-405.44
-435.54
-465.98
-500.50
-541.37
-587.36
-632.75
-668.15
-683.22
-670.56
-628.87
-563.47
-484.38
-402.28
-324.74
-254.43
-189.81
-127.20
-63.12
4.27
74.45
144.23
207.95
258.37
288.70
295.16
278.81
245.16
201.86
155.55
109.57
63.90
16.94
-32.36
-83.23
-133.40
-179.96
-220.02
-250.67
-268.81
-271.85
-259.02
-232.68
-197.98
-161.26
-127.49
-98.51
-73.28
-49.69
-26.59
-4.77
13.97
28.42
39.08
47.79
56.14
64.04
69.56
70.37
65.82
58.13
51.88
51.92
60.79
77.30
97.11
114.65
125.46
127.51
121.04
107.74
89.72
69.18
48.69
31.19
19.45
14.67
15.62
18.63
19.07
13.47
1.30
-14.81
-30.62
-42.68
-50.28
-55.35
-60.73
-67.92
-75.97
-81.89
-82.52
-76.54
-65.35
-52.80
-42.64
-36.55
-33.37
-30.02
-23.39
-12.04
2.97
18.54
29.28
31.04
22.40
5.20
-16.62
-38.65
-57.67
-72.49
-84.05
-97.57
-117.71
-146.46
-182.41
-221.86
-260.82
-296.37
-327.33
-353.91
-381.77
-415.51
-456.14
-500.48
-542.97
-578.56
-604.66
-621.55
-631.30
-641.88
-658.07
-678.55
-696.36
-702.96
-692.90
-666.30
-628.29
-546.18
-407.81
-222.09
-16.69
175.66
332.10
444.97
518.13
560.83
578.47
575.04
552.87
515.38
469.12
422.69
384.17
359.38
351.49
361.31
382.66
407.44
427.55
435.55
424.81
391.21
335.70
266.56
197.95
143.84
113.50
108.36
121.91
143.07
160.99
168.79
165.86
155.28
141.86
127.70
112.41
95.02
76.53
61.45
55.94
67.11
98.28
150.82
219.78
296.20
370.58
436.65
493.78
544.19
593.38
644.82
703.63
770.66
842.24
911.10
968.23
1006.02
1018.33
1005.76
938.41
803.97
611.42
390.18
175.80
-6.94
-136.01
-221.01
-272.99
-301.52
-310.78
-306.91
-302.14
-307.90
-332.64
-377.75
-438.62
-501.75
-551.89
-573.06
-557.55
-509.44
-443.83
-382.16
-343.43
-338.40
-362.99
-402.52
-435.72
-445.12
-423.00
-373.02
-307.35
-239.75
-181.40
-136.58
-104.74
-81.72
-64.80
-52.83
-44.88
-41.17
-40.35
-37.85
-26.75
-1.79
37.54
84.92
128.80
157.29
163.31
148.67
123.53
101.80
94.62
105.99
132.59
166.74
200.64
228.92
249.28
260.54
261.07
248.77
222.15
182.50
134.38
84.27
37.89
-1.04
-31.16
-52.33
-63.62
-62.38
-45.53
-13.25
29.25
70.56
97.50
101.65
83.12
49.41
11.01
-23.25
-49.20
-66.97
-80.48
-93.54
-108.87
-128.26
-152.34
-180.27
-206.07
-223.45
-226.99
-214.67
-188.62
-153.67
-115.15
-76.95
-41.22
-9.07
17.71
37.42
49.24
54.37
56.28
59.40
67.24
80.90
99.01
116.78
128.86
131.20
122.49
104.20
79.36
51.19
21.57
-7.68
-36.37
-64.83
-93.55
-122.52
-150.89
-176.37
-194.97
-201.62
-191.95
-164.95
-124.03
-76.83
-32.76
0.51
19.62
26.14
24.91
20.83
16.39
11.48
4.51
-5.73
-18.87
-33.13
-46.29
-56.83
-64.37
-69.91
-74.03
-76.60
-76.47
-71.62
-59.93
-39.97
-11.87
22.33
58.67
92.85
121.27
141.95
154.73
161.09
163.19
163.02
161.97
160.95
160.67
161.25
161.66
159.20
149.94
130.39
99.48
60.01
18.28
-18.19
-43.83
-56.98
-59.99
-57.18
-52.51
-47.92
-43.39
-38.24
-32.34
-26.70
-22.74
-21.22
-21.63
-22.53
-22.01
-18.63
-12.08
-2.98
7.27
17.42
26.78
35.43
43.69
52.09
60.40
67.70
72.34
72.52
66.85
54.80
37.01
14.84
-9.29
-33.27
-55.51
-75.31
-92.84
-108.67
-124.03
-138.39
-150.77
-159.17
-161.63
-156.55
-143.27
-122.58
-96.47
-67.46
-36.99
-8.24
18.53
42.92
64.04
80.31
89.52
89.39
78.74
58.37
30.28
-2.00
-34.66
-63.70
-84.79
-93.56
-86.49
-62.53
-24.05
22.58
69.46
109.45
138.81
158.26
171.36
181.35
187.58
188.12
177.84
154.07
118.56
77.50
39.23
10.63
-5.55
-10.95
-9.86
-6.84
-3.88
-0.62
4.13
11.18
20.13
29.61
38.44
46.51
54.44
63.16
73.00
82.46
89.15
90.79
86.00
74.98
59.12
39.76
17.03
-7.16
-33.80
-64.83
-101.88
-144.70
-190.32
-233.38
-267.67
-288.02
-292.02
-281.44
-261.13
-237.99
-219.30
-211.14
-216.48
-233.99
-257.78
-279.31
-291.34
-291.09
-281.83
-271.13
-266.49
-270.90
-280.96
-288.83
-286.67
-270.85
-242.91
-207.57
-169.36
-130.07
-89.04
-45.04
1.54
47.87
89.98
125.04
153.01
176.83
200.76
227.59
256.73
283.93
302.86
307.94
296.83
271.21
235.97
197.07
159.71
127.35
101.53
82.37
69.03
60.03
53.58
47.65
40.34
30.13
16.29
-0.91
-20.10
-38.79
-53.87
-62.71
-63.76
-57.06
-43.82
-25.70
-4.13
19.50
43.53
65.64
83.30
94.96
100.75
102.50
102.54
102.46
102.80
103.61
105.40
109.61
117.89
130.54
145.45
158.12
163.39
158.07
142.82
122.26
103.10
91.07
88.00
90.98
93.65
88.90
72.24
43.88
8.67
-25.68
-51.66
-64.95
-65.69
-58.13
-48.50
-42.35
-42.55
-48.60
-57.20
-63.79
-64.46
-57.24
-42.68
-23.46
-3.27
14.28
26.99
34.57
38.81
42.86
49.83
61.09
75.02
86.88
90.62
81.79
60.08
30.13
-0.08
-22.51
-32.50
-30.16
-19.39
-5.32
8.30
20.04
29.87
37.78
43.03
44.68
42.87
39.55
37.59
38.82
42.46
44.88
41.44
29.29
9.28
-14.10
-34.90
-48.71
-54.87
-56.62
-59.34
-67.88
-84.32
-107.23
-132.31
-154.08
-168.05
-172.22
-168.13
-160.85
-157.89
-166.78
-192.07
-232.80
-281.80
-327.62
-358.37
-365.82
-347.80
-307.91
-253.00
-189.92
-123.53
-56.45
9.66
72.95
131.02
181.93
225.46
263.77
300.77
340.84
387.35
441.55
501.94
563.75
619.64
661.04
680.41
673.85
642.59
592.72
532.95
471.61
414.25
362.84
316.81
274.75
235.94
200.57
169.26
142.08
118.08
95.65
73.64
52.45
34.17
22.08
18.57
23.44
32.91
40.84
41.53
32.78
17.41
1.99
-6.58
-4.86
5.34
17.96
25.76
23.61
10.18
-12.55
-41.16
-72.49
-104.41
-135.60
-164.86
-191.18
-214.11
-234.37
-253.92
-275.39
-301.10
-332.47
-369.19
-408.72
-446.08
-474.17
-485.31
-474.20
-440.99
-392.87
-342.11
-301.36
-278.34
-272.98
-278.87
-288.38
-297.85
-309.52
-328.93
-359.43
-397.73
-433.53
-453.76
-448.49
-415.26
-359.58
-291.26
-219.78
-151.29
-88.09
-30.10
23.04
71.13
113.69
150.55
182.86
213.22
245.14
282.09
326.01
375.76
426.34
469.79
497.59
503.66
486.75
450.53
401.49
345.70
286.94
227.00
168.24
116.10
79.76
69.56
92.28
146.91
223.09
303.77
370.83
411.04
419.53
400.08
361.59
313.66
263.17
213.23
164.45
117.09
72.49
32.94
0.39
-25.16
-46.34
-67.25
-91.60
-120.88
-153.80
-186.79
-215.69
-237.50
-251.43
-259.20
-264.43
-271.79
-285.52
-307.69
-336.73
-366.79
-388.77
-392.83
-371.52
-322.36
-248.96
-160.45
-69.30
11.34
70.29
100.51
100.21
72.78
25.60
-32.22
-92.40
-149.34
-200.74
-247.14
-290.58
-333.42
-377.42
-422.56
-466.24
-503.12
-526.05
-528.39
-506.57
-461.60
-398.86
-326.02
-250.35
-176.84
-107.87
-44.03
14.75
68.59
117.90
163.81
208.25
253.64
302.23
355.54
413.77
475.06
534.99
586.90
623.03
636.92
625.67
591.15
539.42
478.47
415.53
355.24
299.38
247.80
199.70
154.36
111.01
68.52
25.27
-20.37
-69.36
-121.33
-174.89
-228.13
-279.46
-328.51
-376.49
-425.98
-479.78
-539.07
-601.51
-660.60
-706.87
-730.97
-727.34
-696.60
-645.40
-583.75
-521.15
-463.51
-412.32
-365.86
-321.63
-278.10
-235.30
-194.04
-154.94
-117.80
-81.71
-45.60
-8.54
30.05
70.04
110.31
148.50
181.18
204.54
215.56
212.95
197.63
172.73
142.89
113.58
90.20
77.47
78.47
93.79
120.75
153.81
186.13
211.81
228.32
237.05
242.33
249.09
260.59
277.21
296.68
315.01
327.75
330.98
321.56
297.50
258.64
207.20
147.72
86.00
27.31
-25.24
-71.05
-111.31
-147.42
-179.88
-207.85
-229.49
-242.73
-245.68
-236.87
-215.44
-181.93
-138.93
-91.45
-46.32
-10.00
13.66
24.91
27.76
27.88
29.88
35.55
43.64
51.37
56.52
58.86
60.15
62.82
68.40
76.33
84.36
89.64
90.26
86.16
79.14
72.38
69.35
73.06
85.27
106.11
133.89
165.20
195.41
219.68
234.08
236.39
226.57
206.25
178.13
145.25
110.57
76.90
46.73
21.94
3.31
-9.55
-17.88
-23.05
-26.00
-27.11
-26.45
-24.21
-20.91
-17.13
-13.48
-10.57
-9.28
-10.93
-16.59
-26.43
-39.06
-51.48
-60.06
-62.47
-59.23
-53.75
-51.02
-54.90
-66.18
-82.26
-98.46
-109.85
-113.72
-110.53
-103.49
-97.30
-95.48
-99.23
-107.45
-117.26
-124.72
-127.11
-123.71
-115.70
-105.98
-95.54
-83.66
-68.93
-49.90
-24.48
8.34
48.55
95.16
143.65
189.99
228.65
252.20
254.20
233.35
192.53
138.38
79.46
21.02
-29.14
-64.62
-83.28
-86.31
-75.45
-54.58
-28.26
-0.73
21.35
39.05
57.23
80.73
90.07
69.27
11.74
-73.72
-141.35
-182.13
-198.38
-193.76
-184.97
-178.80
-174.55
-169.34
-160.63
-148.29
-138.83
-134.67
-136.04
-142.56
-151.28
-156.63
-153.49
-138.66
-111.98
-79.45
-44.78
-10.70
20.10
46.64
69.49
89.19
105.69
118.04
122.51
118.04
105.22
85.42
61.44
36.62
13.81
-5.18
-19.94
-32.19
-42.91
-52.47
-60.85
-67.32
-70.92
-70.98
-67.35
-60.45
-51.48
-41.09
-29.24
-15.30
1.92
23.45
49.80
80.62
114.79
150.53
185.98
219.60
250.70
279.68
308.27
339.15
374.90
416.34
461.01
502.70
532.66
542.16
525.39
481.43
414.52
332.47
244.44
158.87
82.16
18.33
-30.91
-66.01
-89.18
-103.74
-113.15
-119.89
-124.53
-125.76
-121.01
-107.63
-83.93
-49.94
-7.47
40.19
88.80
133.62
169.76
192.52
198.09
184.53
152.73
106.89
54.01
2.33
-40.83
-70.91
-86.95
-91.21
-87.76
-80.86
-73.55
-67.20
-61.67
-55.99
-49.30
-41.49
-33.30
-26.16
-21.51
-20.22
-22.24
-26.68
-32.26
-37.92
-43.27
-48.61
-54.48
-60.99
-67.35
-71.80
-72.27
-67.00
-55.14
-36.81
-12.85
15.37
46.03
76.73
104.57
126.39
139.66
143.30
138.17
127.01
113.65
101.93
94.37
91.31
90.72
88.93
82.11
67.92
46.45
20.21
-7.07
-32.05
-52.88
-69.30
-81.77
-90.42
-94.59
-93.06
-85.01
-70.73
-51.79
-30.48
-8.82
12.07
32.12
51.80
71.25
89.60
104.55
112.72
110.67
96.13
69.01
31.75
-11.24
-54.82
-94.57
-127.68
-152.97
-170.28
-179.67
-181.11
-174.55
-160.59
-140.73
-116.99
-91.10
-63.67
-34.39
-2.75
30.72
63.81
93.01
114.64
126.23
127.20
118.77
103.29
83.46
61.98
41.46
24.24
12.07
5.58
3.75
3.89
2.08
-5.71
-22.65
-50.32
-88.39
-134.57
-184.55
-232.17
-270.19
-291.49
-290.91
-266.86
-222.05
-162.60
-96.14
-29.32
33.66
90.58
140.09
180.47
209.41
224.48
224.35
209.53
182.37
146.84
106.51
64.06
21.37
-19.54
-55.95
-84.02
-99.05
-96.62
-73.55
-30.54
28.17
96.22
166.97
234.55
293.76
339.53
366.77
371.94
352.51
309.06
246.13
171.38
92.97
17.30
-51.94
-117.92
-176.90
-222.16
-247.55
-251.64
-238.00
-212.93
-182.19
-149.57
-116.61
-82.18
-46.46
-10.54
23.85
55.40
81.94
101.57
113.02
115.97
111.69
99.95
80.22
52.22
16.54
-26.93
-77.21
-132.61
-191.69
-245.79
-289.40
-319.12
-333.42
-332.33
-319.27
-298.26
-273.28
-247.83
-224.83
-208.40
-202.22
-208.72
-215.23
-213.32
-199.52
-176.40
-149.32
-122.72
-99.81
-81.69
-67.91
-57.11
-49.44
-44.68
-42.21
-41.05
-40.42
-40.46
-41.43
-43.52
-46.89
-53.01
-61.83
-70.72
-74.56
-67.54
-46.25
-11.57
31.09
73.76
108.09
129.47
138.04
137.36
131.59
123.21
112.59
99.08
82.73
64.38
45.91
29.08
14.72
2.48
-8.33
-17.99
-25.78
-29.90
-28.64
-21.07
-8.08
7.94
23.51
35.42
41.65
42.06
38.52
34.33
33.47
38.56
49.39
62.22
70.24
65.55
41.97
-1.90
-62.01
-129.43
-193.44
-244.32
-275.06
-283.08
-270.56
-244.14
-211.58
-180.17
-154.53
-136.63
-125.26
-116.06
-104.47
-87.70
-66.55
-40.87
-13.83
14.01
42.74
73.12
107.68
147.29
189.74
228.08
257.25
274.43
280.41
277.42
268.70
259.94
255.62
257.53
261.76
265.65
265.93
258.81
238.88
186.38
94.67
-25.27
-130.04
-197.10
-216.55
-193.39
-136.32
-59.06
23.87
103.21
173.62
232.23
274.01
297.71
304.53
298.80
285.99
271.92
262.27
258.15
255.28
244.39
220.42
183.54
138.96
93.15
51.38
17.16
-9.03
-28.93
-46.38
-62.76
-77.95
-91.67
-105.06
-120.43
-138.72
-158.52
-175.87
-186.89
-189.19
-185.05
-181.07
-185.08
-200.79
-223.93
-243.58
-247.63
-229.49
-191.55
-143.87
-98.13
-61.66
-34.41
-10.20
18.93
58.57
110.39
171.63
235.81
294.94
341.33
368.90
374.49
358.11
322.62
273.52
216.30
154.87
92.14
30.80
-25.98
-74.54
-112.18
-137.95
-152.22
-158.46
-162.55
-169.92
-184.04
-205.67
-233.47
-266.37
-303.97
-345.85
-385.86
-418.45
-439.32
-448.19
-449.03
-447.15
-446.28
-454.75
-466.45
-472.54
-466.59
-446.04
-413.03
-373.17
-328.40
-283.64
-242.34
-203.90
-167.13
-131.68
-97.97
-67.04
-39.56
-15.10
7.10
28.48
51.34
76.05
101.43
125.77
147.77
167.04
184.18
199.72
214.49
229.82
245.85
261.96
277.70
293.33
310.04
329.34
351.36
374.30
394.31
405.79
403.53
384.90
351.17
307.02
258.96
212.94
173.18
141.84
119.21
104.55
96.55
93.36
92.60
91.63
88.15
81.03
70.59
58.24
45.91
35.22
26.99
21.26
17.52
15.01
13.01
10.98
8.57
5.75
2.77
0.13
-1.72
-2.58
-2.58
-2.23
-2.11
-2.63
-3.87
-5.63
-7.57
-9.36
-10.80
-11.84
-12.55
-13.09
-13.69
-14.51
-15.70
-17.34
-19.40
-21.82
-24.53
-27.47
-30.50
-33.41
-35.65
-36.68
-36.09
-33.87
-30.56
-27.15
-24.78
-24.07
-24.85
-25.70
-24.76
-20.36
-11.86
-0.04
13.15
25.06
33.49
37.55
38.48
38.68
40.71
46.27
55.39
66.74
78.09
87.27
92.60
93.85
91.34
86.21
81.20
80.85
90.57
114.00
150.14
191.89
228.68
249.30
246.50
220.02
176.01
123.78
71.22
22.22
-29.34
-86.55
-147.76
-206.37
-253.43
-282.37
-291.34
-283.41
-264.21
-239.50
-212.83
-186.33
-161.72
-139.94
-122.06
-108.20
-96.59
-83.78
-65.96
-42.00
-13.62
13.58
32.69
38.73
31.04
12.94
-10.68
-35.90
-60.66
-84.37
-107.03
-127.75
-144.95
-156.97
-162.61
-161.75
-155.21
-143.96
-128.20
-107.54
-81.12
-48.45
-11.10
28.07
65.38
97.08
120.37
134.24
139.45
138.19
133.28
127.18
121.51
116.85
113.06
109.82
106.73
103.03
97.28
87.87
73.79
55.63
35.68
17.14
2.72
-6.57
-11.57
-14.26
-16.34
-18.35
-19.58
-18.97
-16.05
-11.38
-6.21
-1.53
2.37
5.99
9.99
14.69
19.51
23.20
24.66
22.66
17.13
9.07
0.18
-7.88
-14.21
-19.21
-24.38
-31.62
-42.15
-55.32
-69.00
-80.13
-86.00
-85.41
-79.11
-69.21
-58.11
-47.63
-38.47
-30.69
-24.10
-18.78
-14.99
-12.91
-12.35
-12.65
-12.99
-12.60
-11.21
-9.02
-6.57
-4.50
-3.20
-2.67
-2.68
-2.71
-2.32
-1.36
-0.08
1.21
2.21
2.78
3.13
3.67
4.97
7.48
11.47
16.86
23.51
31.19
39.70
48.77
57.91
66.34
72.87
76.15
74.97
68.68
57.45
42.32
25.02
7.47
-8.85
-23.17
-35.48
-46.18
-55.69
-64.06
-71.13
-75.94
-78.22
-78.12
-76.43
-74.24
-72.49
-71.84
-72.75
-75.73
-80.73
-86.92
-91.78
-91.47
-82.18
-62.21
-33.44
-1.29
27.26
46.61
54.65
53.22
46.59
39.14
33.56
30.55
29.88
31.58
36.21
44.01
53.94
63.14
67.88
65.22
54.39
37.70
19.58
4.86
-3.26
-4.17
0.22
6.61
11.82
13.88
12.48
8.61
3.85
-0.31
-2.80
-3.28
-2.07
0.02
2.09
3.37
3.41
2.16
-0.08
-2.77
-5.37
-7.41
-8.62
-8.96
-8.59
-7.69
-6.45
-4.96
-3.23
-1.29
0.88
3.25
5.63
7.66
8.81
8.57
6.77
3.80
0.65
-1.40
-1.35
0.90
4.47
7.85
9.79
9.89
8.88
7.93
7.98
9.01
10.26
10.68
9.71
7.62
5.40
4.18
4.43
5.71
6.99
7.13
5.50
2.12
-2.48
-7.50
-11.97
-14.79
-14.80
-11.20
-4.02
5.48
15.08
22.29
25.51
24.72
21.63
18.92
19.03
23.05
30.20
38.19
44.21
46.18
43.56
37.49
30.10
23.46
18.72
15.84
14.00
12.31
10.51
8.86
7.80
7.35
6.81
4.91
0.41
-7.28
-17.67
-29.28
-40.02
-47.84
-51.25
-49.80
-44.16
-35.95
-27.30
-20.23
-16.05
-14.97
-16.09
-17.75
-18.23
-16.36
-12.12
-6.56
-1.42
1.69
2.09
0.45
-1.46
-1.51
1.84
8.80
18.12
27.62
35.06
39.02
39.35
37.10
33.98
31.49
30.23
29.58
28.02
23.91
16.39
5.96
-5.54
-15.74
-22.74
-25.89
-25.87
-24.14
-22.08
-20.36
-18.97
-17.59
-16.12
-14.80
-14.03
-13.98
-14.41
-14.82
-14.85
-14.57
-14.44
-14.99
-16.34
-18.03
-19.23
-19.18
-17.68
-15.17
-12.56
-10.85
-10.72
-12.36
-15.56
-19.94
-25.07
-30.54
-35.94
-40.84
-44.83
-47.70
-49.37
-49.95
-49.48
-47.85
-44.87
-40.46
-34.89
-28.75
-22.91
-18.09
-14.58
-12.07
-9.81
-6.97
-2.99
2.23
8.27
14.40
19.79
23.70
25.56
25.10
22.49
18.35
13.63
9.39
6.37
4.67
3.69
2.37
-0.29
-4.73
-10.59
-16.97
-22.85
-27.61
-31.14
-33.72
-35.74
-37.49
-39.12
-40.68
-42.15
-43.31
-43.63
-42.30
-38.45
-31.57
-21.88
-10.44
1.16
11.31
19.02
24.10
27.17
29.17
30.95
32.91
35.06
37.16
39.01
40.69
42.32
44.04
45.68
46.95
47.53
47.38
46.85
46.50
46.76
47.69
48.90
49.73
49.54
48.05
45.34
41.88
38.26
34.91
31.87
28.79
25.06
20.07
13.59
5.98
-1.68
-7.98
-11.63
-11.92
-9.18
-4.62
0.05
3.33
4.44
3.50
1.37
-0.80
-2.11
-2.28
-1.65
-1.04
-1.28
-2.95
-6.05
-10.07
-14.19
-17.60
-19.81
-20.76
-20.69
-19.89
-18.49
-16.59
-14.30
-12.02
-10.34
-9.81
-10.51
-11.92
-13.12
-13.24
-12.03
-9.99
-8.14
-7.43
-8.24
-10.15
-12.16
-13.19
-12.51
-10.10
-6.53
-2.74
0.38
2.25
2.69
1.95
0.48
-1.16
-2.55
-3.51
-4.23
-5.14
-6.78
-9.53
-13.31
-17.54
-21.28
-23.54
-23.73
-21.98
-19.13
-16.37
-14.68
-14.42
-15.17
-16.03
-16.10
-15.03
-13.07
-10.83
-8.81
-7.04
-5.13
-2.67
0.35
3.41
5.73
6.91
7.36
8.26
11.05
16.43
23.85
31.44
36.95
38.86
37.31
34.16
32.13
33.41
38.47
45.64
51.71
53.12
47.29
33.45
12.99
-11.04
-34.70
-54.24
-67.05
-72.24
-70.66
-64.37
-55.79
-46.97
-39.21
-33.23
-29.57
-28.84
-31.69
-38.46
-48.76
-61.46
-74.92
-87.41
-97.33
-103.37
-104.42
-99.58
-88.37
-70.88
-47.92
-20.96
8.14
37.41
64.88
88.71
107.25
119.23
124.16
122.50
115.68
105.70
94.57
83.81
74.21
65.98
58.99
52.94
47.56
42.57
37.76
33.13
28.87
25.23
22.33
19.94
17.58
14.74
11.25
7.38
3.70
0.67
-1.66
-3.62
-5.66
-7.93
-10.10
-11.52
-11.57
-10.10
-7.50
-4.56
-2.05
-0.35
0.69
1.59
2.90
4.84
7.06
8.72
8.83
6.72
2.37
-3.56
-9.94
-15.70
-20.21
-23.52
-26.20
-28.93
-32.06
-35.47
-38.59
-40.85
-41.98
-42.27
-42.37
-42.97
-44.48
-46.78
-49.44
-52.04
-54.55
-57.46
-61.55
-67.35
-74.66
-82.40
-89.03
-93.22
-94.57
-93.77
-92.24
-91.52
-92.54
-95.45
-99.78
-104.85
-109.97
-114.36
-116.92
-115.91
-109.31
-95.36
-73.59
-45.36
-13.74
17.37
44.58
66.03
81.73
93.07
101.85
109.44
116.38
122.64
128.10
132.90
137.44
141.86
145.69
147.70
146.43
140.78
130.78
117.61
103.33
90.16
79.80
72.96
69.26
67.54
66.34
64.32
60.69
55.18
48.03
39.71
30.67
21.05
10.69
-0.77
-13.55
-27.40
-41.41
-54.21
-64.37
-71.00
-74.10
-74.56
-73.73
-72.80
-72.27
-71.84
-70.59
-67.52
-62.05
-54.33
-45.08
-35.29
-25.82
-17.14
-9.38
-2.52
3.35
7.95
11.07
12.89
14.16
16.13
19.93
25.96
33.49
40.84
46.12
48.16
46.96
43.63
39.68
36.29
33.83
32.08
30.51
28.76
26.70
24.31
21.47
17.98
13.64
8.58
3.29
-1.51
-5.15
-7.33
-8.22
-8.38
-8.41
-8.69
-9.25
-9.83
-10.11
-9.90
-9.26
-8.43
-7.59
-6.71
-5.55
-3.77
-1.14
2.34
6.47
10.97
15.56
20.02
24.15
27.72
30.47
32.23
32.96
32.68
31.44
29.18
25.87
21.59
16.79
12.24
8.83
7.20
7.41
8.89
10.71
11.98
12.23
11.55
10.52
9.76
9.69
10.26
11.06
11.51
11.19
9.92
7.85
5.40
3.06
1.30
0.47
0.79
2.38
5.14
8.73
12.51
15.64
17.20
16.67
14.10
10.25
6.33
3.49
2.23
2.14
2.10
0.82
-2.48
-7.83
-14.55
-21.67
-28.33
-33.81
-37.36
-38.09
-35.19
-28.58
-19.44
-10.18
-3.64
-1.88
-5.28
-12.31
-20.36
-26.88
-30.39
-30.86
-29.35
-27.22
-25.46
-24.29
-23.35
-22.06
-20.13
-17.69
-15.13
-12.80
-10.66
-8.28
-5.09
-0.85
4.12
9.10
13.41
16.86
19.82
22.86
26.21
29.66
32.68
34.85
36.19
37.20
38.64
41.09
44.62
48.63
52.10
53.89
53.35
50.49
46.04
41.15
36.83
33.49
30.89
28.36
25.29
21.52
17.27
12.80
8.16
3.17
-2.20
-7.51
-12.08
-15.46
-17.80
-20.06
-23.58
-29.44
-37.90
-48.25
-59.11
-68.96
-76.50
-80.81
-81.18
-77.07
-68.14
-54.59
-37.25
-17.65
2.30
20.75
36.34
48.30
56.45
60.94
62.08
60.25
56.00
50.13
43.71
37.76
32.83
28.82
25.03
20.64
15.22
9.17
3.55
-0.38
-1.76
-0.61
2.20
5.35
7.58
8.24
7.41
5.74
4.08
3.06
2.78
2.94
3.06
2.78
2.16
1.60
1.58
2.28
3.49
4.81
5.95
6.99
8.30
10.21
12.65
15.05
16.63
16.86
15.85
14.22
12.69
11.65
11.03
10.51
9.87
9.13
8.31
7.27
5.60
3.04
-0.15
-3.05
-4.57
-4.17
-2.35
-0.48
0.01
-1.31
-3.56
-5.14
-4.84
-2.81
-0.43
0.66
-0.30
-2.61
-4.52
-4.43
-1.91
2.18
6.45
10.02
13.08
16.64
21.53
27.56
33.36
37.07
37.15
32.96
24.59
12.57
-2.42
-19.38
-36.80
-52.75
-65.52
-74.33
-79.84
-83.81
-88.11
-93.59
-99.57
-104.19
-105.38
-101.77
-93.23
-80.69
-65.62
-49.49
-33.60
-19.01
-6.51
3.53
11.26
17.31
22.46
27.14
31.23
34.13
35.18
34.12
31.30
27.48
23.49
19.82
16.55
13.53
10.69
8.28
6.78
6.65
7.91
10.04
12.04
13.02
12.56
11.05
9.38
8.44
8.51
9.04
9.04
7.68
4.85
1.22
-2.29
-5.06
-7.06
-8.73
-10.37
-11.87
-12.73
-12.54
-11.40
-10.03
-9.34
-9.85
-11.36
-13.01
-13.75
-12.82
-10.05
-5.72
-0.39
5.36
11.11
16.65
21.93
27.06
32.19
37.44
42.79
48.05
52.92
57.11
60.39
62.55
63.39
62.59
59.84
54.90
47.76
38.73
28.40
17.59
7.26
-1.68
-8.52
-12.99
-15.26
-15.94
-15.82
-15.65
-15.89
-16.65
-17.73
-18.83
-19.74
-20.49
-21.29
-22.40
-23.97
-25.79
-27.37
-28.13
-27.73
-26.19
-23.93
-21.41
-18.93
-16.44
-13.69
-10.51
-7.03
-3.65
-0.94
0.66
0.96
0.13
-1.39
-3.09
-4.48
-5.30
-5.47
-5.07
-4.35
-3.57
-2.94
-2.52
-2.32
-2.35
-2.68
-3.26
-3.85
-3.98
-3.15
-0.98
2.50
6.64
10.27
12.11
11.45
8.53
4.40
0.50
-1.85
-1.84
0.30
3.47
6.05
6.89
5.86
3.85
2.29
2.63
5.87
11.66
18.24
22.98
23.99
21.02
15.14
7.90
0.72
-5.18
-9.21
-11.60
-13.77
-17.63
-25.68
-41.13
-67.19
-105.58
-150.27
-189.49
-210.07
-205.79
-179.83
-140.61
-96.21
-51.18
-7.22
34.91
73.05
105.54
128.95
140.89
141.70
132.63
115.64
92.19
62.10
30.32
4.62
-8.41
-6.04
9.76
32.12
53.93
70.22
78.69
79.21
71.02
51.80
20.03
-22.27
-69.93
-113.62
-137.83
-133.74
-101.68
-51.19
3.42
46.91
79.11
101.17
122.43
151.65
190.95
235.27
273.81
294.75
290.77
262.58
215.70
157.23
95.83
37.35
-14.48
-56.46
-84.43
-93.68
-80.94
-47.90
0.18
55.87
111.38
160.97
201.16
229.90
246.12
250.33
244.90
235.45
228.96
230.49
241.40
259.13
278.72
295.11
304.99
306.91
301.22
288.71
269.71
244.66
214.68
181.91
149.13
119.24
93.99
73.91
58.01
44.28
30.62
15.63
-0.78
-17.49
-32.44
-43.57
-49.19
-48.56
-41.99
-30.63
-16.19
-0.56
14.30
26.72
35.23
38.69
36.26
27.69
13.38
-5.60
-27.65
-51.10
-74.45
-96.59
-117.13
-136.28
-154.69
-172.95
-191.34
-209.42
-226.08
-239.46
-247.27
-247.22
-237.37
-216.66
-184.98
-143.52
-94.54
-41.28
12.60
63.33
107.46
142.41
166.41
178.86
180.13
171.59
155.16
133.12
107.71
80.87
54.22
28.91
5.49
-15.73
-34.65
-51.25
-65.50
-77.40
-87.14
-95.09
-101.88
-108.32
-115.16
-122.82
-131.33
-140.27
-148.91
-156.60
-163.11
-168.88
-174.88
-182.32
-192.20
-204.95
-220.35
-237.66
-256.21
-275.76
-296.83
-320.52
-348.09
-380.22
-416.61
-455.91
-496.37
-535.46
-571.45
-603.41
-631.17
-655.41
-677.51
-699.26
-721.99
-745.47
-765.85
-776.49
-769.35
-737.75
-679.55
-598.60
-503.90
-406.55
-316.96
-240.11
-177.78
-129.18
-92.86
-67.95
-54.02
-49.99
-52.96
-60.12
-63.10
-56.35
-36.45
-3.15
40.26
87.93
132.76
168.33
186.16
189.83
181.11
164.19
144.61
128.08
118.76
117.71
122.37
120.50
113.40
96.11
66.71
27.07
-17.71
-60.86
-95.50
-116.56
-130.48
-128.13
-113.18
-91.18
-67.73
-46.77
-30.09
-18.35
42.47
75.93
87.75
74.94
40.14
-6.98
-52.18
-81.98
-88.78
-72.91
-49.89
-17.72
18.69
58.90
104.90
157.47
213.83
268.32
315.07
344.42
365.63
383.29
402.24
424.56
448.24
467.94
477.80
474.45
454.46
428.03
403.41
389.26
392.15
413.68
449.90
491.60
526.60
541.10
530.11
493.78
440.16
382.96
336.51
310.47
306.30
317.29
331.08
336.97
327.84
302.58
264.94
220.32
173.15
125.55
78.12
31.72
-11.26
-47.18
-73.13
-88.78
-97.24
-104.25
-116.17
-137.88
-171.11
-215.38
-268.54
-327.64
-388.79
-446.87
-496.30
-532.60
-554.19
-562.93
-563.07
-558.78
-552.00
-541.84
-526.01
-503.05
-473.72
-440.60
-406.41
-372.24
-337.02
-298.66
-255.78
-209.00
-160.95
-115.15
-74.66
-41.17
-14.55
7.16
27.10
48.52
73.83
103.72
136.78
170.48
201.95
229.30
252.40
272.68
292.66
315.23
342.98
377.43
418.07
461.43
500.83
527.51
533.20
512.99
467.46
402.58
327.30
250.17
176.42
106.92
39.04
-30.92
-105.19
-182.54
-257.89
-323.46
-371.07
-394.91
-393.58
-370.58
-332.88
-288.16
-242.30
-198.21
-156.30
-115.97
-76.84
-38.98
-2.39
33.42
69.08
104.23
136.51
161.63
174.89
173.32
157.24
130.45
98.86
68.40
43.28
25.52
15.33
11.94
14.22
20.85
30.32
40.96
51.52
61.43
70.95
80.73
91.09
101.57
110.95
117.72
120.48
118.26
110.53
97.09
78.17
54.63
28.01
0.55
-25.47
-48.49
-68.15
-85.34
-101.69
-118.65
-136.49
-154.00
-169.06
-179.68
-185.12
-186.16
-184.54
-181.53
-176.85
-168.48
-153.59
-130.15
-98.11
-59.57
-17.93
23.56
63.10
100.59
137.14
174.27
213.19
254.72
299.79
349.91
406.87
471.62
542.35
613.32
675.25
717.81
733.18
719.07
679.65
623.73
561.26
499.85
443.04
390.69
340.92
291.95
243.09
194.53
146.70
99.64
53.11
6.81
-39.34
-85.19
-130.31
-174.46
-217.86
-261.25
-305.83
-352.43
-400.52
-447.51
-488.64
-518.24
-531.82
-528.08
-509.59
-481.49
-449.01
-415.03
-379.57
-340.99
-298.64
-254.59
-213.56
-180.57
-158.06
-144.38
-134.32
-121.66
-101.79
-73.39
-38.31
-0.15
37.30
70.97
98.59
118.33
128.48
127.82
116.19
95.23
68.44
40.60
16.60
0.22
-6.68
-4.40
5.14
19.10
34.44
48.40
58.56
63.05
60.80
52.00
38.23
22.13
6.65
-5.98
-14.96
-21.01
-25.73
-30.69
-36.43
-41.86
-44.43
-41.12
-29.74
-10.04
16.00
45.02
73.60
99.43
121.48
139.29
151.98
157.58
153.41
137.13
108.08
68.02
20.67
-29.40
-77.96
-121.68
-157.92
-184.22
-198.28
-198.52
-185.32
-161.82
-133.43
-106.00
-83.40
-65.99
-50.98
-35.10
-17.84
-3.41
0.71
-12.09
-42.73
-84.26
-123.70
-147.26
-146.22
-120.10
-75.49
-21.55
34.77
90.75
146.59
201.79
252.37
290.65
308.35
300.67
269.01
220.67
165.74
113.36
68.99
34.12
8.08
-9.62
-18.10
-15.87
-2.83
17.95
40.14
55.95
58.89
46.21
19.92
-14.23
-48.54
-75.81
-91.10
-92.63
-81.98
-63.48
-42.98
-26.55
-19.15
-23.61
-39.91
-65.12
-93.80
-118.99
-133.80
-133.30
-116.13
-85.35
-47.43
-10.01
20.69
41.79
54.12
61.04
66.54
73.85
84.51
98.89
116.57
136.66
157.65
177.24
192.90
202.80
206.97
207.14
206.42
207.56
211.37
216.28
219.19
217.05
208.36
194.05
175.34
153.90
131.23
109.24
91.23
81.74
84.64
100.39
125.31
149.38
162.55
157.99
134.72
97.69
54.61
12.07
-27.10
-62.39
-98.22
-137.04
-179.27
-223.04
-264.61
-299.12
-321.22
-326.28
-309.58
-273.34
-221.00
-157.92
-89.41
-18.82
52.83
125.39
184.41
239.79
282.22
304.89
304.61
283.49
248.00
206.14
164.20
124.93
89.74
54.89
19.34
-16.05
-49.44
-79.73
-107.52
-135.20
-166.07
-201.61
-244.90
-295.21
-348.45
-397.72
-435.07
-453.63
-450.30
-427.91
-393.79
-359.81
-335.42
-324.66
-325.40
-331.71
-336.27
-333.10
-319.70
-296.01
-263.88
-224.42
-178.15
-127.55
-79.89
-44.78
-29.78
-36.50
-57.93
-80.61
-89.92
-76.15
-39.47
9.30
56.13
91.65
114.40
130.44
149.32
173.38
198.90
227.43
253.63
264.13
249.81
207.53
141.27
61.45
-17.91
-81.60
-117.74
-122.67
-100.60
-61.88
-21.04
7.95
16.48
4.01
-21.87
-49.52
-69.45
-76.27
-68.67
-48.82
-20.42
12.53
45.65
74.51
94.72
102.61
97.82
84.44
69.22
59.10
58.90
70.06
90.93
117.42
143.89
165.00
177.20
179.38
173.02
161.30
147.68
134.40
121.74
108.41
93.08
75.76
58.09
42.58
31.39
25.30
23.70
25.08
28.01
31.66
35.88
40.62
45.33
48.63
48.73
44.12
34.51
21.13
6.32
-7.42
-18.49
-26.71
-33.05
-38.78
-44.64
-50.42
-55.18
-57.98
-58.34
-56.41
-52.64
-47.46
-41.21
-34.40
-27.96
-23.22
-21.49
-23.48
-28.90
-36.65
-45.30
-53.86
-62.10
-70.35
-78.91
-87.56
-95.33
-100.69
-102.10
-98.46
-89.52
-75.84
-58.77
-40.30
-22.83
-8.74
0.23
3.64
2.57
-0.74
-3.71
-4.46
-2.49
1.12
4.40
5.45
3.50
-0.47
-4.02
-4.07
1.65
13.43
29.07
44.52
55.35
58.70
54.44
45.01
33.94
23.80
14.97
5.89
-5.34
-19.27
-34.37
-47.96
-57.98
-64.47
-69.60
-76.18
-85.68
-96.93
-107.25
-113.94
-116.61
-118.00
-122.95
-136.04
-159.14
-190.31
-224.15
-254.25
-275.00
-283.38
-279.56
-266.07
-246.39
-223.42
-198.60
-171.43
-141.32
-107.28
-69.13
-27.78
15.10
57.65
98.43
136.66
173.42
208.23
242.48
278.48
318.95
365.92
418.79
473.03
520.00
551.67
557.50
535.00
488.88
428.94
366.23
308.66
258.82
214.55
175.18
133.52
88.21
39.73
-10.49
-60.49
-107.52
-147.34
-174.84
-180.69
-167.15
-134.94
-87.42
-28.87
37.54
110.53
188.83
238.90
287.83
318.69
320.95
290.74
234.09
166.01
105.67
69.31
64.98
95.20
145.00
200.59
249.33
282.81
297.54
294.71
278.15
252.93
227.71
202.87
180.79
162.33
146.90
132.61
118.04
100.93
79.31
54.25
23.47
-11.68
-49.01
-86.46
-123.40
-158.13
-190.66
-221.20
-248.71
-274.39
-298.65
-322.45
-347.53
-377.43
-412.57
-454.36
-502.07
-551.33
-595.44
-625.52
-633.77
-616.34
-576.03
-516.29
-445.04
-369.23
-292.76
-216.46
-139.50
-61.56
27.13
105.75
171.18
217.94
242.58
245.06
228.62
198.49
159.99
115.72
66.15
13.05
-43.98
-103.26
-159.85
-206.58
-236.29
-245.05
-235.14
-212.08
-181.87
-150.93
-121.23
-89.58
-49.92
2.25
73.61
144.44
202.87
237.70
242.12
217.48
173.00
122.97
82.76
65.02
74.80
111.13
163.65
215.37
248.86
252.76
226.47
180.30
130.77
92.45
75.42
80.95
105.15
142.98
190.50
244.18
298.69
346.06
377.05
386.90
376.51
353.37
328.20
310.36
303.94
306.90
313.09
314.97
307.53
288.50
258.77
221.34
180.18
139.24
101.61
69.03
41.84
19.41
0.24
-17.25
-34.40
-52.00
-70.27
-89.05
-108.07
-127.34
-147.33
-168.87
-192.80
-219.45
-248.33
-278.04
-306.86
-333.01
-355.40
-373.81
-389.05
-402.04
-414.64
-429.40
-449.16
-475.93
-509.07
-544.08
-572.88
-586.26
-576.58
-541.72
-485.84
-417.75
-347.46
-282.73
-227.20
-180.68
-141.49
-106.01
-71.27
-33.76
10.65
65.52
131.49
204.28
274.77
329.92
362.62
369.77
355.55
329.22
300.84
277.10
259.29
244.24
223.50
198.11
167.84
134.92
102.03
70.52
39.61
6.89
-30.44
-80.39
-136.91
-199.40
-266.36
-335.38
-403.10
-465.12
-516.61
-553.56
-581.94
-594.27
-594.16
-585.88
-572.35
-553.74
-527.65
-491.06
-394.37
-304.44
-220.04
-151.06
-104.23
-79.13
-67.40
-55.81
-32.04
9.99
60.31
119.34
177.56
228.93
272.56
311.15
348.04
385.11
422.77
455.28
489.97
526.90
563.59
593.98
609.34
601.64
567.10
508.40
430.13
347.41
269.89
203.06
147.70
100.70
56.84
10.34
-43.58
-108.89
-181.02
-251.92
-309.38
-341.06
-340.13
-309.27
-261.25
-214.24
-185.13
-180.54
-196.27
-219.37
-234.42
-230.09
-202.61
-155.71
-97.92
-39.60
9.29
40.88
50.77
39.71
13.98
-15.49
-36.52
-39.91
-22.58
11.63
54.60
97.28
133.16
158.95
173.67
176.48
165.59
138.95
96.11
40.08
-22.51
-83.16
-134.50
-172.66
-197.91
-213.37
-222.56
-227.35
-227.33
-220.56
-205.13
-180.44
-147.79
-109.89
-70.15
-31.58
3.85
35.63
64.73
92.99
122.29
153.76
187.99
225.14
265.08
306.78
347.26
381.14
401.31
400.93
375.96
326.98
259.44
182.13
104.60
34.84
-21.73
-61.99
-84.28
-87.71
-72.55
-41.36
0.18
43.90
81.38
107.22
121.52
130.27
142.84
167.73
208.64
262.83
322.50
378.03
421.45
448.46
458.16
451.77
431.03
397.48
352.41
297.75
236.28
171.38
106.58
45.46
-8.41
-51.56
-80.81
-93.98
-90.64
-72.65
-44.06
-10.57
21.62
46.81
60.51
60.02
44.38
14.38
-27.51
-76.96
-127.68
-171.22
-197.79
-198.73
-169.88
-114.78
-45.97
17.46
55.92
56.67
18.68
-46.72
-120.89
-185.59
-229.58
-250.90
-254.18
-245.04
-225.32
-192.14
-141.09
-71.55
10.11
90.83
155.85
194.82
205.75
195.41
176.01
160.82
160.20
179.54
218.39
270.90
327.38
376.78
409.92
422.20
414.79
393.24
364.37
333.10
301.11
267.94
233.05
197.49
163.54
133.15
106.34
80.89
53.70
22.60
-12.25
-48.37
-81.92
-109.71
-130.56
-145.78
-158.70
-173.19
-192.19
-216.72
-245.69
-276.61
-306.78
-334.17
-357.96
-378.39
-396.31
-412.13
-425.57
-435.84
-441.92
-443.68
-442.57
-441.86
-445.88
-458.67
-482.61
-517.51
-560.49
-606.31
-648.28
-679.42
-693.83
-688.02
-661.68
-617.80
-561.72
-499.42
-435.79
-373.70
-314.28
-258.14
-206.61
-162.15
-127.57
-104.50
-91.92
-85.87
-80.60
-70.37
-51.44
-23.59
10.32
45.52
77.59
104.22
126.24
147.13
172.00
205.94
252.31
311.16
378.08
444.30
497.77
526.53
522.79
486.43
426.04
356.68
295.04
254.02
238.71
245.54
264.48
283.30
291.70
283.85
258.75
218.62
166.63
104.92
34.14
-45.21
-130.42
-215.32
-290.76
-347.49
-379.89
-388.51
-379.58
-361.91
-342.66
-324.57
-306.13
-283.72
-255.22
-221.90
-188.00
-158.25
-135.17
-117.45
-100.60
-79.25
-49.53
-10.91
33.72
79.25
120.54
154.13
179.30
197.97
213.92
231.81
255.55
286.70
322.95
358.30
384.20
392.92
380.90
350.40
308.71
265.00
226.93
198.63
181.06
173.30
173.71
179.60
186.41
188.08
179.04
157.58
127.74
98.60
80.37
79.80
97.89
130.68
172.81
221.36
275.77
335.99
399.30
459.20
507.13
536.53
545.89
539.70
526.47
513.69
504.73
497.95
488.27
470.53
441.94
402.78
354.89
301.92
246.01
188.39
129.97
72.04
16.48
-34.42
-78.82
-117.64
-149.18
-174.60
-195.32
-212.48
-226.67
-238.17
-247.40
-255.25
-266.77
-279.25
-293.46
-309.10
-325.02
-339.62
-351.77
-361.30
-369.23
-383.31
-399.57
-420.90
-449.99
-488.41
-535.36
-586.95
-636.50
-676.67
-709.70
-725.79
-727.88
-720.94
-708.59
-690.38
-662.02
-618.11
-508.48
-398.83
-289.64
-193.08
-119.25
-73.01
-53.31
-54.70
-69.47
-89.26
-113.79
-127.58
-125.59
-105.87
-70.25
-23.86
26.67
75.38
118.65
149.70
176.14
200.19
224.57
251.67
282.69
316.35
348.24
371.54
375.29
358.65
320.48
263.52
192.94
114.69
34.73
-40.96
-106.41
-158.21
-191.50
-207.07
-209.09
-203.17
-193.49
-180.78
-162.43
-134.65
-95.94
-47.04
7.35
60.92
108.21
146.31
175.36
198.16
219.25
243.76
276.15
318.10
366.99
415.44
452.50
466.85
450.69
403.20
331.73
250.38
175.97
123.26
100.34
106.48
132.68
164.85
188.32
192.24
172.37
131.20
75.94
15.17
-44.00
-97.05
-141.27
-174.40
-193.98
-197.88
-185.71
-159.85
-125.30
-88.33
-54.55
-27.73
-9.60
-0.50
0.04
-7.04
-20.23
-37.39
-55.93
-73.32
-87.45
-96.43
-98.63
-92.93
-79.61
-61.11
-42.23
-29.09
-26.87
-37.40
-58.06
-82.40
-102.76
-113.24
-112.09
-101.98
-88.31
-76.02
-66.95
-58.97
-47.41
-27.76
1.65
39.08
80.81
123.51
166.42
211.75
263.26
323.90
393.28
466.59
535.11
588.69
618.98
622.30
600.96
562.33
516.15
471.10
432.35
401.11
375.98
355.13
337.63
323.45
312.41
303.12
292.80
278.29
257.41
230.00
197.89
164.30
132.43
104.47
81.18
62.08
46.22
32.80
21.61
12.94
7.13
4.06
2.80
1.90
-0.32
-5.12
-13.01
-23.71
-36.31
-49.70
-62.91
-75.09
-85.55
-93.56
-98.44
-99.74
-97.57
-92.88
-87.35
-82.94
-81.22
-82.71
-86.66
-91.35
-94.95
-96.48
-96.36
-96.42
-99.00
-105.85
-117.05
-130.79
-144.12
-154.02
-158.86
-158.93
-156.24
-153.84
-155.11
-163.10
-180.10
-206.61
-239.86
-272.99
-295.87
-298.58
-275.87
-230.74
-174.14
