1540902202.00
64.000000
-0.00
-0.00
-0.00
-0.00
-0.00
-0.00
-0.00
-0.00
-0.00
-0.00
0.00
0.01
0.01
-0.00
-0.03
-0.05
-0.05
0.00
0.13
0.36
0.66
1.01
1.37
1.72
2.06
2.40
2.79
3.24
3.80
4.42
5.06
5.66
6.20
6.68
7.15
7.68
8.31
9.14
10.09
11.05
11.91
12.61
13.22
13.88
14.83
16.20
18.24
20.73
23.43
26.02
28.35
30.48
32.73
35.52
39.16
44.05
49.81
55.94
61.86
67.19
72.01
76.80
82.25
88.87
97.21
106.77
116.75
126.28
134.78
142.28
149.42
157.50
165.22
174.87
187.05
201.87
218.12
232.91
241.88
240.40
225.07
195.01
152.64
101.83
46.91
-8.89
-64.01
-118.20
-171.61
-223.96
-274.42
-321.46
-364.12
-401.68
-433.56
-458.89
-476.29
-484.06
-480.53
-464.77
-436.69
-397.75
-350.44
-297.78
-242.72
-187.75
-134.63
-84.54
-38.94
1.49
36.27
65.19
88.29
105.96
118.91
128.05
134.38
138.75
141.90
144.17
145.71
146.54
146.67
146.19
145.23
143.98
142.55
141.03
139.37
137.44
135.09
132.21
128.67
124.39
119.24
113.56
107.56
101.35
95.01
88.57
82.07
75.54
69.02
62.57
56.25
50.04
43.98
38.08
32.36
26.85
21.59
16.64
12.05
7.87
4.10
0.72
-2.27
-4.89
-7.13
-9.00
-10.51
-11.66
-12.47
-12.99
-13.28
-13.38
-13.35
-13.21
-13.00
-12.76
-12.51
-12.28
-12.09
-11.93
-11.81
-11.70
-11.56
-11.42
-11.26
-11.08
-10.88
-10.68
-10.49
-10.31
-10.14
-10.01
-9.90
-9.81
-9.73
-9.68
-9.64
-9.62
-9.60
-9.63
-9.71
-9.88
-10.16
-10.58
-11.14
-11.82
-12.61
-13.50
-14.43
-15.37
-16.26
-17.04
-17.62
-17.94
-17.92
-17.53
-16.72
-15.49
-13.86
-11.85
-9.49
-6.84
-3.93
-0.84
2.37
5.66
8.98
12.28
15.53
18.73
21.87
24.94
27.94
30.85
33.68
36.41
39.03
41.50
43.74
45.60
46.90
47.45
47.05
45.47
42.59
38.34
32.77
26.00
18.31
10.06
1.69
-6.33
-13.48
-19.33
-23.49
-25.73
-25.93
-24.12
-20.46
-15.17
-8.51
-0.71
8.04
17.56
27.75
38.44
49.38
60.31
70.97
81.15
90.72
99.69
108.05
115.79
122.81
128.91
133.84
137.42
139.60
140.54
140.60
140.14
139.46
138.51
136.94
134.19
129.71
123.21
114.87
105.32
95.34
85.54
75.98
66.09
54.85
41.37
25.39
7.62
-10.38
-26.87
-40.66
-51.79
-61.66
-72.42
-86.00
-103.03
-122.44
-141.80
-158.54
-171.26
-180.50
-188.65
-198.78
-213.24
-232.92
-257.18
-284.68
-313.80
-342.46
-367.49
-384.45
-388.64
-377.18
-351.15
-316.15
-280.49
-251.60
-232.48
-220.54
-209.43
-193.20
-170.07
-143.68
-120.76
-106.93
-102.85
-103.61
-101.46
-90.44
-70.10
-46.02
-26.62
-18.24
-21.19
-29.40
-33.92
-28.07
-11.55
9.19
24.61
27.53
17.43
0.88
-12.09
-13.59
-2.31
15.77
30.82
34.80
26.00
9.94
-3.87
-7.45
1.08
16.46
29.45
32.21
22.92
6.86
-6.68
-9.68
-0.08
17.13
32.77
38.86
33.22
20.72
10.33
9.84
21.21
39.21
54.42
58.57
49.38
31.89
15.58
8.95
14.74
28.36
40.67
43.46
34.20
17.63
2.92
-1.61
6.53
22.50
36.97
41.49
33.46
17.58
3.14
-1.44
6.47
22.12
36.08
39.85
30.78
13.74
-1.72
-6.87
1.06
17.29
32.21
36.92
28.35
11.06
-5.48
-12.36
-6.32
8.38
22.49
27.29
19.61
3.73
-11.22
-16.56
-9.14
6.89
22.50
29.02
23.26
9.22
-4.26
-8.68
-0.91
14.87
29.60
34.57
26.54
9.72
-6.65
-13.64
-7.77
6.92
21.28
26.39
18.80
2.58
-13.07
-19.23
-12.37
3.55
19.44
26.39
20.84
6.61
-7.45
-12.58
-5.26
10.65
26.22
32.53
25.92
10.12
-5.91
-13.15
-7.68
7.03
22.21
28.84
22.85
7.46
-8.72
-16.67
-12.17
1.83
16.78
23.65
18.03
2.76
-13.68
-22.09
-17.76
-3.20
13.36
22.72
20.06
7.75
-6.21
-12.80
-7.42
7.34
23.12
30.71
25.36
9.72
-7.67
-17.32
-14.26
-0.95
14.18
21.69
16.73
1.86
-14.43
-22.68
-17.99
-2.88
14.22
23.90
21.21
8.55
-5.88
-12.83
-7.51
7.62
24.14
32.63
28.08
12.80
-4.85
-15.35
-13.44
-1.08
13.74
21.73
17.69
3.58
-12.68
-21.82
-18.53
-4.62
11.99
21.88
19.48
6.35
-9.75
-19.43
-16.97
-3.71
12.74
22.96
21.18
8.69
-6.97
-16.42
-13.91
-0.71
15.62
25.67
23.60
10.60
-5.86
-16.34
-14.87
-2.49
13.42
23.38
21.37
8.35
-8.34
-19.24
-18.21
-5.96
10.38
21.51
21.31
10.38
-4.34
-13.69
-11.68
1.05
17.39
27.99
26.52
13.48
-4.13
-16.72
-17.67
-7.10
8.13
18.50
17.36
4.90
-11.96
-23.65
-23.51
-11.64
5.10
17.20
18.04
7.74
-6.92
-16.61
-14.86
-1.97
15.07
26.68
26.17
13.68
-3.86
-16.76
-18.09
-7.68
7.85
18.98
18.87
7.36
-8.98
-20.61
-20.64
-8.88
8.11
20.75
22.03
11.60
-4.09
-15.56
-15.82
-4.40
12.23
24.55
25.46
14.45
-2.12
-14.73
-16.30
-6.14
9.53
21.35
22.13
11.11
-5.71
-18.92
-21.15
-11.23
5.03
18.30
21.05
11.92
-3.53
-16.09
-18.29
-8.74
6.96
19.57
21.60
11.82
-3.99
-16.45
-18.06
-7.62
8.93
21.99
23.88
13.35
-3.70
-17.58
-20.39
-10.63
5.91
19.43
21.89
11.63
-5.65
-20.19
-23.76
-14.42
2.42
17.24
21.94
14.48
0.01
-12.28
-14.54
-4.84
11.59
25.41
28.60
19.09
2.01
-13.23
-18.40
-11.15
3.57
16.44
19.26
9.85
-6.67
-20.87
-24.58
-15.56
0.96
15.55
19.97
12.04
-3.15
-16.26
-19.18
-9.72
7.02
21.54
25.51
16.55
-0.38
-15.77
-21.01
-13.35
2.58
17.36
22.32
14.52
-1.57
-16.65
-22.13
-15.00
0.43
15.05
20.44
13.66
-0.94
-14.41
-18.42
-10.12
6.09
21.06
26.21
18.50
2.26
-13.28
-19.26
-12.32
3.40
18.67
24.44
17.21
1.05
-14.86
-21.45
-15.10
0.28
15.59
21.93
15.74
0.89
-13.66
-19.18
-12.22
3.32
18.44
24.34
17.43
1.46
-14.56
-21.55
-15.52
0.10
16.40
24.11
18.91
3.90
-12.25
-20.32
-15.91
-1.92
13.14
20.21
15.01
0.57
-14.61
-21.63
-16.28
-1.66
13.72
20.89
15.60
0.81
-15.01
-22.75
-17.83
-2.95
13.56
22.46
18.98
5.51
-9.73
-17.48
-12.88
1.65
17.74
25.93
21.25
6.21
-10.73
-20.04
-16.73
-3.19
12.21
20.20
15.89
1.73
-14.01
-22.19
-18.01
-3.85
12.12
20.75
17.19
3.74
-11.48
-19.20
-14.41
0.68
17.78
27.23
23.61
8.89
-8.72
-19.46
-17.67
-5.05
10.45
19.29
15.98
2.26
-13.97
-23.32
-20.36
-6.81
9.55
19.50
17.67
5.68
-8.84
-16.74
-12.77
1.40
17.96
27.44
24.23
9.90
-7.67
-18.71
-17.23
-4.45
11.76
21.60
18.94
5.03
-12.26
-23.11
-21.38
-8.19
8.73
19.68
18.54
6.37
-9.35
-19.15
-17.05
-4.04
12.44
22.90
21.25
8.39
-8.31
-19.24
-18.10
-5.60
10.97
21.90
20.79
8.31
-8.24
-19.18
-18.18
-5.90
10.34
21.04
19.97
7.94
-7.84
-18.01
-16.58
-4.37
11.43
21.53
19.89
7.20
-9.47
-20.76
-20.44
-8.83
7.20
18.39
18.40
7.47
-7.64
-17.68
-16.26
-3.78
12.81
23.97
23.14
10.67
-6.42
-18.49
-18.91
-7.89
7.61
18.07
16.92
4.50
-12.19
-23.51
-22.80
-10.23
7.29
20.05
21.20
10.62
-5.03
-16.14
-15.80
-3.75
13.39
25.88
26.55
14.88
-2.58
-16.04
-18.12
-8.09
7.61
19.22
19.32
7.27
-10.34
-23.59
-24.97
-13.74
3.55
17.02
19.17
9.24
-6.47
-18.32
-19.04
-7.92
8.75
21.34
22.55
11.56
-5.42
-18.72
-20.78
-10.48
6.22
19.68
22.19
12.50
-3.52
-16.21
-17.86
-7.17
9.85
23.41
25.59
15.08
-2.15
-16.28
-19.43
-10.18
5.49
17.85
19.05
7.78
-9.95
-24.31
-27.31
-17.34
-0.18
14.49
18.65
10.47
-4.64
-17.27
-19.48
-9.44
7.53
21.97
25.80
16.99
0.76
-13.38
-17.17
-8.42
7.67
21.49
24.69
15.10
-1.96
-16.68
-20.57
-11.37
5.51
20.22
24.15
15.04
-1.79
-16.62
-21.05
-12.85
2.73
16.12
19.03
9.33
-7.75
-22.68
-27.11
-18.63
-2.21
12.88
18.35
11.73
-2.27
-14.56
-16.99
-7.23
9.84
24.79
29.16
20.31
3.12
-12.85
-18.79
-11.76
3.65
17.91
22.20
13.52
-3.50
-19.28
-24.89
-17.20
-0.73
14.99
21.04
14.20
-1.10
-15.63
-20.70
-13.30
2.14
16.38
20.86
12.69
-3.65
-18.95
-24.57
-17.34
-1.49
14.03
20.61
15.01
1.19
-12.09
-16.29
-8.19
8.18
23.71
29.41
21.70
4.54
-12.69
-20.48
-14.73
0.98
17.26
24.42
18.07
1.63
-15.63
-24.05
-19.09
-3.98
12.28
20.24
15.55
1.39
-13.50
-20.14
-14.52
-0.04
14.57
20.45
13.84
-1.72
-17.42
-24.33
-18.52
-3.36
12.56
20.33
15.90
2.39
-11.79
-17.76
-11.39
4.22
20.47
28.09
22.60
6.91
-10.28
-19.43
-15.72
-1.82
13.60
21.06
15.78
0.52
-16.01
-24.32
-19.74
-5.05
11.03
19.14
14.66
0.44
-15.03
-22.61
-17.84
-3.55
11.84
19.24
14.15
-0.66
-16.80
-25.04
-20.56
-5.78
11.12
20.96
18.76
6.71
-7.31
-14.27
-9.32
5.30
21.51
30.00
25.73
10.84
-6.49
-16.74
-14.62
-2.01
12.95
20.89
16.54
2.02
-14.44
-23.31
-19.39
-4.95
11.56
20.45
16.50
2.00
-14.65
-23.89
-20.50
-6.62
9.60
18.81
15.82
2.58
-13.13
-22.19
-19.40
-6.42
9.30
18.87
17.19
5.86
-7.74
-14.76
-10.14
4.37
20.98
30.32
26.78
11.90
-6.45
-18.46
-17.98
-6.01
9.84
19.87
17.90
4.89
-11.65
-22.12
-20.43
-7.60
8.81
19.26
17.72
5.30
-10.50
-20.31
-18.33
-5.81
9.64
18.62
15.43
1.52
-15.33
-25.47
-22.90
-8.89
8.89
20.67
20.31
8.78
-6.49
-15.95
-13.56
-0.33
16.22
26.51
24.39
10.80
-6.79
-18.67
-18.46
-6.78
9.14
19.77
18.77
6.77
-9.06
-19.24
-17.56
-4.77
11.80
22.51
21.05
8.19
-8.68
-19.85
-18.91
-6.60
9.74
20.37
18.87
5.90
-11.29
-22.94
-22.50
-10.32
6.53
18.44
18.77
7.67
-8.12
-19.26
-19.30
-8.40
6.72
16.80
15.47
3.04
-13.61
-25.07
-24.77
-12.80
4.09
16.52
17.76
7.66
-7.36
-18.09
-17.82
-6.30
10.16
22.29
23.28
12.71
-3.13
-14.88
-15.52
-4.51
11.84
24.05
24.96
14.03
-2.35
-14.49
-15.11
-3.60
13.46
26.16
26.98
15.20
-2.60
-16.43
-18.64
-8.43
7.62
19.57
19.84
7.81
-9.89
-23.30
-24.92
-14.08
2.65
15.49
17.09
6.83
-8.94
-20.75
-21.51
-10.67
5.47
17.43
18.11
6.86
-10.07
-23.12
-24.88
-14.34
2.54
16.23
19.20
10.25
-4.82
-16.60
-17.58
-6.59
10.42
23.81
25.84
15.26
-1.95
-15.94
-18.73
-8.80
7.91
21.56
24.11
13.99
-2.91
-16.78
-19.58
-9.79
6.71
20.15
22.54
12.40
-4.43
-18.30
-21.33
-12.11
3.54
15.99
17.54
6.94
-9.86
-23.24
-25.42
-15.06
2.00
16.18
19.68
11.00
-4.30
-16.85
-18.95
-8.96
7.67
21.58
24.85
15.59
-1.02
-15.69
-20.31
-12.60
2.60
16.22
20.21
12.32
-2.63
-15.53
-18.39
-9.03
7.48
21.76
25.58
16.67
0.13
-14.53
-18.94
-10.78
4.85
18.35
21.29
11.39
-6.13
-21.45
-25.90
-17.00
0.14
15.75
21.13
13.64
-1.82
-15.80
-19.91
-11.68
3.87
17.37
20.54
11.13
-5.70
-20.42
-24.65
-15.97
0.52
15.34
20.04
12.12
-3.52
-17.54
-21.57
-13.12
2.98
17.39
21.67
13.21
-3.18
-18.15
-23.15
-15.35
0.75
15.92
21.64
14.98
0.24
-13.55
-18.02
-10.25
5.40
19.90
24.73
16.94
0.90
-14.21
-19.69
-12.36
3.44
18.44
23.78
16.24
0.23
-14.84
-19.97
-11.95
4.73
20.41
25.93
17.95
0.96
-15.36
-21.77
-14.84
1.12
16.57
22.39
15.14
-0.95
-16.53
-22.56
-15.55
0.36
15.91
22.11
15.52
0.19
-14.72
-20.38
-13.38
2.03
16.64
21.50
13.31
-3.62
-19.90
-26.39
-19.58
-3.57
12.38
19.19
13.25
-1.51
-16.11
-21.75
-15.04
0.13
14.78
20.28
13.35
-2.02
-16.94
-22.80
-16.29
-1.26
13.52
19.54
13.48
-0.92
-15.00
-20.36
-13.58
1.59
16.45
22.33
15.61
-0.08
-15.96
-23.02
-17.23
-1.89
14.38
22.48
18.17
4.50
-10.14
-16.84
-11.44
3.03
18.16
25.04
19.45
4.39
-11.72
-19.89
-15.75
-2.05
12.85
20.01
15.01
0.63
-14.74
-22.00
-16.58
-1.22
15.57
24.33
20.15
5.48
-11.23
-20.43
-16.94
-3.03
12.96
21.59
17.81
4.04
-11.34
-18.91
-13.84
1.15
17.37
25.27
20.00
4.41
-12.64
-21.47
-17.16
-2.46
13.82
22.09
17.47
2.68
-13.61
-21.85
-17.18
-2.24
14.32
22.95
18.70
4.07
-12.46
-21.38
-17.59
-3.50
12.47
20.76
16.29
1.46
-15.32
-24.41
-20.63
-6.30
10.23
19.40
16.11
2.69
-12.57
-20.33
-15.77
-1.39
14.34
22.08
17.10
2.03
-14.59
-23.34
-19.36
-5.18
10.78
19.19
15.21
1.37
-14.04
-21.88
-17.44
-3.25
12.44
20.42
15.94
1.45
-14.86
-23.71
-20.06
-6.03
10.42
20.05
17.70
5.30
-9.44
-17.48
-13.85
-0.47
14.82
22.95
18.82
4.37
-12.52
-22.63
-20.54
-7.83
7.98
17.82
16.22
4.52
-10.02
-18.55
-15.68
-2.74
12.94
22.26
19.65
6.40
-10.06
-20.34
-18.57
-5.82
10.52
21.05
19.84
7.93
-7.39
-16.82
-14.57
-1.77
14.16
23.90
21.52
8.11
-8.92
-20.09
-19.26
-7.16
8.93
19.57
18.44
6.14
-10.15
-20.87
-19.55
-6.70
10.41
21.97
21.37
9.00
-7.84
-19.30
-18.72
-6.52
10.02
21.10
20.10
7.58
-9.17
-20.34
-19.37
-6.79
10.06
21.31
20.27
7.39
-10.05
-22.10
-21.90
-9.61
7.61
19.87
20.17
8.49
-8.17
-20.03
-20.09
-8.30
8.42
20.25
20.28
8.49
-8.15
-19.82
-19.57
-7.48
9.45
21.31
21.13
8.97
-8.17
-20.35
-20.55
-8.73
8.16
20.21
20.35
8.50
-8.40
-20.39
-20.38
-8.20
9.09
21.46
21.60
9.27
-8.49
-21.56
-22.46
-10.77
6.65
19.74
21.09
10.17
-6.34
-18.65
-19.45
-8.32
8.11
20.08
20.38
8.63
-8.55
-21.25
-22.13
-10.57
6.85
20.22
21.97
11.28
-5.54
-18.65
-20.48
-10.00
6.52
19.38
20.99
10.41
-6.17
-19.06
-20.73
-10.21
6.24
18.95
20.47
9.95
-6.29
-18.54
-19.37
-8.06
8.97
21.88
23.12
11.91
-5.39
-18.89
-20.96
-10.57
6.12
19.37
21.51
11.34
-5.23
-18.63
-21.16
-11.38
4.95
18.35
20.98
11.29
-5.08
-18.59
-21.34
-11.61
4.93
18.62
21.41
11.55
-5.24
-19.14
-21.89
-11.74
5.60
20.13
23.49
13.82
-3.21
-17.63
-21.09
-11.65
5.07
19.14
22.19
12.26
-5.00
-19.70
-23.36
-13.89
3.17
18.00
22.13
13.39
-2.80
-16.82
-20.34
-11.28
4.97
18.77
21.96
12.59
-3.88
-17.83
-21.10
-11.77
4.80
19.06
22.90
14.30
-1.52
-15.18
-18.69
-10.05
5.61
18.99
22.06
12.71
-3.94
-18.62
-23.07
-14.92
0.95
15.33
19.88
12.10
-3.25
-16.99
-20.85
-12.32
3.78
18.08
22.16
13.42
-3.31
-18.58
-23.79
-16.12
-0.15
14.87
20.44
13.81
-0.59
-13.71
-17.36
-9.01
6.69
20.63
24.48
15.69
-1.05
-16.54
-22.28
-15.39
-0.29
14.05
19.17
12.19
-2.57
-16.28
-20.67
-13.00
2.29
16.14
20.20
11.72
-4.73
-19.87
-25.05
-17.27
-0.97
14.50
20.34
13.44
-1.88
-16.36
-21.30
-13.64
2.10
16.58
21.01
12.47
-4.32
-19.75
-24.86
-16.56
0.50
16.67
22.85
15.75
-0.22
-15.68
-21.62
-14.68
0.98
16.09
21.75
14.55
-1.45
-17.06
-23.32
-16.63
-0.90
14.76
21.30
15.07
-0.16
-15.34
-21.41
-14.59
1.26
17.01
23.42
16.68
0.63
-15.43
-22.14
-15.53
0.59
16.87
23.82
17.33
1.10
-15.54
-23.00
-17.01
-1.02
15.74
23.70
18.40
3.04
-13.38
-21.40
-16.49
-1.71
14.09
21.52
16.11
0.94
-15.13
-22.68
-17.10
-1.47
15.35
23.83
19.33
4.75
-11.16
-18.96
-13.98
0.92
17.04
24.89
19.72
4.26
-12.82
-21.88
-17.87
-3.23
13.43
22.44
18.51
3.90
-12.94
-22.30
-18.81
-4.52
12.24
21.75
18.61
4.74
-11.67
-21.01
-17.80
-3.89
12.68
22.39
19.78
6.75
-8.77
-17.35
-13.71
0.20
16.24
24.91
20.83
5.99
-11.40
-21.66
-19.19
-5.70
10.79
20.76
18.59
5.84
-9.79
-19.08
-16.62
-3.98
11.21
19.79
16.40
2.65
-13.83
-23.81
-21.70
-8.85
7.36
17.73
16.64
5.34
-9.04
-17.55
-14.89
-2.51
12.13
20.04
15.99
1.72
-14.99
-24.87
-22.47
-9.45
6.42
15.90
13.59
1.17
-13.66
-21.81
-18.06
-4.27
11.75
20.74
17.46
3.72
-12.62
-22.19
-19.55
-6.30
9.86
19.58
17.32
4.62
-10.89
-19.83
-16.60
-2.67
14.18
24.30
21.74
7.74
-9.90
-21.31
-20.12
-7.10
10.20
21.89
21.42
9.36
-6.99
-17.82
-16.57
-3.78
13.21
24.52
23.50
10.67
-6.66
-18.57
-18.35
-6.37
10.18
21.51
20.91
8.73
-7.99
-19.59
-19.46
-7.80
8.42
19.72
19.48
7.87
-8.32
-19.75
-19.81
-8.55
7.36
18.55
18.38
6.78
-9.72
-21.74
-22.51
-11.78
4.10
15.78
16.51
6.05
-9.19
-19.88
-19.33
-7.52
8.79
20.00
19.25
6.60
-10.94
-23.41
-23.69
-11.66
5.64
18.21
18.91
7.56
-8.88
-20.50
-20.18
-7.78
9.75
22.41
23.00
11.24
-6.08
-18.95
-19.99
-8.60
8.64
21.79
23.25
12.22
-4.96
-18.35
-20.21
-9.35
8.01
22.00
24.67
14.65
-2.07
-15.74
-18.44
-8.69
7.63
20.80
22.97
12.67
-4.29
-18.30
-21.48
-12.36
3.37
16.21
18.51
8.94
-6.74
-19.09
-20.64
-10.28
5.98
18.52
19.72
8.45
-9.14
-23.27
-26.07
-16.14
0.61
14.52
17.71
8.66
-6.85
-19.31
-20.92
-10.26
6.90
20.87
23.73
13.88
-3.01
-17.22
-20.64
-11.39
5.15
19.39
23.18
14.53
-1.33
-15.03
-18.49
-9.69
6.22
19.95
23.47
14.74
-1.14
-15.00
-18.94
-10.94
3.99
16.73
19.45
10.17
-6.11
-20.24
-24.29
-16.11
-0.66
12.89
16.53
8.10
-7.48
-20.90
-23.97
-14.40
2.74
17.93
22.64
14.30
-2.10
-16.97
-21.51
-12.94
3.94
19.53
24.95
17.27
1.20
-13.68
-18.50
-10.26
6.44
22.05
27.71
20.32
4.28
-11.12
-17.29
-11.17
2.97
16.11
19.87
11.42
-4.94
-20.23
-25.99
-19.19
-3.96
10.85
16.76
10.62
-3.59
-17.19
-21.83
-14.44
0.87
15.20
20.04
12.27
-3.94
-19.48
-25.55
-18.76
-3.09
12.38
18.79
12.70
-1.94
-16.01
-20.63
-12.33
4.78
21.41
28.37
21.99
6.23
-9.72
-16.66
-10.85
3.92
18.62
24.29
17.31
1.52
-14.13
-20.81
-14.90
-0.05
14.96
21.44
15.75
1.35
-13.23
-19.48
-13.87
0.10
13.81
18.65
11.12
-5.10
-21.13
-28.01
-21.85
-6.19
10.06
17.69
12.58
-1.89
-16.85
-23.04
-16.29
0.09
17.12
25.39
20.38
5.16
-11.46
-20.08
-15.89
-1.55
14.53
23.06
19.34
5.82
-9.40
-17.39
-13.67
-0.78
13.28
19.80
14.59
0.50
-14.29
-20.99
-15.48
-0.82
14.43
21.17
14.95
-1.30
-18.86
-28.22
-24.33
-9.53
7.84
18.20
16.18
3.67
-11.35
-19.48
-15.35
-0.74
16.45
26.73
24.59
11.71
-4.17
-13.72
-11.59
0.47
14.65
21.77
16.77
1.74
-15.22
-24.73
-21.59
-7.85
8.26
17.31
14.04
0.50
-15.14
-23.42
-19.05
-4.12
13.14
23.15
20.46
6.99
-9.25
-18.71
-15.94
-2.62
13.43
22.83
20.09
6.80
-9.41
-19.28
-17.29
-4.79
10.71
20.04
17.76
5.19
-10.21
-19.32
-16.66
-3.68
11.99
20.94
17.48
2.98
-14.83
-26.21
-24.96
-11.99
5.20
16.89
16.62
5.07
-10.46
-20.34
-18.18
-4.60
13.03
24.92
24.45
12.09
-4.92
-16.87
-17.09
-5.90
9.68
20.04
18.77
6.24
-10.46
-21.80
-21.31
-9.42
6.81
17.84
17.25
5.53
-10.21
-20.47
-18.98
-6.46
9.73
20.00
17.99
4.55
-12.77
-24.07
-22.80
-9.55
8.19
20.49
20.58
8.83
-7.57
-18.79
-18.03
-5.44
12.01
24.56
25.35
14.38
-1.64
-13.19
-13.60
-3.00
11.77
21.25
18.92
5.15
-12.88
-25.39
-25.55
-13.54
3.50
15.68
16.00
4.47
-11.89
-23.13
-22.17
-8.91
9.63
23.33
24.75
13.48
-3.78
-16.99
-18.64
-7.97
8.65
21.44
22.98
12.48
-3.92
-16.80
-18.98
-9.65
5.07
16.04
16.36
5.56
-10.07
-21.30
-21.26
-9.71
6.76
18.52
18.54
6.49
-10.88
-23.55
-24.10
-11.91
6.32
20.47
22.72
12.16
-4.85
-18.22
-20.04
-9.04
8.68
23.24
26.58
17.17
0.69
-13.36
-17.13
-8.96
5.68
17.57
19.16
9.02
-7.25
-20.36
-22.77
-13.19
2.65
15.29
17.21
7.22
-8.77
-21.11
-22.18
-10.86
6.66
20.47
22.57
11.68
-6.03
-20.50
-23.45
-13.22
4.32
19.17
22.98
13.86
-2.56
-16.54
-19.88
-10.70
5.52
19.21
22.40
13.38
-2.37
-15.45
-18.13
-8.94
6.41
18.43
19.40
7.98
-9.87
-24.38
-27.42
-17.30
0.21
15.27
19.49
10.86
-5.13
-18.77
-21.68
-11.70
5.88
21.44
26.55
18.87
3.38
-10.60
-14.92
-7.32
7.22
19.46
21.46
11.25
-5.92
-20.60
-24.60
-15.82
0.47
14.73
18.61
9.79
-6.56
-20.86
-24.61
-15.26
2.24
18.38
24.49
17.74
2.62
-11.74
-16.97
-10.24
4.01
16.84
20.06
11.15
-5.26
-20.03
-24.89
-17.29
-1.93
11.99
16.23
8.28
-6.99
-20.26
-23.16
-13.18
4.76
21.07
26.96
19.49
3.22
-12.39
-18.45
-11.66
3.76
18.58
23.91
16.42
0.18
-15.61
-22.11
-15.87
-0.96
13.54
18.84
11.65
-3.82
-18.35
-23.05
-14.63
2.58
19.12
25.88
19.26
3.31
-12.71
-19.75
-14.08
0.52
15.10
20.75
13.92
-1.61
-16.91
-23.19
-16.92
-1.95
12.78
18.52
11.78
-3.50
-18.28
-23.69
-16.13
0.51
17.13
24.70
19.33
4.54
-10.89
-18.08
-13.08
0.80
15.04
20.89
14.57
-0.58
-16.02
-22.95
-17.50
-3.00
12.01
18.71
13.17
-1.22
-15.80
-21.65
-14.77
1.45
18.10
25.93
20.61
5.24
-11.44
-20.15
-16.32
-2.64
12.48
19.95
15.33
1.31
-13.84
-21.19
-16.42
-2.39
12.56
19.42
13.90
-0.93
-16.38
-23.15
-16.76
-0.30
17.29
26.30
21.78
6.43
-11.05
-21.00
-18.26
-5.09
10.29
18.57
14.94
1.70
-13.06
-20.40
-15.78
-1.85
13.20
20.37
15.21
0.57
-15.13
-22.67
-17.44
-2.19
14.51
23.24
18.99
4.18
-12.79
-22.41
-19.36
-5.58
10.91
20.65
18.23
5.28
-10.44
-19.70
-17.14
-4.41
10.81
19.31
15.83
2.23
-13.52
-22.01
-17.83
-2.84
14.79
25.31
22.93
9.25
-7.72
-18.31
-16.68
-4.30
11.01
19.77
16.45
2.68
-13.69
-23.27
-20.62
-7.44
8.52
17.96
15.52
2.87
-12.30
-20.76
-17.06
-2.77
14.44
25.16
23.61
10.93
-5.49
-16.36
-15.83
-4.90
9.21
17.37
13.99
0.39
-15.97
-25.80
-23.41
-10.05
6.79
17.72
16.90
5.33
-9.76
-19.25
-17.31
-4.84
11.09
21.49
20.55
9.08
-5.99
-15.71
-14.37
-2.84
11.85
20.62
17.72
4.12
-12.93
-24.02
-23.01
-10.55
6.25
17.90
17.95
6.75
-8.94
-19.82
-19.52
-8.29
7.22
17.84
17.32
5.96
-9.40
-19.51
-17.94
-4.92
12.68
25.32
26.31
15.57
-0.37
-12.18
-13.23
-3.45
10.61
19.73
17.44
4.01
-13.64
-25.89
-25.93
-13.81
3.58
16.50
17.97
7.79
-7.46
-18.29
-17.92
-6.20
10.25
22.05
22.42
11.28
-4.78
-16.38
-16.79
-5.87
9.76
20.63
19.88
7.39
-10.14
-23.03
-24.11
-12.92
3.99
16.88
18.38
7.84
-8.40
-20.73
-21.90
-11.21
5.09
17.44
18.67
8.19
-7.63
-19.15
-19.08
-6.79
11.29
25.28
27.58
17.20
0.31
-13.39
-16.34
-7.43
7.28
18.28
18.14
5.94
-12.06
-26.07
-28.30
-17.51
0.33
15.39
19.65
11.45
-3.70
-16.45
-19.01
-9.79
5.77
18.48
20.76
11.17
-4.70
-17.50
-19.62
-9.62
6.81
20.20
22.85
13.24
-3.03
-16.57
-19.67
-10.76
4.64
17.23
19.32
9.38
-7.07
-20.72
-23.76
-14.52
1.61
15.30
18.64
9.81
-5.90
-19.16
-21.99
-12.35
4.60
19.52
24.30
16.67
1.50
-12.10
-16.18
-8.54
5.93
18.15
20.22
10.15
-6.89
-21.53
-25.55
-16.66
0.01
14.93
19.67
11.76
-3.83
-17.70
-21.46
-12.74
3.49
17.75
21.65
12.83
-3.64
-18.16
-22.14
-12.95
4.56
20.80
26.98
20.12
4.64
-10.28
-16.07
-9.74
4.43
17.41
20.78
11.69
-5.39
-21.26
-27.22
-20.10
-4.13
11.48
17.93
11.86
-2.73
-16.84
-21.74
-14.04
2.29
18.28
25.10
19.17
4.26
-10.85
-17.46
-11.99
1.92
15.67
20.73
13.67
-1.81
-17.03
-23.41
-17.33
-2.36
12.78
19.28
13.33
-1.63
-16.89
-23.55
-17.69
-2.64
12.89
19.89
14.40
-0.23
-15.19
-21.38
-14.65
1.72
18.91
27.68
23.63
9.63
-5.95
-14.29
-11.15
0.64
13.00
17.44
10.21
-5.45
-21.05
-27.80
-21.70
-5.85
11.15
20.09
16.38
2.68
-12.75
-20.70
-16.33
-1.97
14.25
23.10
19.59
5.86
-10.04
-18.85
-15.50
-2.12
13.21
21.19
16.81
2.34
-14.00
-22.80
-18.95
-4.60
12.04
21.50
18.40
4.65
-11.80
-21.55
-19.19
-6.41
9.00
17.74
14.45
0.96
-14.76
-23.17
-18.75
-3.29
15.01
26.26
24.65
11.76
-4.45
-14.32
-12.27
-0.01
14.42
21.52
15.95
-0.13
-18.28
-28.61
-25.45
-10.62
7.60
19.24
18.30
6.08
-9.73
-19.59
-17.64
-5.05
10.69
20.23
17.79
4.68
-11.49
-21.16
-18.33
-4.10
13.90
25.82
25.24
12.80
-4.21
-16.10
-16.42
-5.65
9.13
18.45
16.03
2.51
-14.93
-26.64
-26.12
-13.70
3.65
16.31
17.64
7.68
-6.98
-17.13
-16.41
-5.05
10.28
20.47
19.25
7.05
-9.21
-20.11
-19.14
-6.55
10.69
22.91
23.37
12.06
-4.25
-16.09
-16.79
-6.37
8.42
18.15
16.27
3.04
-14.52
-26.69
-26.62
-14.31
3.36
16.60
18.41
8.53
-6.49
-17.24
-16.93
-5.42
10.64
21.79
21.28
9.17
-7.65
-19.34
-18.83
-5.90
12.57
26.49
28.37
17.46
0.23
-13.56
-16.45
-7.65
6.60
16.80
15.76
3.02
-14.84
-27.96
-28.90
-16.93
1.44
16.19
19.53
10.31
-5.47
-18.25
-20.46
-10.96
4.43
16.41
17.64
7.17
-8.97
-21.33
-22.39
-11.01
6.86
21.61
25.47
16.89
1.44
-11.59
-14.56
-6.02
8.47
19.66
20.04
8.41
-9.26
-23.25
-25.64
-14.92
3.02
18.19
22.30
13.36
-3.12
-17.43
-21.31
-12.64
3.29
17.03
20.42
11.56
-4.20
-17.35
-19.74
-9.42
8.17
23.35
27.71
19.00
2.37
-12.62
-17.53
-9.88
5.43
19.06
22.63
13.65
-3.09
-18.33
-23.74
-16.70
-1.86
11.69
15.72
7.63
-7.95
-21.98
-26.23
-18.13
-2.23
12.37
17.37
10.17
-4.64
-17.94
-21.38
-12.31
4.53
19.79
24.86
16.86
0.42
-15.01
-20.59
-13.13
3.06
18.70
24.95
18.51
3.48
-11.17
-16.89
-10.54
3.68
16.78
20.20
10.96
-6.51
-22.93
-29.39
-22.50
-6.28
10.11
17.71
12.80
-1.01
-15.08
-20.74
-14.42
0.34
14.97
20.86
14.53
-0.32
-14.88
-20.36
-13.01
3.51
20.22
28.02
22.79
7.83
-8.15
-16.07
-11.82
1.43
15.15
20.45
13.47
-2.38
-18.31
-25.39
-19.64
-4.50
11.20
18.36
12.84
-2.11
-17.79
-25.10
-19.72
-4.61
11.80
20.44
16.88
3.76
-10.70
-17.63
-12.59
1.80
17.34
25.12
20.58
6.31
-9.46
-17.64
-13.50
0.55
16.32
24.59
20.49
6.26
-10.04
-19.32
-16.68
-4.27
9.97
17.13
12.42
-1.83
-17.63
-25.93
-21.86
-7.55
9.03
18.71
16.37
3.84
-11.20
-19.77
-16.74
-3.92
11.09
19.27
15.58
1.96
-13.72
-22.11
-17.94
-3.05
14.47
24.95
22.69
9.21
-7.52
-17.84
-15.82
-2.77
13.61
23.63
21.40
8.09
-8.74
-19.55
-18.50
-6.74
8.18
16.87
13.60
-0.24
-16.94
-26.94
-24.41
-10.61
6.77
18.11
17.41
5.68
-9.67
-19.31
-17.31
-4.73
11.08
20.84
18.70
5.77
-10.52
-20.71
-18.77
-5.61
11.44
22.83
22.40
10.84
-4.68
-14.79
-13.28
-0.89
15.20
25.45
23.57
10.21
-7.43
-19.67
-20.05
-9.03
6.22
16.08
14.05
0.68
-16.71
-28.31
-27.45
-14.57
3.02
15.32
15.46
3.69
-12.91
-24.58
-24.61
-13.23
2.60
13.40
12.67
0.73
-15.60
-27.02
-27.07
-15.71
0.84
13.74
16.62
8.97
-3.80
-13.68
-14.62
-5.91
7.58
18.32
20.50
13.40
1.69
-7.24
-7.68
1.04
14.08
23.86
24.40
14.96
0.45
-11.35
-14.31
-7.42
4.61
14.15
15.13
6.64
-6.62
-17.17
-19.08
-11.50
0.91
10.75
12.12
4.10
-8.78
-19.30
-21.67
-14.81
-2.87
7.46
10.82
6.35
-1.99
-7.85
-6.48
2.27
13.75
21.16
19.70
9.69
-3.29
-11.43
-9.43
2.17
16.66
24.77
20.10
3.16
-18.23
-33.36
-34.67
-21.59
-0.21
20.56
33.97
38.14
35.52
29.91
23.84
17.98
12.35
7.40
3.84
1.66
-0.46
-4.22
-9.93
-15.39
-16.87
-11.55
-0.06
13.60
24.48
29.72
29.76
27.19
24.01
19.82
12.46
0.36
-14.82
-27.99
-33.56
-28.97
-16.78
-3.67
3.24
0.49
-9.76
-20.90
-25.91
-21.59
-10.47
0.78
5.46
0.92
-9.66
-19.28
-21.29
-13.65
-0.33
10.85
13.03
4.54
-9.78
-21.26
-22.46
-11.69
5.72
20.33
24.01
14.68
-2.32
-17.23
-21.37
-12.14
5.48
21.69
27.47
19.71
2.95
-13.27
-19.94
-13.73
1.12
15.40
20.29
12.57
-3.57
-18.96
-24.83
-17.96
-2.51
12.34
17.70
10.17
-6.17
-22.13
-28.58
-21.78
-5.53
11.06
18.79
13.73
-0.54
-15.07
-20.90
-14.24
1.21
16.50
22.68
16.12
0.70
-14.47
-20.23
-12.75
4.27
21.63
29.82
24.57
9.08
-7.69
-16.30
-12.10
2.05
17.58
25.18
20.27
5.67
-10.24
-18.37
-14.39
-1.18
12.73
18.42
11.78
-3.96
-20.03
-27.30
-21.56
-6.11
10.17
17.82
12.40
-3.06
-19.72
-28.08
-23.34
-8.19
8.88
18.53
15.92
3.50
-10.65
-17.58
-12.82
1.05
15.81
22.59
17.11
2.18
-13.73
-21.48
-16.51
-1.48
15.15
23.98
20.10
5.91
-10.35
-19.20
-15.51
-1.34
15.23
24.79
22.06
8.94
-6.63
-15.46
-12.31
0.84
16.02
23.90
19.29
4.17
-13.30
-23.56
-21.14
-7.81
8.31
17.57
14.27
0.04
-17.12
-27.40
-24.89
-10.98
6.42
17.47
16.09
3.52
-12.46
-22.17
-19.65
-6.26
10.22
20.16
17.79
4.64
-11.36
-20.58
-17.33
-3.19
13.86
24.11
21.77
8.26
-8.57
-19.07
-17.25
-4.28
12.36
23.13
22.01
9.92
-5.93
-16.17
-14.91
-3.08
12.02
21.16
18.55
5.33
-10.94
-20.82
-18.39
-4.95
11.72
21.69
18.73
3.88
-15.03
-27.82
-27.72
-15.22
2.27
14.76
15.35
4.20
-11.75
-22.82
-22.34
-10.38
6.22
18.02
18.47
7.72
-7.43
-17.66
-16.55
-4.42
11.83
22.78
22.04
10.03
-6.25
-17.22
-16.35
-3.95
12.96
24.71
24.57
12.62
-4.27
-16.52
-17.25
-6.36
9.56
21.03
21.25
10.02
-6.18
-17.96
-18.65
-8.05
7.31
18.14
17.88
6.50
-9.32
-20.26
-19.73
-7.89
8.43
19.49
18.46
5.26
-13.19
-26.90
-28.45
-17.18
0.43
14.54
17.46
8.10
-7.59
-20.14
-22.07
-12.18
3.71
16.31
18.35
8.86
-6.17
-17.41
-17.68
-6.31
10.34
22.53
22.96
11.12
-6.27
-19.09
-19.76
-7.64
10.42
24.14
25.65
14.21
-3.54
-17.36
-19.36
-8.53
8.76
22.56
25.10
15.20
-1.12
-14.25
-16.71
-7.43
7.54
18.75
18.89
7.20
-9.98
-22.91
-24.09
-12.77
4.53
17.68
18.90
7.20
-10.99
-25.52
-28.38
-18.22
-1.09
13.19
16.57
7.53
-8.34
-21.57
-24.33
-14.87
1.36
15.12
18.67
10.30
-4.68
-17.15
-19.46
-10.08
5.52
18.08
20.06
10.20
-5.62
-17.78
-18.69
-7.15
10.62
24.66
27.01
16.31
-1.29
-15.80
-18.97
-9.17
7.88
22.35
25.96
16.81
0.22
-14.23
-18.36
-9.94
5.96
20.10
24.36
16.51
1.45
-11.82
-15.33
-7.04
8.04
20.71
23.04
13.06
-3.98
-18.55
-22.52
-13.81
2.19
15.84
18.82
9.06
-8.04
-22.74
-26.62
-17.55
-0.96
13.30
16.73
7.12
-10.10
-25.06
-29.12
-19.88
-2.52
13.23
18.64
11.09
-4.65
-19.14
-23.84
-15.95
-0.05
14.71
19.94
12.89
-1.86
-15.23
-18.94
-10.47
5.43
19.44
23.26
14.54
-1.70
-15.91
-19.77
-10.99
5.18
19.10
22.37
12.79
-4.27
-19.06
-22.92
-13.43
4.31
20.53
26.37
18.91
2.68
-12.88
-18.96
-12.20
3.30
18.56
24.86
18.85
4.42
-9.69
-14.98
-8.33
6.18
19.60
23.53
15.05
-1.40
-16.55
-21.85
-14.35
1.31
15.76
20.25
11.88
-4.74
-20.19
-25.64
-18.08
-2.02
13.06
18.26
10.34
-6.34
-22.39
-28.78
-21.93
-5.84
10.35
17.57
12.07
-2.48
-17.21
-23.27
-16.88
-1.60
13.77
20.47
14.71
0.08
-14.72
-20.90
-14.77
0.09
14.87
20.79
14.28
-0.90
-15.74
-21.35
-14.09
2.21
18.44
25.47
19.45
4.06
-11.72
-18.74
-13.03
2.03
17.65
24.78
19.37
4.62
-10.83
-18.08
-12.95
1.52
17.00
24.68
20.40
7.07
-7.27
-14.08
-9.51
3.45
16.61
21.55
14.61
-0.82
-16.14
-22.60
-16.31
-0.76
15.15
22.10
15.80
-0.64
-18.34
-27.77
-24.16
-10.18
5.67
14.05
10.10
-3.67
-18.99
-26.65
-21.84
-6.96
9.73
18.88
15.46
1.64
-14.42
-23.41
-20.07
-6.37
9.71
18.96
16.20
3.42
-11.49
-19.37
-15.23
-1.15
14.82
23.46
19.80
6.03
-9.66
-18.02
-14.03
-0.05
15.60
23.53
18.76
3.89
-12.57
-20.99
-16.40
-1.32
15.51
24.35
20.11
5.19
-11.76
-21.06
-17.45
-3.23
13.21
22.24
18.59
4.45
-11.98
-21.07
-17.49
-3.18
13.65
23.38
20.41
6.51
-10.20
-20.06
-17.27
-3.38
13.72
24.30
22.44
9.38
-7.30
-18.06
-17.00
-5.19
9.95
19.22
16.99
4.64
-10.29
-18.67
-15.13
-1.44
14.53
23.35
19.62
5.22
-11.82
-21.90
-19.52
-6.47
9.23
18.09
14.70
0.90
-15.29
-24.41
-21.05
-7.10
9.40
18.86
15.77
1.85
-14.87
-24.79
-22.19
-8.52
8.32
18.67
16.57
3.26
-13.63
-24.42
-22.98
-10.15
6.57
17.51
16.34
3.77
-12.83
-23.72
-22.37
-9.28
8.27
20.44
20.47
8.65
-7.97
-19.57
-19.38
-7.48
9.15
20.83
20.83
9.28
-6.82
-17.95
-17.48
-5.76
10.24
20.97
20.01
7.94
-8.10
-18.48
-16.96
-4.21
12.36
23.09
21.65
8.75
-8.17
-19.49
-18.80
-6.78
9.39
20.19
19.33
7.46
-8.36
-18.74
-17.57
-5.43
10.56
21.01
19.63
6.93
-10.02
-21.71
-21.48
-9.49
7.51
19.94
20.87
10.00
-6.27
-18.40
-19.33
-8.42
8.06
20.61
21.92
11.12
-5.59
-18.60
-20.30
-9.61
7.49
21.24
23.89
14.08
-2.30
-15.58
-17.99
-8.12
8.17
21.26
23.39
13.24
-3.31
-16.68
-19.09
-9.26
6.97
19.97
22.08
12.04
-4.26
-17.21
-19.25
-9.24
6.78
19.22
20.53
9.72
-7.09
-20.29
-22.31
-12.17
4.01
16.55
17.95
7.20
-9.58
-22.69
-24.55
-13.99
2.96
16.62
19.22
9.38
-7.13
-20.77
-23.65
-14.16
2.13
15.71
18.66
9.26
-6.97
-20.49
-23.33
-13.69
2.90
16.76
19.73
9.89
-7.25
-21.95
-25.78
-16.59
0.32
15.21
19.61
11.17
-4.97
-19.20
-23.01
-13.94
2.96
18.01
22.51
13.79
-3.26
-18.98
-24.54
-16.93
-0.69
14.78
20.69
13.88
-1.27
-15.62
-20.50
-12.76
3.38
18.76
24.56
17.49
1.56
-14.12
-20.72
-14.67
0.21
15.07
21.15
14.91
0.17
-14.31
-19.81
-12.94
2.45
17.39
23.10
16.19
0.64
-14.43
-20.23
-13.26
2.40
17.64
23.55
16.71
1.23
-13.74
-19.31
-12.12
3.74
19.00
24.69
17.36
1.05
-14.96
-21.65
-15.32
0.09
15.44
21.60
14.83
-1.03
-16.87
-23.46
-16.93
-0.85
15.64
23.18
17.53
1.97
-14.52
-22.56
-17.57
-2.51
14.00
22.60
18.57
4.60
-10.96
-18.86
-14.43
-0.18
15.51
23.45
18.98
4.72
-10.83
-18.38
-13.23
1.90
18.44
26.90
22.45
7.68
-9.01
-18.19
-15.01
-1.91
12.80
19.95
14.88
0.24
-15.54
-23.22
-18.13
-3.01
13.47
21.67
16.64
0.96
-16.66
-26.41
-22.95
-8.56
8.27
17.79
14.69
1.12
-14.63
-23.03
-18.85
-4.28
12.35
21.33
17.30
2.33
-15.27
-25.63
-23.00
-9.07
8.04
18.54
16.58
3.69
-12.20
-21.43
-18.27
-4.32
12.38
22.02
18.83
4.40
-13.11
-23.79
-21.61
-7.90
9.46
20.61
19.45
7.09
-8.95
-19.16
-17.63
-5.39
10.16
19.66
17.34
4.32
-11.98
-22.14
-20.21
-7.16
9.68
20.76
19.84
7.58
-8.93
-20.21
-19.83
-8.14
7.97
19.08
18.76
7.26
-8.53
-19.26
-18.44
-6.38
10.01
21.16
20.43
8.03
-9.06
-21.12
-21.30
-9.56
7.22
19.33
19.84
8.58
-7.69
-19.38
-19.58
-8.11
8.39
20.38
20.91
9.82
-6.35
-18.11
-18.58
-7.45
8.76
20.57
21.06
9.83
-6.64
-18.88
-19.80
-8.90
7.45
19.72
20.72
9.88
-6.56
-19.03
-20.30
-9.58
6.92
19.71
21.52
11.46
-4.35
-16.58
-18.02
-7.84
7.92
19.87
20.75
9.76
-7.03
-20.12
-22.17
-12.13
4.03
16.97
19.30
9.90
-5.47
-17.66
-19.37
-9.51
6.23
18.60
20.21
9.92
-6.59
-19.91
-22.40
-12.52
4.18
18.28
21.87
13.07
-2.85
-16.64
-20.35
-11.99
3.33
16.46
19.54
10.72
-4.81
-17.82
-20.50
-10.99
5.38
19.28
22.70
13.69
-2.52
-16.69
-20.75
-12.61
2.75
16.23
19.82
11.41
-4.19
-17.97
-21.99
-13.96
1.39
15.14
19.32
11.54
-3.54
-17.04
-20.96
-12.90
2.49
16.21
20.09
11.77
-4.06
-18.16
-22.28
-13.80
2.54
17.54
22.73
15.38
0.09
-14.07
-18.71
-11.12
4.17
18.07
22.22
14.02
-1.98
-16.59
-21.45
-13.76
1.92
16.40
21.20
13.40
-2.52
-17.45
-22.78
-15.53
-0.01
14.64
19.76
12.41
-3.10
-17.51
-22.25
-14.24
1.99
17.08
22.20
14.24
-2.24
-17.82
-23.52
-16.12
0.08
15.72
21.89
15.39
0.37
-13.97
-19.00
-11.58
3.98
18.53
23.43
15.57
-0.64
-16.04
-21.80
-14.71
1.14
16.59
22.79
16.30
0.98
-14.17
-20.43
-14.22
0.65
15.36
21.07
14.18
-1.53
-17.19
-23.75
-17.46
-1.80
14.30
21.77
16.62
2.15
-12.91
-19.70
-14.19
0.35
15.43
22.22
16.78
2.40
-12.51
-19.08
-13.45
1.22
16.32
22.98
17.15
1.98
-13.90
-21.52
-16.55
-2.00
13.66
21.30
16.43
1.87
-13.99
-21.95
-17.37
-2.75
13.55
22.30
18.63
4.77
-11.16
-19.98
-16.69
-3.43
11.89
20.18
16.54
3.22
-11.90
-19.71
-15.42
-1.26
14.72
23.34
19.67
5.79
-10.24
-19.29
-16.18
-2.81
13.01
22.03
18.89
5.24
-11.33
-21.52
-19.71
-7.18
8.69
18.64
17.03
4.95
-10.33
-19.74
-17.64
-5.21
10.27
19.63
17.13
3.88
-12.79
-23.55
-22.34
-9.91
6.62
17.81
17.39
5.80
-10.00
-20.63
-19.73
-7.65
8.62
19.53
18.58
6.12
-10.75
-22.32
-21.90
-9.78
6.89
18.32
17.80
5.61
-11.12
-22.60
-22.13
-9.99
6.66
18.06
17.51
5.39
-11.06
-22.07
-20.95
-8.15
9.00
20.53
19.66
6.80
-10.71
-22.80
-22.58
-10.26
6.85
18.77
18.61
6.63
-9.91
-21.08
-20.10
-7.34
9.84
21.41
20.54
7.70
-9.72
-21.56
-20.88
-7.96
9.81
22.32
22.49
10.45
-6.67
-18.99
-19.53
-8.29
7.90
19.44
19.56
8.30
-7.68
-18.96
-18.91
-7.50
8.62
20.06
20.10
8.59
-7.90
-19.91
-20.42
-8.96
8.14
21.31
23.20
12.91
-3.60
-16.82
-19.29
-9.70
6.18
19.07
21.42
11.94
-3.65
-16.05
-17.60
-7.03
9.87
23.47
25.87
15.57
-1.73
-16.30
-20.12
-11.43
4.21
17.21
19.60
9.70
-6.81
-20.33
-22.77
-12.52
4.63
18.78
21.66
11.55
-5.76
-20.21
-23.42
-13.48
3.88
18.66
22.40
13.12
-3.51
-17.71
-21.13
-11.87
4.49
18.27
21.35
12.08
-3.91
-16.92
-19.05
-8.70
8.28
22.12
24.75
14.47
-2.91
-17.60
-21.25
-11.87
5.14
20.12
24.61
16.35
0.28
-14.18
-18.75
-10.94
4.43
18.22
22.17
13.79
-2.16
-16.56
-21.11
-13.21
2.51
16.83
21.23
12.92
-3.57
-18.92
-24.42
-16.97
-0.94
14.32
19.96
12.66
-3.31
-18.73
-24.69
-17.85
-2.37
12.54
18.03
10.85
-4.75
-19.56
-24.79
-17.31
-1.54
13.16
18.01
9.99
-6.34
-21.46
-26.58
-18.68
-2.37
12.92
18.40
11.15
-4.27
-18.60
-23.22
-15.37
0.41
14.80
19.29
11.08
-5.17
-20.06
-24.85
-16.46
0.63
17.08
23.95
17.86
2.86
-12.10
-18.24
-12.07
2.69
17.30
23.19
16.87
1.96
-12.83
-18.90
-12.51
2.80
18.37
25.28
19.57
4.56
-11.13
-18.43
-13.22
1.40
16.74
23.68
17.96
2.69
-13.43
-21.28
-16.48
-2.11
13.21
20.39
15.17
0.77
-14.19
-20.61
-14.41
1.09
17.03
24.20
18.51
3.34
-12.33
-19.27
-13.27
2.37
18.73
26.48
21.22
6.04
-10.48
-19.05
-15.15
-1.47
13.70
21.30
16.78
2.63
-13.01
-21.19
-17.24
-3.60
11.62
19.36
14.82
0.42
-15.71
-24.34
-20.63
-6.89
8.63
16.56
11.93
-2.92
-19.66
-28.78
-25.08
-10.75
5.95
15.50
12.65
-0.54
-15.91
-24.09
-19.87
-5.30
11.61
21.47
19.07
6.31
-9.04
-17.79
-14.75
-1.65
13.88
22.78
19.79
6.52
-9.45
-19.01
-16.66
-3.80
12.04
21.62
19.36
6.72
-8.66
-17.41
-13.97
0.06
16.68
26.19
22.82
8.15
-9.68
-20.75
-18.93
-5.46
11.83
23.13
22.20
10.05
-5.93
-16.18
-14.64
-2.15
13.98
24.27
22.66
9.87
-6.84
-18.04
-17.43
-5.57
10.50
21.27
20.32
7.98
-8.87
-20.80
-21.27
-10.47
4.74
14.98
13.69
1.17
-15.65
-27.19
-26.85
-14.94
1.43
12.60
11.97
-0.02
-16.17
-26.81
-25.45
-12.65
4.39
15.97
15.64
3.91
-12.10
-22.77
-21.61
-8.91
8.38
20.66
21.28
10.23
-5.72
-17.15
-17.16
-5.52
11.29
23.77
24.89
14.15
-2.17
-14.59
-16.01
-5.69
10.14
22.02
22.73
11.52
-5.25
-18.02
-19.33
-8.45
8.23
20.88
21.99
10.94
-5.75
-18.02
-18.39
-6.30
11.44
24.65
25.70
13.97
-3.77
-17.39
-19.22
-8.47
8.38
21.40
22.96
12.12
-4.96
-18.54
-21.06
-11.36
4.55
17.12
18.76
8.33
-8.21
-21.25
-23.20
-12.95
3.35
15.95
17.12
5.86
-11.57
-25.24
-27.39
-16.95
-0.21
12.93
14.73
4.16
-12.55
-25.45
-26.70
-15.03
3.52
19.04
23.44
14.99
-0.64
-13.92
-16.80
-7.51
8.52
21.79
24.42
14.75
-1.59
-14.97
-17.47
-7.50
9.05
22.39
24.49
13.89
-3.37
-17.37
-20.01
-9.82
7.21
21.14
23.88
13.93
-2.87
-16.63
-19.33
-9.35
7.50
21.38
24.15
13.98
-3.45
-18.38
-22.59
-14.17
1.29
14.04
15.88
5.07
-12.63
-27.21
-30.34
-20.20
-2.65
12.26
16.03
6.76
-9.88
-23.94
-27.01
-17.00
0.68
16.40
21.82
14.68
0.00
-13.02
-16.34
-7.67
8.14
22.01
25.91
17.55
1.70
-12.46
-16.79
-8.81
6.67
20.44
24.19
15.48
-0.74
-15.09
-19.15
-10.49
5.90
20.49
24.74
16.17
-0.34
-15.28
-20.17
-12.31
3.56
18.12
22.91
15.10
-0.83
-15.83
-21.58
-15.24
-1.14
11.85
15.51
7.25
-8.46
-22.56
-26.78
-18.54
-2.62
11.64
15.72
7.00
-9.64
-24.55
-28.91
-19.71
-1.62
15.78
23.43
17.92
3.38
-11.13
-16.76
-10.07
5.13
19.98
25.84
19.30
4.18
-10.65
-16.50
-9.95
5.13
19.76
25.07
17.59
1.26
-14.79
-21.55
-15.22
0.44
16.46
23.75
18.36
3.68
-11.63
-18.71
-13.67
0.08
13.87
18.89
11.40
-4.92
-21.12
-28.12
-22.10
-6.76
8.79
15.41
9.27
-5.89
-21.01
-26.93
-19.84
-3.37
13.51
21.69
17.20
3.41
-10.97
-17.06
-10.92
4.07
19.22
25.61
19.34
3.96
-11.69
-18.49
-12.42
3.06
19.00
26.19
20.54
5.33
-10.65
-18.28
-13.40
0.88
15.91
22.68
16.91
1.62
-14.72
-23.07
-19.06
-5.50
9.21
16.00
10.46
-4.65
-20.89
-29.06
-24.47
-9.69
6.99
16.37
13.64
1.15
-13.00
-19.81
-14.56
0.27
16.49
24.93
20.83
6.76
-8.93
-16.87
-12.28
2.27
18.26
26.19
21.17
5.77
-11.44
-20.90
-17.52
-3.58
12.60
21.55
18.11
4.39
-11.64
-20.71
-17.73
-4.69
10.42
18.25
13.56
-1.70
-19.35
-29.68
-26.98
-12.87
4.59
15.64
14.38
2.23
-12.95
-21.59
-17.90
-3.40
14.05
24.76
22.91
9.94
-6.39
-16.46
-14.42
-1.54
14.51
24.22
21.73
8.28
-8.50
-19.06
-17.38
-4.52
12.03
22.68
21.30
8.75
-7.64
-18.33
-17.07
-4.47
12.23
23.40
22.54
9.99
-7.25
-19.63
-20.57
-10.34
4.23
13.73
11.88
-0.71
-16.82
-26.89
-24.58
-10.62
7.54
20.08
20.39
8.90
-7.27
-18.45
-18.04
-6.23
10.13
21.54
21.35
9.63
-6.81
-18.49
-18.61
-7.10
9.36
21.18
21.43
9.94
-6.65
-18.72
-19.24
-7.93
8.50
20.24
20.12
7.76
-10.07
-23.44
-24.95
-14.05
2.59
15.08
16.05
5.00
-11.38
-23.19
-23.06
-10.48
7.83
21.93
24.27
14.12
-2.09
-14.58
-15.93
-5.37
10.79
22.82
23.36
11.67
-5.75
-19.01
-20.50
-9.27
8.24
22.01
24.07
13.16
-4.68
-19.57
-23.52
-14.97
0.34
12.81
14.68
4.47
-12.03
-25.22
-27.24
-16.58
0.93
15.58
19.32
10.53
-5.07
-17.77
-19.49
-8.57
9.20
23.99
27.58
18.17
1.44
-12.83
-16.46
-7.61
8.13
21.12
23.35
13.14
-3.77
-17.76
-20.80
-11.19
5.45
19.40
22.49
12.78
-4.43
-19.60
-24.46
-16.79
-1.59
11.82
15.26
6.44
-9.65
-23.61
-27.10
-17.64
-0.17
15.81
21.65
14.71
-0.26
-13.87
-17.63
-8.93
7.41
21.99
26.35
17.98
1.75
-12.89
-17.51
-9.54
6.22
20.40
24.55
16.00
-0.55
-15.83
-21.33
-14.23
0.93
14.91
19.09
10.56
-6.19
-21.88
-27.78
-20.72
-4.95
10.39
16.60
10.40
-4.07
-17.83
-22.26
-14.11
2.52
18.56
25.14
18.75
3.25
-12.41
-19.26
-13.51
1.37
16.64
23.49
18.08
3.78
-10.88
-17.29
-11.72
2.35
16.35
21.63
14.61
-1.08
-16.69
-23.47
-17.79
-3.29
11.17
16.85
10.14
-5.16
-20.15
-25.93
-18.85
-2.61
13.86
21.51
16.49
2.28
-12.34
-18.48
-12.22
3.03
18.50
25.20
19.07
3.51
-12.63
-20.08
-14.45
1.12
17.70
25.70
20.34
4.38
-13.47
-23.65
-21.16
-8.41
6.30
13.75
9.22
-4.61
-19.41
-25.97
-19.75
-3.58
13.84
23.05
19.29
5.32
-10.24
-17.88
-12.76
2.48
19.22
27.85
23.35
8.16
-9.20
-19.13
-16.42
-3.20
12.29
20.64
16.69
2.54
-13.76
-22.98
-20.01
-6.96
8.17
16.17
12.08
-1.94
-17.83
-26.28
-22.19
-7.58
9.48
19.63
17.48
4.86
-10.36
-18.84
-15.07
-0.73
16.33
26.51
24.04
10.35
-6.78
-17.62
-16.11
-3.31
13.16
23.60
21.88
8.95
-7.73
-18.54
-17.38
-5.24
10.38
19.82
17.05
3.22
-13.97
-24.71
-22.85
-9.50
7.55
18.43
16.86
3.92
-12.66
-23.01
-20.81
-7.03
10.65
22.27
21.36
8.61
-8.42
-19.79
-18.83
-5.98
11.39
23.32
22.92
10.48
-6.83
-19.06
-19.28
-7.56
8.97
20.36
19.65
6.85
-10.99
-23.93
-24.89
-13.75
2.65
14.64
15.34
4.75
-10.32
-20.31
-18.57
-5.30
12.46
24.90
25.12
13.08
-4.30
-17.18
-18.31
-7.22
9.55
22.34
23.81
13.27
-3.09
-15.82
-17.80
-8.35
6.31
16.81
16.22
4.11
-13.10
-25.91
-27.20
-16.36
0.40
13.75
16.52
7.94
-6.18
-16.89
-17.41
-7.06
8.31
19.81
20.68
10.23
-5.63
-17.84
-19.34
-9.14
7.03
19.99
22.31
12.58
-3.82
-17.89
-22.07
-14.58
-0.30
12.12
15.37
7.60
-6.41
-18.24
-20.61
-11.72
3.71
17.18
21.28
14.05
-0.02
-12.54
-16.21
-8.91
4.99
17.23
20.49
12.63
-2.03
-15.22
-19.46
-12.45
1.58
14.26
17.94
10.14
-5.01
-19.09
-24.22
-17.56
-3.02
11.11
16.96
11.70
-0.81
-12.39
-15.43
-7.45
7.27
20.24
23.71
15.33
-0.37
-14.52
-18.99
-11.11
4.68
19.37
24.50
17.09
1.26
-14.16
-20.78
-15.42
-1.92
11.22
15.86
9.08
-5.13
-18.20
-22.02
-13.73
2.47
17.71
23.50
16.71
1.38
-13.65
-19.76
-13.50
1.44
16.39
22.75
16.94
2.41
-12.37
-19.00
-13.93
-0.67
12.43
17.05
9.87
-5.42
-20.25
-26.12
-19.53
-4.01
11.88
19.45
14.93
1.54
-12.39
-18.30
-12.36
2.30
17.39
24.26
18.93
4.37
-11.15
-18.87
-14.54
-0.91
13.84
20.83
15.67
0.97
-15.11
-23.62
-19.98
-6.64
8.40
16.27
12.43
-0.63
-14.90
-21.54
-16.15
-1.46
14.27
22.04
17.43
3.20
-12.29
-19.97
-15.25
-0.75
15.28
23.68
19.67
5.60
-10.51
-19.57
-16.78
-4.28
10.07
17.36
12.89
-0.97
-16.16
-23.60
-18.50
-3.29
13.76
23.25
20.18
6.75
-8.87
-17.46
-13.93
-0.40
15.09
23.31
19.16
4.69
-12.07
-21.76
-19.07
-5.90
9.74
18.37
14.67
0.57
-15.79
-24.75
-20.70
-5.45
12.79
24.11
22.58
9.55
-7.13
-17.76
-16.34
-3.94
11.96
21.92
20.03
7.35
-8.74
-18.86
-17.11
-4.60
11.08
20.37
17.34
3.24
-14.11
-24.90
-22.93
-9.32
8.15
19.54
18.53
6.12
-10.04
-20.13
-17.93
-4.47
12.51
23.17
21.25
7.73
-9.67
-21.05
-19.98
-7.17
9.85
21.17
20.22
7.45
-9.92
-22.16
-22.58
-11.37
4.61
15.90
15.93
4.94
-10.21
-20.08
-18.15
-4.85
12.64
24.45
23.77
10.90
-6.90
-19.54
-19.95
-8.08
8.95
21.14
21.30
9.27
-8.04
-20.77
-21.75
-10.66
5.84
18.07
18.93
8.06
-7.98
-19.65
-19.87
-8.29
8.52
20.86
21.52
10.07
-6.93
-19.68
-20.78
-9.54
7.52
20.52
21.93
10.90
-6.16
-19.46
-21.43
-11.20
4.90
17.11
17.97
6.75
-10.11
-22.65
-23.26
-11.15
7.14
21.42
23.74
13.00
-4.48
-18.57
-21.13
-10.75
6.54
20.74
23.70
13.79
-3.25
-17.74
-21.71
-13.46
1.50
13.83
15.83
6.14
-9.51
-21.64
-22.60
-11.12
6.80
21.31
24.37
14.47
-2.58
-16.93
-20.38
-11.06
5.48
19.61
23.15
14.11
-2.16
-16.26
-20.15
-11.89
3.27
16.03
18.50
8.87
-7.44
-20.95
-23.60
-13.49
3.88
18.79
22.86
13.92
-2.72
-17.39
-21.53
-12.73
3.90
18.68
22.97
14.18
-2.67
-17.92
-22.83
-14.76
1.25
15.45
19.16
9.88
-7.06
-21.68
-25.10
-14.82
3.76
20.49
26.31
18.48
2.07
-13.13
-18.28
-10.55
5.27
19.74
24.25
15.99
-0.39
-15.62
-21.14
-14.14
0.81
14.37
17.94
8.70
-8.66
-24.51
-29.85
-21.44
-3.76
13.55
21.19
15.54
0.62
-14.33
-20.25
-13.54
1.85
16.78
22.30
14.85
-1.54
-17.65
-24.38
-18.11
-2.92
11.78
16.73
8.30
-9.31
-26.40
-33.35
-26.19
-8.90
8.76
16.95
11.34
-4.48
-21.18
-29.23
-24.39
-10.17
4.36
9.94
2.73
-13.43
-29.22
-35.27
-27.64
-10.26
7.38
15.80
11.02
-3.06
-16.93
-21.06
-11.38
8.19
28.02
38.23
34.31
19.62
3.45
-4.52
0.34
14.88
30.15
36.65
29.93
13.29
-4.15
-12.69
-7.86
7.00
22.55
28.97
21.73
4.32
-13.73
-22.36
-16.75
-0.18
17.91
27.46
23.44
8.72
-7.76
-16.34
-12.04
2.36
18.27
26.17
21.20
6.00
-10.96
-20.23
-16.93
-3.59
11.34
18.46
13.04
-2.17
-18.38
-25.91
-19.84
-3.00
15.52
25.67
22.07
7.17
-10.22
-20.09
-16.88
-2.74
13.88
23.11
19.39
4.69
-12.72
-23.10
-20.80
-7.63
8.30
17.31
13.92
0.07
-15.95
-24.29
-19.48
-3.63
14.60
25.11
22.13
7.63
-9.83
-20.12
-17.32
-3.22
13.79
23.60
20.18
5.16
-13.21
-24.73
-23.11
-9.56
8.02
19.56
18.72
6.52
-9.35
-19.06
-16.41
-2.60
14.46
24.83
22.32
8.20
-9.51
-20.73
-19.15
-6.00
10.74
20.98
18.38
4.14
-13.73
-25.03
-23.28
-9.44
8.62
20.69
20.14
7.72
-9.01
-20.03
-18.74
-5.82
11.22
22.41
21.13
7.91
-9.78
-22.06
-22.18
-10.55
5.59
16.47
15.48
3.12
-13.34
-24.09
-22.54
-9.24
8.38
20.37
20.01
7.87
-8.66
-19.58
-18.20
-5.06
12.31
23.80
22.63
9.25
-8.81
-21.45
-21.64
-9.53
7.73
20.21
20.93
9.83
-6.25
-17.72
-17.83
-6.56
9.32
20.33
19.78
7.80
-8.81
-20.46
-20.49
-9.00
7.06
17.93
16.73
3.65
-14.14
-26.44
-25.90
-12.25
7.39
22.55
25.31
14.82
-2.31
-15.93
-18.10
-7.74
8.86
21.75
23.20
12.18
-5.02
-18.55
-20.74
-10.58
5.69
18.31
19.74
9.10
-7.31
-19.67
-20.50
-8.90
8.74
22.54
24.77
14.37
-2.40
-15.75
-17.85
-7.59
8.86
21.55
22.52
10.60
-7.93
-22.85
-25.86
-15.35
2.58
17.61
21.26
11.69
-5.19
-19.24
-22.04
-11.77
5.64
20.10
23.18
13.00
-4.59
-19.58
-23.58
-14.67
1.53
15.33
18.55
9.47
-6.31
-19.18
-21.22
-10.84
6.19
20.01
22.51
12.04
-5.58
-20.30
-23.67
-13.72
3.83
18.81
22.49
12.57
-5.42
-21.39
-26.36
-17.73
-0.68
14.95
20.32
12.77
-2.72
-16.60
-20.35
-11.51
4.87
19.27
23.22
14.38
-2.21
-16.94
-21.38
-13.10
2.83
16.80
20.34
11.09
-5.72
-20.27
-23.86
-13.96
4.11
20.29
25.53
16.99
-0.17
-15.89
-20.85
-12.00
5.68
22.05
27.59
19.00
1.01
-16.25
-23.25
-16.38
-0.15
15.63
21.62
14.39
-1.59
-16.64
-21.73
-13.64
2.97
18.43
23.69
15.59
-1.21
-17.11
-23.07
-15.92
-0.18
14.59
19.40
11.20
-5.40
-20.70
-25.58
-16.91
0.64
17.15
23.31
15.76
-0.93
-16.89
-22.80
-15.15
1.56
17.53
23.35
15.34
-2.14
-19.39
-26.85
-20.56
-4.45
12.07
19.55
13.97
-1.02
-16.22
-22.33
-15.35
1.05
17.63
24.98
19.05
3.41
-12.71
-19.90
-14.04
1.26
16.79
23.20
16.57
0.68
-15.13
-21.61
-14.86
1.16
17.11
23.68
17.02
1.07
-14.93
-21.62
-15.15
0.67
16.46
22.79
15.68
-1.08
-18.03
-25.53
-19.29
-2.90
14.27
22.52
17.39
2.26
-13.66
-20.80
-14.66
1.43
18.33
26.33
20.74
4.55
-13.30
-23.06
-19.72
-5.85
10.02
18.32
14.15
0.05
-15.45
-22.84
-17.29
-1.51
15.65
24.44
19.85
4.48
-12.79
-22.13
-18.32
-3.93
12.27
20.46
15.42
-0.25
-17.72
-26.99
-22.60
-6.95
11.21
21.74
19.00
5.07
-11.58
-20.96
-17.40
-2.85
14.29
24.06
20.76
6.20
-11.26
-21.71
-19.33
-5.81
10.76
20.66
18.28
5.35
-10.08
-18.58
-14.79
-0.78
15.24
23.76
19.55
4.85
-11.96
-21.20
-17.54
-3.22
13.22
21.93
17.48
2.11
-15.47
-25.16
-21.28
-5.93
12.17
22.74
19.84
5.33
-12.16
-22.41
-19.32
-4.72
12.92
23.26
20.10
5.09
-13.35
-24.78
-22.75
-8.45
9.90
21.94
21.07
8.23
-8.74
-19.71
-18.15
-4.92
12.26
23.34
21.80
8.38
-9.31
-21.29
-20.92
-8.76
7.83
19.02
18.20
5.89
-10.66
-21.75
-20.84
-8.46
8.13
19.22
18.34
6.14
-10.04
-20.44
-18.79
-5.95
10.47
20.60
18.23
4.45
-12.83
-23.55
-21.34
-7.25
10.81
22.70
21.87
9.14
-7.77
-18.92
-17.77
-5.03
11.78
22.75
21.26
7.90
-9.91
-22.15
-21.99
-9.74
7.34
19.24
19.03
6.91
-9.94
-21.49
-20.75
-7.88
9.77
22.03
21.70
8.81
-9.34
-22.45
-23.09
-10.99
6.79
20.06
21.37
10.33
-6.21
-18.29
-18.55
-6.68
10.51
22.97
23.30
11.18
-6.64
-20.05
-21.58
-10.61
6.28
19.09
20.37
9.47
-7.07
-19.45
-20.31
-9.09
7.59
19.86
20.42
8.79
-8.24
-20.76
-21.42
-9.84
7.16
19.56
19.91
7.80
-9.92
-23.19
-24.41
-12.99
4.46
17.90
19.84
9.62
-6.31
-18.14
-18.69
-7.51
8.75
20.34
20.16
8.05
-9.02
-21.00
-20.66
-7.83
10.35
23.61
24.44
12.44
-5.33
-18.57
-19.56
-7.74
9.96
23.19
24.07
11.90
-6.52
-20.77
-22.90
-11.96
5.41
18.91
20.61
9.57
-7.68
-20.95
-22.42
-11.19
6.07
19.16
20.24
8.39
-9.68
-23.65
-25.43
-13.87
4.50
19.39
22.53
12.61
-4.13
-17.57
-19.53
-8.70
8.62
22.22
23.84
12.16
-6.55
-21.86
-25.28
-15.02
2.86
18.08
22.05
12.83
-3.91
-18.15
-21.53
-12.03
4.74
18.97
22.38
12.95
-3.78
-18.21
-22.08
-13.36
2.62
16.33
19.58
10.43
-5.73
-19.32
-22.09
-12.09
5.16
19.77
23.28
13.66
-3.57
-18.44
-22.50
-13.62
2.70
16.59
19.76
10.26
-6.21
-19.79
-22.18
-11.55
6.34
21.55
25.64
16.54
-0.16
-14.71
-18.74
-10.13
5.73
19.21
22.02
12.17
-4.88
-19.40
-22.99
-13.60
3.34
18.01
21.94
13.01
-3.40
-17.47
-20.92
-11.72
4.49
17.87
20.11
9.34
-8.55
-23.38
-26.53
-15.90
2.76
19.18
24.47
16.18
-0.25
-14.83
-18.75
-9.61
7.19
21.70
25.08
15.00
-3.14
-19.14
-24.02
-15.14
2.14
17.67
22.33
13.39
-3.97
-19.60
-24.50
-15.86
1.10
16.35
20.95
12.20
-4.70
-19.77
-24.13
-15.17
1.94
17.28
21.94
13.32
-3.45
-18.46
-22.72
-13.51
4.06
19.92
24.81
15.75
-2.29
-19.13
-25.24
-17.25
0.08
16.67
22.99
15.60
-0.92
-16.62
-22.22
-14.37
2.21
17.70
22.97
14.88
-1.81
-17.37
-22.70
-14.74
1.85
17.37
22.79
15.06
-1.20
-16.39
-21.51
-13.46
3.12
18.53
23.64
15.26
-2.11
-18.69
-25.14
-17.94
-1.37
14.94
21.70
15.29
-0.12
-15.09
-20.53
-12.96
3.27
18.59
23.87
15.72
-1.39
-17.83
-24.31
-17.31
-1.05
15.00
21.64
15.33
0.11
-14.83
-20.52
-13.51
2.14
17.19
22.71
15.31
-0.85
-16.39
-22.22
-14.78
1.76
17.89
24.37
17.51
1.39
-14.50
-20.91
-14.03
2.08
17.99
24.35
17.24
0.60
-16.34
-24.22
-19.03
-4.35
10.83
17.38
11.48
-3.24
-17.86
-23.41
-16.21
-0.15
15.60
21.95
15.27
-0.50
-16.07
-22.34
-15.59
0.29
16.01
22.48
15.99
0.49
-14.75
-20.64
-13.43
2.85
18.88
25.36
18.41
1.94
-14.82
-22.52
-17.20
-2.51
12.48
18.67
12.29
-2.85
-17.70
-23.26
-15.91
0.39
16.39
22.96
16.51
1.02
-14.19
-20.09
-13.11
2.70
18.02
23.85
16.64
0.56
-15.07
-21.20
-14.29
1.58
17.12
23.21
16.15
-0.06
-16.26
-23.27
-17.27
-1.99
13.50
20.07
13.85
-1.45
-16.79
-23.06
-16.44
-0.65
15.12
21.73
15.38
-0.11
-15.49
-21.66
-14.94
0.68
15.85
21.48
13.97
-2.49
-18.39
-24.47
-16.97
0.03
17.04
24.55
18.45
2.53
-13.95
-21.44
-15.66
-0.08
16.17
23.55
17.70
1.97
-14.59
-22.50
-17.33
-2.32
13.56
20.94
15.55
0.66
-14.79
-21.68
-15.91
-0.96
14.23
20.60
14.25
-1.10
-16.32
-22.26
-15.01
1.57
18.13
25.14
18.45
1.81
-15.41
-23.42
-17.80
-1.99
14.76
22.72
17.41
2.20
-13.72
-20.77
-14.61
1.25
17.55
24.63
18.23
1.83
-15.26
-23.50
-18.55
-3.78
11.78
18.83
13.16
-1.83
-17.16
-23.68
-17.31
-1.59
14.46
21.48
15.33
-0.42
-16.59
-23.60
-17.15
-0.75
16.27
24.09
18.17
1.91
-15.31
-23.53
-18.03
-2.03
15.20
23.69
18.69
3.24
-13.51
-21.92
-17.27
-2.65
13.04
20.39
14.89
-0.29
-16.25
-23.64
-17.99
-2.46
14.09
22.14
17.14
2.15
-14.04
-21.83
-16.56
-1.15
15.54
23.83
18.90
3.60
-13.23
-21.84
-17.30
-2.29
14.43
23.17
18.92
4.27
-12.15
-20.88
-16.96
-2.93
12.77
20.81
16.32
1.93
-13.89
-21.75
-16.78
-1.64
15.09
23.74
19.22
4.06
-13.22
-22.89
-19.69
-5.89
10.19
19.01
15.43
1.71
-13.91
-22.07
-17.82
-3.45
12.76
21.50
17.81
3.97
-11.72
-20.00
-15.84
-1.53
14.69
23.36
19.34
4.83
-11.89
-21.27
-17.91
-3.81
12.86
22.45
19.37
5.44
-11.31
-21.22
-18.58
-4.96
11.70
21.63
18.96
5.08
-12.19
-23.07
-21.51
-8.65
7.80
18.14
16.35
3.61
-12.32
-21.85
-18.99
-5.14
11.83
22.15
19.87
6.49
-9.99
-19.78
-16.96
-3.07
13.77
23.64
20.52
6.00
-11.83
-22.89
-21.01
-7.48
9.78
20.78
19.32
6.57
-9.72
-19.80
-17.63
-4.42
12.06
22.13
19.85
6.53
-10.00
-20.21
-18.23
-5.43
10.46
19.91
17.17
3.68
-12.79
-22.72
-20.29
-6.85
9.93
20.38
18.48
5.35
-11.53
-22.48
-21.29
-8.76
7.83
18.84
17.98
5.88
-10.27
-20.94
-19.84
-7.54
8.79
19.67
18.84
6.95
-8.77
-18.91
-17.25
-4.48
12.15
23.13
22.18
9.97
-6.32
-17.21
-16.34
-4.29
11.83
22.41
20.90
7.78
-9.88
-22.25
-22.51
-10.72
6.17
18.36
18.82
7.43
-9.02
-20.81
-20.94
-9.29
7.25
18.90
18.75
6.80
-9.84
-21.28
-20.54
-7.67
10.11
22.78
23.20
11.41
-5.49
-17.53
-17.55
-5.57
11.32
23.04
22.39
9.36
-8.93
-22.25
-23.16
-11.38
6.06
18.95
19.79
8.26
-8.71
-20.95
-21.14
-9.09
8.02
19.97
19.48
6.57
-11.38
-23.94
-23.70
-10.61
7.93
21.47
22.54
10.97
-6.00
-18.20
-18.34
-6.42
10.35
21.82
20.83
7.58
-10.54
-23.17
-22.99
-10.07
8.23
21.51
22.42
10.84
-6.14
-18.40
-18.84
-7.38
8.91
20.12
19.32
6.59
-10.92
-23.23
-23.30
-11.05
6.53
19.50
20.74
9.86
-6.42
-18.49
-19.24
-8.33
7.67
19.26
19.49
8.17
-8.08
-19.73
-19.86
-8.26
8.41
20.50
20.97
9.50
-7.34
-19.81
-20.70
-9.44
7.50
20.31
21.55
10.37
-6.92
-20.51
-22.78
-12.63
3.80
16.75
18.56
8.13
-8.35
-21.15
-22.52
-11.32
6.22
20.23
22.77
12.63
-4.07
-17.42
-19.38
-8.63
8.76
22.73
25.03
14.15
-3.93
-19.06
-22.87
-13.59
2.95
16.70
19.40
9.47
-7.11
-20.28
-21.98
-10.88
6.61
20.23
21.83
10.29
-7.70
-21.61
-23.17
-11.17
7.71
22.86
25.82
15.14
-2.72
-17.41
-20.44
-10.24
7.04
21.20
23.80
13.27
-4.42
-19.19
-22.76
-13.46
2.83
16.14
18.40
8.15
-8.61
-21.86
-23.62
-12.54
5.20
19.45
22.10
11.70
-5.66
-19.91
-22.83
-12.74
4.53
19.12
22.80
13.58
-3.03
-17.51
-21.64
-13.32
2.31
15.94
19.46
10.80
-4.91
-18.33
-21.31
-11.76
5.04
19.45
23.04
13.57
-3.70
-18.89
-23.26
-14.28
2.93
18.46
23.45
15.17
-1.43
-16.54
-21.37
-13.09
3.29
18.05
22.42
13.70
-3.06
-18.11
-22.64
-13.92
3.01
18.37
23.22
14.84
-1.78
-16.87
-21.42
-12.66
4.42
19.88
24.55
15.54
-2.24
-18.77
-24.83
-17.29
-0.94
14.35
19.47
11.50
-4.73
-19.39
-23.63
-14.70
2.27
17.31
21.51
12.23
-5.17
-20.50
-24.68
-14.92
3.42
20.15
26.00
18.00
1.24
-14.41
-19.84
-12.10
3.96
18.71
23.31
14.94
-1.65
-16.93
-22.15
-14.42
1.69
16.70
21.86
14.13
-2.04
-17.21
-22.49
-14.66
1.90
17.69
23.63
16.23
-0.27
-16.33
-22.67
-15.48
1.19
17.88
25.11
18.81
2.75
-13.84
-21.53
-16.22
-1.48
13.64
19.90
13.39
-2.19
-17.72
-23.96
-17.06
-0.87
15.25
21.87
15.08
-1.25
-17.65
-24.56
-17.90
-1.48
15.21
22.60
16.62
1.03
-14.72
-21.30
-14.84
0.60
15.52
20.69
12.61
-4.28
-20.23
-25.85
-17.60
0.07
17.30
24.55
17.99
1.72
-14.80
-22.12
-16.22
-0.78
15.12
22.25
16.62
1.63
-13.88
-20.80
-15.12
-0.20
15.12
21.76
15.72
0.39
-15.20
-21.86
-15.37
0.89
17.88
26.11
20.99
5.56
-11.28
-20.00
-15.72
-1.22
14.82
22.85
17.93
2.73
-14.16
-23.15
-19.26
-5.06
10.85
18.96
14.44
0.08
-15.47
-22.69
-17.00
-1.47
14.94
22.59
16.93
1.16
-15.61
-23.67
-18.38
-2.89
13.69
21.72
16.60
1.45
-14.74
-22.51
-17.28
-2.15
14.06
22.00
17.20
2.65
-12.94
-20.35
-15.05
-0.02
16.07
23.85
18.55
2.95
-14.38
-23.82
-20.25
-6.05
10.39
19.44
15.94
2.15
-13.53
-21.49
-16.65
-1.48
15.31
23.88
19.08
3.48
-13.95
-23.19
-18.97
-3.79
13.40
22.67
18.78
4.30
-12.01
-20.49
-16.12
-1.59
14.33
22.08
16.82
1.43
-15.30
-23.72
-18.87
-3.49
13.66
22.82
18.76
3.89
-13.33
-23.10
-19.95
-5.81
11.16
21.26
18.89
5.64
-10.62
-20.32
-17.88
-4.83
10.97
19.97
16.63
2.66
-13.78
-22.97
-19.23
-4.35
13.32
23.82
21.25
7.32
-9.76
-20.12
-17.88
-4.65
11.51
20.95
18.00
4.47
-11.62
-20.67
-17.16
-3.00
13.58
22.86
19.23
4.58
-12.90
-23.32
-20.89
-7.20
9.73
20.11
18.11
5.09
-11.15
-20.97
-18.55
-5.20
11.25
21.13
18.48
4.59
-12.63
-23.28
-21.14
-7.37
10.16
21.41
19.99
6.90
-10.00
-20.75
-19.02
-5.90
10.76
21.04
18.71
5.12
-11.79
-22.07
-19.61
-5.78
11.38
21.91
19.72
6.24
-10.63
-21.03
-18.91
-5.52
11.37
21.97
20.21
7.17
-9.53
-20.13
-18.41
-5.27
11.68
22.61
21.12
7.94
-9.28
-20.57
-19.26
-5.98
11.63
23.44
22.61
9.68
-7.74
-19.58
-19.02
-6.63
10.06
21.02
19.58
6.47
-10.72
-21.99
-20.79
-7.98
8.78
19.47
17.70
4.47
-12.46
-23.09
-21.14
-7.65
9.52
20.42
18.74
5.52
-11.51
-22.45
-20.99
-8.00
8.90
19.90
18.66
5.92
-10.84
-21.84
-20.58
-7.68
9.48
21.12
20.62
8.47
-7.94
-18.82
-17.48
-4.41
13.02
24.75
23.86
10.65
-7.55
-20.60
-21.35
-9.83
6.88
18.77
18.80
7.11
-9.25
-20.38
-19.51
-6.98
9.85
20.95
19.61
6.31
-11.42
-23.44
-22.90
-10.14
7.41
19.72
19.90
8.09
-8.60
-20.39
-20.40
-8.61
8.10
20.13
20.66
9.60
-6.28
-17.49
-17.18
-5.36
11.18
22.73
22.24
9.62
-8.31
-21.61
-23.05
-12.22
4.23
16.44
17.29
6.47
-9.31
-20.33
-19.63
-7.15
10.11
22.15
21.87
9.18
-8.86
-22.11
-23.19
-11.65
5.67
18.80
20.29
9.52
-6.96
-19.40
-20.40
-9.28
7.48
20.19
21.48
10.69
-5.67
-17.88
-18.55
-7.10
9.91
22.55
23.32
11.59
-6.06
-19.64
-21.61
-11.27
4.89
16.99
17.59
6.17
-10.71
-23.07
-23.48
-11.28
6.88
20.92
23.09
12.42
-4.75
-18.39
-20.73
-10.56
5.91
18.82
20.39
9.49
-7.47
-20.46
-21.54
-9.68
8.63
23.06
25.52
14.80
-2.58
-16.49
-18.87
-8.62
7.86
20.57
21.72
10.48
-6.66
-19.70
-20.96
-9.64
7.71
21.02
22.43
10.96
-7.01
-21.29
-23.83
-13.24
4.31
18.72
21.78
11.87
-5.07
-19.06
-22.00
-12.32
3.96
16.86
18.35
7.15
-10.40
-24.11
-25.92
-14.56
3.53
18.11
21.06
11.09
-5.56
-18.83
-20.72
-9.94
7.32
21.04
23.23
12.63
-4.47
-17.98
-19.78
-8.67
8.94
22.65
24.11
12.02
-7.12
-22.70
-26.17
-15.94
1.76
16.57
20.12
10.83
-5.34
-18.41
-20.40
-9.83
7.28
21.05
23.48
13.11
-4.15
-18.34
-21.36
-11.52
5.33
19.32
22.20
12.22
-4.73
-18.70
-21.41
-11.16
6.08
20.27
23.13
13.00
-4.15
-18.35
-21.39
-11.56
5.30
19.33
22.36
12.74
-3.85
-17.70
-20.66
-11.05
5.48
19.19
21.85
11.67
-5.70
-20.34
-23.87
-14.30
2.69
17.11
20.48
10.82
-6.24
-20.67
-23.96
-14.08
3.33
18.23
22.09
12.75
-4.30
-19.10
-23.13
-14.11
2.54
17.03
20.88
11.89
-4.45
-18.35
-21.32
-11.25
6.25
21.20
24.99
15.42
-1.95
-17.21
-21.75
-13.31
2.83
16.99
20.79
12.13
-3.75
-17.32
-20.33
-10.73
6.09
20.39
23.65
13.62
-4.38
-20.38
-25.48
-16.91
0.31
16.32
22.16
14.86
-0.88
-15.46
-20.20
-12.31
3.43
17.48
21.31
12.41
-4.17
-18.71
-22.63
-13.42
3.70
18.87
23.28
14.32
-2.75
-18.08
-22.75
-14.06
2.79
17.90
22.35
13.49
-3.50
-18.74
-23.34
-14.60
2.41
17.86
22.95
14.98
-1.11
-15.70
-20.07
-11.60
4.71
19.19
23.07
13.73
-3.76
-19.52
-24.59
-16.13
0.86
16.50
21.79
13.83
-2.45
-17.23
-21.62
-12.80
4.21
19.55
24.24
15.46
-1.85
-17.85
-23.55
-15.97
0.10
15.03
19.97
12.02
-3.97
-18.44
-22.66
-13.86
2.98
18.23
23.08
14.73
-1.95
-17.35
-22.64
-14.87
1.35
16.55
21.97
14.64
-0.91
-15.35
-19.91
-11.69
4.70
19.65
24.17
15.20
-2.59
-19.34
-25.74
-18.41
-1.91
14.01
20.11
13.07
-2.55
-17.09
-21.53
-12.77
4.41
20.14
25.26
16.69
-0.71
-17.00
-22.98
-15.52
0.57
15.43
20.02
11.40
-5.48
-20.77
-25.45
-16.64
0.66
16.67
22.38
14.86
-1.13
-16.05
-21.07
-13.22
2.85
17.66
22.39
14.12
-2.47
-17.77
-22.78
-14.40
2.73
18.92
25.01
17.73
1.58
-13.88
-19.54
-12.15
3.90
19.07
24.32
16.36
-0.41
-16.46
-22.69
-15.67
0.26
15.52
20.98
13.22
-3.36
-19.07
-24.62
-16.53
0.85
17.80
24.93
18.46
2.44
-13.74
-20.91
-15.27
-0.67
13.77
19.10
11.82
-3.96
-18.98
-24.18
-16.09
0.99
17.53
24.20
17.29
0.93
-15.44
-22.54
-16.56
-1.38
13.78
19.86
13.22
-2.14
-17.05
-22.48
-14.88
1.64
17.68
23.91
16.64
-0.14
-16.88
-24.05
-17.62
-1.47
14.98
22.18
16.05
0.36
-15.61
-22.47
-16.21
-0.61
15.07
21.57
15.09
-0.47
-15.73
-21.45
-13.85
3.05
19.80
26.96
20.52
4.27
-12.53
-20.46
-15.37
-0.75
14.36
20.73
14.38
-1.05
-16.45
-22.66
-15.78
0.30
16.29
22.87
16.12
-0.06
-16.39
-23.53
-17.54
-2.12
13.52
20.15
13.79
-1.96
-18.05
-25.18
-19.13
-3.22
13.72
22.33
18.17
4.20
-11.01
-18.25
-13.11
1.41
16.62
23.28
17.03
1.07
-15.57
-23.33
-17.68
-1.95
14.68
22.43
16.69
0.87
-15.72
-23.24
-17.18
-0.98
15.84
23.43
17.29
0.93
-16.16
-24.10
-18.24
-1.92
15.65
24.64
20.30
5.60
-10.65
-19.02
-14.87
-1.01
14.03
21.09
15.75
0.91
-14.88
-22.46
-17.33
-2.46
13.55
21.31
16.15
0.90
-15.81
-24.49
-20.26
-5.69
10.59
19.06
14.74
0.17
-16.08
-24.42
-19.77
-4.66
12.41
21.76
18.32
4.53
-11.12
-19.09
-14.42
0.30
16.41
24.26
18.83
2.77
-15.06
-24.69
-20.74
-5.66
11.82
21.70
18.48
4.48
-11.67
-20.14
-15.70
-0.80
15.72
24.04
19.05
3.47
-13.74
-22.61
-17.97
-2.48
14.95
24.36
20.45
5.67
-11.33
-20.79
-17.36
-3.28
13.05
22.06
18.47
4.47
-11.66
-20.38
-16.42
-2.01
14.50
23.36
19.11
3.85
-13.99
-24.44
-21.83
-8.00
8.68
18.36
15.37
1.54
-14.86
-24.05
-20.45
-5.95
11.18
21.13
18.34
4.72
-11.45
-20.46
-16.87
-2.73
13.54
22.20
17.90
2.84
-14.38
-23.83
-19.98
-5.02
12.48
22.52
19.50
5.49
-11.12
-20.50
-17.18
-3.14
13.29
22.49
19.05
5.01
-11.34
-20.33
-16.52
-1.94
15.07
24.72
21.39
6.97
-10.35
-20.77
-18.57
-5.38
10.76
20.16
17.06
3.06
-13.86
-23.98
-21.42
-7.65
9.39
19.91
17.96
4.89
-11.43
-21.26
-18.68
-5.10
11.56
21.52
18.84
4.97
-12.12
-22.68
-20.73
-7.68
8.63
18.52
16.18
3.02
-13.14
-22.65
-19.74
-5.81
11.27
21.77
19.76
6.67
-9.60
-19.31
-16.49
-2.64
14.26
24.23
21.17
6.45
-11.83
-23.50
-22.18
-8.98
8.22
19.33
17.95
5.06
-11.56
-22.02
-20.01
-6.55
10.61
21.63
20.29
7.67
-8.50
-18.40
-15.94
-2.35
14.50
24.69
22.08
8.00
-9.61
-20.74
-19.11
-5.83
11.27
22.27
20.89
8.09
-8.48
-18.99
-17.19
-4.07
12.68
23.15
20.97
7.09
-10.82
-22.69
-21.94
-9.22
7.89
19.39
18.63
6.10
-10.83
-22.34
-21.85
-9.94
6.08
16.53
15.02
2.38
-13.90
-23.94
-21.31
-6.87
11.59
23.81
22.98
9.70
-8.29
-20.68
-20.47
-8.09
8.90
20.28
19.16
6.00
-11.62
-23.45
-22.54
-9.34
8.57
20.87
20.63
8.30
-8.59
-19.87
-18.77
-5.86
11.26
22.53
21.30
8.33
-8.66
-19.53
-17.73
-4.08
13.55
24.90
23.23
9.26
-9.26
-22.05
-22.14
-9.84
7.45
19.61
19.66
7.74
-9.01
-20.62
-20.16
-7.73
9.58
21.83
22.06
10.32
-6.30
-17.94
-17.65
-5.57
11.12
22.40
21.31
8.05
-10.12
-23.07
-23.68
-11.91
5.13
17.40
17.70
5.83
-11.25
-23.56
-23.81
-11.68
5.98
19.16
20.44
9.39
-7.21
-19.35
-19.61
-7.54
10.00
22.89
23.69
12.04
-5.09
-17.57
-18.08
-6.42
10.30
21.89
21.09
7.89
-10.41
-23.41
-23.69
-11.16
6.81
19.74
20.12
7.75
-10.09
-23.05
-23.64
-11.64
5.85
18.63
19.35
7.82
-8.97
-21.00
-21.12
-9.14
8.01
20.39
20.86
9.27
-7.53
-19.57
-19.63
-7.45
10.02
22.67
23.08
10.85
-7.09
-20.51
-21.78
-10.23
7.39
20.95
22.78
12.04
-4.74
-17.60
-18.96
-8.04
8.66
21.19
22.01
10.41
-6.94
-19.93
-20.88
-9.09
8.65
22.00
23.10
11.20
-6.85
-20.72
-22.44
-11.15
6.45
20.06
21.71
10.40
-7.34
-21.36
-23.71
-13.26
3.69
17.10
19.09
8.46
-8.53
-21.88
-23.64
-12.59
5.03
19.14
21.70
11.41
-5.52
-19.06
-21.19
-10.54
6.76
20.78
23.47
13.47
-3.21
-16.77
-19.29
-9.46
6.71
19.36
20.67
9.44
-8.10
-21.97
-24.14
-13.43
3.82
17.39
19.20
8.05
-9.62
-23.51
-25.46
-14.18
3.95
18.63
21.66
11.69
-5.10
-18.60
-20.78
-10.26
6.89
20.69
23.20
13.11
-3.54
-16.86
-18.96
-8.50
8.44
21.98
24.15
13.59
-3.74
-17.93
-20.98
-11.33
5.12
18.54
20.90
10.61
-6.50
-20.53
-23.32
-13.12
4.27
18.90
22.42
13.02
-3.56
-17.30
-19.88
-9.48
8.03
22.59
25.87
16.12
-0.72
-14.64
-17.39
-7.31
9.50
22.89
24.49
12.63
-6.56
-22.80
-27.44
-18.43
-1.46
13.34
17.33
8.36
-8.05
-21.99
-24.99
-15.10
1.98
16.24
19.25
9.21
-7.96
-22.14
-24.82
-14.27
3.51
18.36
21.80
12.06
-4.90
-18.96
-21.74
-11.46
5.96
20.46
23.63
13.71
-3.43
-17.74
-20.73
-10.52
7.20
22.33
26.31
17.07
0.17
-14.48
-18.40
-9.54
6.53
19.90
22.17
11.47
-6.48
-21.63
-25.47
-16.05
0.89
15.35
18.83
9.42
-7.25
-21.21
-24.08
-13.91
3.70
18.83
23.05
14.30
-1.98
-15.99
-19.40
-10.09
6.56
20.73
24.00
14.23
-3.18
-18.33
-22.63
-13.75
3.01
17.79
21.95
13.15
-3.41
-17.96
-21.97
-13.12
3.28
17.51
21.14
11.92
-4.86
-19.47
-23.43
-14.42
2.30
16.98
21.04
12.00
-5.00
-20.17
-24.77
-16.05
1.05
16.74
22.18
14.45
-1.64
-16.38
-20.92
-12.36
4.42
19.66
24.48
16.05
-0.64
-15.76
-20.44
-11.91
4.77
19.79
24.37
15.92
-0.38
-14.74
-18.59
-9.58
6.80
20.64
23.35
12.77
-5.40
-21.02
-25.27
-15.74
2.04
17.89
22.82
14.10
-3.04
-18.66
-23.78
-15.54
1.05
16.15
20.77
12.02
-5.17
-20.92
-26.14
-17.86
-0.97
14.62
19.75
11.39
-5.55
-21.13
-26.12
-17.39
0.19
16.76
23.08
15.97
0.16
-14.70
-19.63
-11.66
4.41
19.01
23.36
14.76
-1.78
-16.53
-20.67
-11.55
5.78
21.41
26.29
17.61
0.32
-15.69
-21.25
-13.30
3.37
18.88
24.01
15.66
-1.44
-17.44
-23.12
-15.30
1.28
16.72
21.80
13.45
-3.56
-19.38
-24.86
-16.91
-0.31
15.21
20.63
12.99
-2.98
-17.66
-22.24
-13.88
2.63
17.65
22.32
13.81
-3.04
-18.49
-23.57
-15.30
1.57
17.29
22.74
14.86
-1.67
-17.00
-22.00
-13.49
3.83
19.99
25.67
17.56
0.31
-16.10
-22.25
-14.70
1.99
17.96
23.88
16.45
0.22
-15.03
-20.20
-12.23
4.10
18.92
23.21
14.08
-3.51
-19.63
-25.19
-17.18
-0.44
15.22
20.74
13.04
-3.29
-18.69
-24.28
-16.92
-1.12
13.72
18.80
11.06
-4.97
-19.79
-24.57
-16.19
0.70
16.44
21.90
13.80
-3.28
-19.49
-25.44
-17.48
0.01
17.22
24.54
18.06
1.84
-14.49
-21.44
-14.97
0.99
17.04
23.78
17.31
1.57
-14.03
-20.19
-13.08
3.23
19.15
25.26
17.71
0.68
-16.13
-23.08
-16.17
0.55
17.39
24.74
18.53
2.68
-13.32
-20.10
-13.79
1.58
16.67
22.33
14.99
-1.06
-16.38
-21.85
-14.05
2.58
18.40
24.11
16.22
-0.84
-17.33
-23.79
-16.54
0.12
16.44
22.85
15.46
-1.51
-18.34
-25.31
-18.41
-1.71
15.04
21.99
15.00
-1.97
-19.18
-26.74
-20.34
-3.87
13.02
20.48
14.21
-1.95
-18.41
-25.36
-18.54
-1.80
15.25
22.78
16.53
0.29
-16.38
-23.66
-17.28
-1.03
15.57
22.74
16.32
0.15
-16.20
-22.99
-16.07
0.64
17.54
24.88
18.59
2.60
-13.55
-20.23
-13.49
2.64
18.61
24.91
17.76
1.36
-14.72
-21.01
-13.83
2.57
18.51
24.45
16.69
-0.51
-17.44
-24.40
-17.43
-0.54
16.63
24.31
18.40
2.65
-13.54
-20.57
-14.42
1.15
16.72
22.86
15.70
-0.74
-16.94
-23.36
-16.13
0.73
17.55
24.66
18.00
1.40
-15.60
-23.32
-17.55
-1.86
14.47
21.82
15.97
0.40
-15.77
-23.08
-17.37
-2.03
13.83
20.85
14.91
-0.53
-16.46
-23.58
-17.80
-2.47
13.40
20.56
14.87
-0.32
-16.10
-23.21
-17.47
-2.08
14.02
21.54
16.23
1.28
-14.42
-21.62
-16.04
-0.92
14.84
21.92
16.14
0.80
-15.09
-22.24
-16.45
-1.09
14.80
21.89
16.01
0.56
-15.41
-22.59
-16.81
-1.45
14.51
21.78
16.18
1.02
-14.73
-21.83
-16.09
-0.87
14.81
21.61
15.41
-0.31
-16.25
-22.89
-16.02
0.71
17.73
25.23
18.86
2.32
-14.76
-22.43
-16.28
-0.01
16.74
24.10
17.76
1.42
-15.33
-22.74
-16.53
-0.45
15.97
23.05
16.68
0.62
-15.52
-22.09
-14.95
1.99
19.02
26.32
19.62
2.73
-14.65
-22.66
-16.92
-1.14
15.11
22.02
15.33
-1.27
-18.16
-25.57
-19.11
-2.48
14.72
22.64
16.80
0.72
-16.18
-24.11
-18.54
-2.83
13.79
21.70
16.42
1.20
-14.86
-22.31
-16.67
-1.16
15.24
23.10
17.96
2.93
-13.08
-20.69
-15.37
-0.15
16.06
23.80
18.39
2.79
-14.07
-22.62
-17.97
-2.92
13.70
22.26
17.82
3.01
-13.48
-22.12
-18.01
-3.77
12.04
20.02
15.41
0.90
-14.89
-22.61
-17.52
-2.46
13.84
21.90
16.92
1.73
-14.87
-23.32
-18.71
-3.82
12.57
20.91
16.30
1.51
-14.69
-22.74
-17.74
-2.50
14.22
22.81
18.43
3.82
-12.26
-20.28
-15.41
-0.52
15.61
23.44
18.20
2.81
-13.84
-22.16
-17.35
-2.35
13.99
22.11
17.22
2.19
-14.18
-22.43
-17.80
-3.16
12.79
20.67
15.78
0.97
-15.07
-22.98
-18.04
-3.07
13.24
21.45
16.78
1.97
-14.25
-22.39
-17.52
-2.39
14.30
22.95
18.55
3.79
-12.63
-21.15
-16.76
-2.16
13.98
22.15
17.48
2.73
-13.37
-21.36
-16.42
-1.47
14.68
22.48
17.13
1.52
-15.41
-24.00
-19.30
-4.13
12.67
21.42
17.15
2.59
-13.53
-21.64
-16.82
-1.89
14.38
22.43
17.41
2.19
-14.33
-22.50
-17.43
-2.01
14.79
23.25
18.41
3.12
-13.68
-22.27
-17.67
-2.75
13.69
22.03
17.41
2.72
-13.23
-21.02
-15.95
-1.07
14.79
22.21
16.65
1.23
-15.14
-23.03
-17.85
-2.73
13.45
21.27
16.15
1.14
-14.90
-22.56
-17.20
-1.89
14.54
22.60
17.59
2.51
-13.78
-21.78
-16.75
-1.72
14.42
22.11
16.66
1.16
-15.37
-23.26
-17.75
-1.98
14.96
23.32
18.31
2.99
-13.60
-21.77
-16.78
-1.75
14.31
21.88
16.39
1.15
-14.75
-21.81
-15.64
0.24
16.56
23.78
17.59
1.54
-15.04
-22.59
-16.78
-1.17
14.96
22.14
16.08
0.34
-15.81
-22.92
-16.76
-0.90
15.44
22.79
16.93
1.31
-14.94
-22.46
-16.93
-1.77
14.00
21.12
15.35
0.09
-15.62
-22.51
-16.32
-0.53
15.73
23.04
17.11
1.31
-15.17
-22.93
-17.60
-2.61
12.97
19.78
13.66
-1.90
-17.73
-24.52
-18.12
-2.12
14.31
21.80
16.23
1.06
-14.61
-21.54
-15.62
-0.35
15.20
21.89
15.83
0.65
-14.47
-20.49
-13.61
2.29
17.88
24.04
17.10
1.08
-14.54
-20.57
-13.35
2.89
18.50
24.12
16.15
-1.07
-17.68
-24.18
-16.86
-0.10
16.24
22.62
15.34
-1.29
-17.44
-23.63
-16.13
0.78
17.35
24.06
17.12
0.61
-15.79
-22.61
-15.95
0.18
16.23
22.71
15.80
-0.46
-16.44
-22.69
-15.46
1.04
17.09
23.25
15.93
-0.52
-16.30
-22.01
-14.11
2.89
19.18
25.30
17.74
0.88
-15.48
-21.99
-15.03
1.06
16.60
22.29
14.60
-2.18
-18.32
-24.37
-16.71
0.37
17.07
23.79
16.79
0.24
-16.06
-22.59
-15.56
0.78
16.71
22.73
15.22
-1.58
-17.95
-24.47
-17.52
-1.32
14.49
20.61
13.52
-2.52
-17.87
-23.30
-15.36
1.52
17.54
23.36
15.62
-1.21
-17.27
-23.17
-15.48
1.35
17.46
23.41
15.74
-1.20
-17.64
-24.17
-17.16
-0.84
15.15
21.46
14.53
-1.43
-16.92
-22.69
-15.27
1.05
16.66
22.31
14.65
-1.93
-17.80
-23.77
-16.48
-0.29
15.24
20.96
13.58
-2.49
-17.66
-22.82
-14.69
2.21
18.13
23.72
15.65
-1.46
-17.67
-23.45
-15.34
2.03
18.61
24.70
16.81
-0.39
-16.82
-22.80
-14.83
2.46
19.05
25.34
17.86
1.18
-14.86
-20.88
-13.55
2.54
17.68
22.68
14.42
-2.34
-17.76
-22.63
-13.91
3.45
19.39
24.49
15.62
-2.24
-18.90
-24.80
-16.68
0.53
16.71
22.36
14.32
-2.49
-18.05
-22.96
-14.10
3.58
20.07
26.02
18.27
1.58
-14.29
-20.17
-12.90
2.85
17.51
22.11
13.66
-3.05
-18.42
-23.46
-15.17
1.60
17.10
22.24
13.98
-2.82
-18.37
-23.45
-14.88
2.50
18.74
24.42
16.17
-1.26
-17.93
-24.26
-16.72
0.09
16.22
22.10
14.12
-3.12
-19.74
-26.14
-18.74
-2.09
13.94
19.81
12.08
-4.55
-20.14
-25.20
-16.39
1.43
18.17
24.28
16.43
-0.51
-16.47
-21.99
-13.78
3.27
19.16
24.53
16.18
-0.93
-16.86
-22.38
-14.43
2.08
17.27
22.06
13.52
-3.37
-18.76
-23.67
-15.26
1.50
16.81
21.79
13.74
-2.34
-16.75
-20.83
-12.03
4.48
19.00
22.98
14.05
-2.50
-16.94
-20.78
-11.67
5.02
19.49
23.20
13.80
-3.37
-18.42
-22.71
-13.70
3.31
18.47
22.94
14.04
-3.07
-18.44
-23.09
-14.19
3.11
18.78
23.71
14.95
-2.38
-18.22
-23.38
-14.87
2.26
17.95
23.06
14.67
-2.16
-17.43
-22.19
-13.66
3.04
18.01
22.46
13.82
-2.72
-17.30
-21.35
-12.51
3.80
17.68
20.62
10.57
-6.82
-21.44
-24.71
-14.52
3.33
18.58
22.53
13.01
-4.31
-19.26
-23.17
-13.82
3.27
18.08
22.10
13.17
-3.27
-17.36
-20.76
-11.42
5.15
19.12
22.17
12.37
-4.72
-19.13
-22.44
-12.61
4.81
19.84
23.88
14.80
-2.00
-16.58
-20.41
-11.28
5.39
19.69
23.11
13.50
-3.63
-18.37
-22.20
-13.09
3.38
17.23
20.02
9.94
-7.24
-21.45
-24.32
-14.07
3.39
17.96
21.21
11.33
-5.86
-20.34
-23.64
-13.80
3.53
18.39
22.25
13.03
-3.80
-18.38
-22.20
-13.08
3.57
17.95
21.54
12.28
-4.33
-18.39
-21.42
-11.44
5.92
20.66
24.24
14.75
-2.11
-16.29
-19.33
-9.43
7.52
21.44
23.88
13.21
-4.46
-18.87
-21.51
-10.80
7.05
21.66
24.52
14.00
-3.71
-18.37
-21.54
-11.57
5.44
19.39
21.96
11.55
-5.79
-20.06
-22.99
-12.97
4.01
17.92
20.42
9.77
-8.06
-23.04
-26.67
-17.09
-0.07
14.32
17.61
7.90
-8.98
-23.01
-25.72
-15.19
2.71
17.85
21.73
12.46
-4.06
-17.79
-20.39
-10.13
6.97
20.91
23.51
13.25
-3.74
-17.47
-19.83
-9.36
7.77
21.58
23.98
13.49
-3.78
-17.82
-20.47
-10.15
7.13
21.38
24.38
14.36
-2.79
-17.10
-20.30
-10.64
6.00
19.63
21.96
11.31
-6.37
-20.98
-24.25
-14.46
2.46
16.42
19.20
9.24
-7.40
-20.70
-22.60
-11.70
5.77
19.70
22.03
11.52
-5.57
-19.10
-21.07
-10.19
7.21
20.98
23.12
12.40
-4.92
-18.65
-20.76
-10.01
7.31
21.01
23.05
12.15
-5.42
-19.51
-22.02
-11.62
5.54
19.40
21.89
11.74
-4.95
-18.25
-20.30
-9.92
6.63
19.33
20.33
8.63
-9.33
-23.36
-25.43
-14.40
3.34
17.51
19.99
9.52
-7.66
-21.39
-23.55
-12.84
4.54
18.53
21.12
11.14
-5.19
-17.90
-19.15
-8.02
9.07
22.07
23.22
11.79
-5.49
-18.42
-19.26
-7.45
10.10
22.97
23.39
10.91
-7.29
-20.67
-21.33
-8.82
9.61
23.29
24.26
11.95
-6.55
-20.72
-22.70
-11.80
5.08
17.72
18.40
6.51
-11.14
-24.43
-25.65
-14.18
3.27
16.54
17.99
6.92
-9.90
-22.40
-22.99
-11.12
6.32
19.18
19.91
8.12
-9.11
-21.51
-21.52
-8.75
9.61
23.13
24.17
12.30
-5.37
-18.45
-19.28
-7.40
10.11
22.92
23.44
11.21
-6.77
-20.20
-21.42
-9.94
7.34
20.25
21.29
10.01
-6.78
-19.03
-19.44
-7.70
9.27
21.42
21.56
9.55
-7.55
-19.59
-19.41
-6.88
10.80
23.43
23.72
11.51
-6.10
-18.96
-19.78
-8.32
8.43
20.40
20.44
8.45
-8.59
-20.65
-20.66
-8.66
8.22
19.90
19.31
6.63
-10.86
-23.00
-22.66
-10.01
7.64
19.96
19.75
7.14
-10.53
-22.97
-22.97
-10.57
6.90
19.24
19.26
7.11
-9.87
-21.47
-20.56
-7.38
10.59
23.04
22.84
10.28
-7.20
-19.29
-18.87
-6.20
11.26
23.25
22.62
9.60
-8.35
-20.98
-21.07
-8.70
8.83
21.27
21.26
8.66
-9.39
-22.70
-23.82
-12.35
4.78
17.51
18.41
7.11
-9.50
-21.41
-21.38
-9.27
7.75
19.57
19.05
6.39
-10.83
-22.31
-20.92
-7.06
11.43
24.02
23.51
10.28
-7.89
-20.52
-20.41
-7.76
9.92
22.39
22.53
10.41
-6.81
-19.16
-19.58
-8.04
8.48
20.16
20.03
8.11
-8.64
-20.40
-20.27
-8.30
8.37
19.80
19.06
6.35
-10.96
-22.72
-21.96
-8.93
8.87
21.17
20.93
8.42
-8.97
-20.97
-20.55
-7.95
9.49
21.62
21.45
9.25
-7.74
-19.47
-19.10
-6.88
9.92
21.28
20.33
7.43
-10.07
-22.10
-21.79
-9.44
7.58
19.22
18.58
6.08
-10.93
-22.36
-21.34
-8.27
9.41
21.61
21.42
9.31
-7.31
-18.39
-17.11
-4.07
13.14
24.39
22.90
9.39
-8.34
-20.00
-18.72
-5.21
12.64
24.41
23.13
9.34
-9.20
-22.12
-22.38
-10.31
6.58
18.18
17.58
5.11
-11.90
-23.52
-22.99
-10.75
5.84
16.89
15.76
3.10
-13.55
-24.20
-22.27
-8.55
9.13
20.58
19.12
5.56
-12.18
-23.82
-22.57
-9.09
8.89
21.19
21.09
9.15
-7.20
-18.11
-17.08
-4.70
11.65
22.32
21.01
8.49
-7.85
-18.35
-16.77
-3.97
12.49
22.84
20.86
7.56
-9.31
-19.80
-17.67
-4.02
13.18
23.86
21.74
7.96
-9.52
-20.62
-19.06
-5.94
10.90
21.43
19.46
6.16
-10.70
-21.21
-19.22
-5.85
11.12
21.76
19.79
6.29
-11.03
-22.23
-20.99
-8.30
8.16
18.49
16.43
3.14
-13.56
-23.72
-21.04
-6.71
11.28
22.76
21.26
7.91
-9.38
-20.42
-18.70
-5.23
12.08
23.09
21.23
7.39
-10.58
-22.55
-21.89
-9.30
7.62
18.92
18.01
5.51
-11.16
-22.24
-21.26
-8.86
7.57
18.30
16.94
4.28
-12.12
-22.41
-20.21
-6.42
11.17
22.49
21.06
7.79
-9.38
-20.35
-18.58
-5.05
12.28
23.22
21.30
7.50
-10.27
-21.84
-20.68
-7.64
9.47
20.55
19.07
5.93
-11.09
-21.87
-19.93
-6.25
11.18
22.07
19.94
5.92
-11.75
-22.57
-19.99
-5.21
13.48
25.58
24.49
11.29
-6.03
-17.29
-16.13
-3.60
12.54
22.43
19.92
6.22
-10.98
-21.88
-20.30
-7.29
9.47
20.13
18.34
4.99
-12.33
-23.73
-22.75
-10.14
6.65
17.83
17.02
5.04
-10.67
-20.41
-17.93
-4.25
12.92
23.66
21.63
7.90
-9.70
-21.14
-19.89
-6.86
10.24
21.37
19.97
6.83
-10.42
-21.80
-20.81
-8.23
8.34
18.96
17.19
3.92
-13.06
-23.72
-21.57
-7.61
10.21
21.62
20.01
6.34
-11.46
-23.07
-21.78
-8.37
9.40
21.33
20.76
8.32
-8.41
-19.50
-18.36
-5.62
11.22
22.31
21.17
8.50
-8.17
-18.99
-17.51
-4.50
12.44
23.43
22.03
9.05
-7.94
-19.04
-17.87
-5.25
11.30
21.90
20.17
6.93
-10.32
-21.74
-20.84
-8.24
8.69
20.07
19.21
6.54
-10.71
-22.68
-22.58
-10.67
5.92
17.42
17.12
5.39
-10.51
-20.74
-18.59
-4.67
13.43
25.45
24.42
10.87
-7.56
-20.49
-20.76
-8.68
8.33
20.04
19.34
6.39
-11.50
-24.23
-24.69
-12.92
3.93
15.91
16.02
4.38
-11.88
-22.83
-21.56
-8.29
9.66
22.22
22.36
10.21
-6.98
-19.17
-19.31
-7.41
9.44
21.41
21.59
10.04
-6.30
-17.75
-17.48
-5.50
11.21
22.89
22.64
10.48
-6.62
-18.77
-18.92
-7.00
10.02
22.19
22.36
10.40
-6.77
-19.20
-19.74
-8.21
8.48
20.34
20.21
7.97
-9.38
-21.76
-21.94
-9.74
7.77
20.37
20.68
8.53
-8.96
-21.48
-21.60
-9.17
8.59
21.32
21.55
9.16
-8.63
-21.51
-21.96
-9.79
7.87
20.70
21.12
8.80
-9.25
-22.72
-24.01
-12.61
4.67
17.65
18.78
7.51
-9.31
-21.63
-21.97
-9.89
7.64
20.46
21.09
9.19
-8.25
-21.00
-21.54
-9.44
8.39
21.80
23.20
11.99
-5.19
-18.33
-19.87
-9.02
7.70
20.36
21.42
10.13
-6.96
-19.88
-20.98
-9.55
7.91
21.33
23.03
12.12
-4.98
-18.36
-20.39
-10.19
5.92
18.16
19.07
7.95
-8.75
-21.19
-21.94
-10.31
7.16
20.43
21.84
10.58
-6.84
-20.32
-22.09
-11.17
6.05
19.59
21.72
11.39
-5.16
-18.17
-19.96
-9.52
6.93
19.57
20.62
9.01
-9.02
-23.43
-26.17
-15.82
1.52
15.91
19.20
9.87
-6.10
-18.85
-20.35
-9.20
8.50
22.77
25.49
15.16
-2.18
-16.57
-19.84
-10.30
6.21
19.86
22.53
12.52
-4.42
-18.56
-21.76
-12.30
4.08
17.55
19.96
9.60
-7.66
-21.75
-24.32
-13.63
4.37
19.42
22.97
13.16
-4.10
-18.60
-21.80
-11.73
5.72
20.39
23.68
13.69
-3.76
-18.57
-22.24
-12.84
3.85
17.85
20.83
11.07
-5.54
-19.04
-21.21
-10.51
6.98
21.12
23.66
13.17
-4.22
-18.34
-20.91
-10.39
7.15
21.51
24.28
13.67
-4.44
-19.96
-24.36
-15.57
0.79
14.82
18.13
8.72
-7.77
-21.44
-23.89
-13.21
4.80
19.95
23.62
13.74
-3.96
-19.30
-23.56
-14.43
2.55
17.40
21.48
12.55
-3.94
-18.01
-21.04
-10.87
6.94
22.27
26.36
16.87
-0.67
-16.19
-20.91
-12.36
4.10
18.51
22.18
12.79
-4.28
-19.07
-22.93
-13.54
3.67
18.72
22.90
13.84
-3.08
-17.97
-22.10
-13.04
3.92
18.93
23.19
14.20
-2.99
-18.59
-23.83
-15.95
0.21
15.06
19.89
11.89
-4.12
-18.62
-22.89
-14.14
2.78
18.21
23.24
14.93
-1.96
-17.73
-23.34
-15.60
0.91
16.58
22.38
15.06
-0.92
-16.10
-21.54
-14.06
1.89
16.88
21.99
14.12
-2.27
-17.71
-23.25
-15.66
0.60
16.05
21.67
14.24
-1.83
-17.07
-22.45
-14.71
1.76
17.41
23.14
15.59
-0.86
-16.73
-22.90
-15.87
0.11
15.70
21.83
15.08
-0.47
-15.55
-21.23
-14.06
1.84
17.15
22.81
15.28
-1.23
-17.27
-23.53
-16.27
0.43
17.01
24.00
17.48
1.36
-14.84
-21.62
-14.89
1.49
18.05
25.19
18.67
2.17
-14.97
-23.10
-17.83
-2.62
13.36
20.53
14.55
-1.17
-17.40
-24.58
-18.32
-2.04
15.02
23.22
18.03
2.70
-13.77
-21.85
-16.95
-2.07
14.03
21.95
17.13
2.47
-13.41
-21.23
-16.34
-1.59
14.44
22.39
17.63
2.93
-13.13
-21.15
-16.40
-1.59
14.60
22.65
17.71
2.46
-14.41
-23.32
-19.29
-4.89
11.32
19.81
15.65
1.47
-14.13
-21.68
-16.38
-0.94
15.89
24.46
19.72
4.25
-13.36
-23.34
-20.35
-6.55
9.79
19.07
15.93
2.36
-13.45
-21.98
-17.91
-3.28
13.65
23.22
19.94
5.81
-10.97
-20.68
-17.67
-3.69
13.14
23.07
20.34
6.50
-10.47
-20.83
-18.63
-5.25
11.50
21.96
20.16
7.33
-8.93
-19.10
-17.33
-4.82
10.81
20.08
17.22
3.65
-12.88
-22.72
-20.05
-6.30
10.62
20.92
18.63
5.17
-11.54
-21.71
-19.36
-5.79
11.10
21.45
19.15
5.36
-12.20
-23.70
-22.84
-10.39
6.24
17.35
16.57
4.57
-11.28
-21.30
-19.14
-5.52
12.09
23.82
23.07
10.46
-6.67
-18.42
-18.14
-6.23
10.09
21.07
20.13
7.70
-8.97
-20.17
-19.28
-6.73
10.27
21.95
21.65
9.71
-6.80
-18.24
-18.01
-6.41
9.54
20.21
19.00
6.22
-11.05
-23.05
-22.99
-10.98
5.96
17.99
18.20
6.64
-9.64
-20.79
-19.85
-6.94
10.73
23.02
22.75
9.85
-8.52
-22.10
-23.41
-12.01
5.24
18.24
19.45
8.28
-8.56
-21.09
-21.77
-9.93
7.82
21.50
23.49
12.96
-3.78
-16.97
-19.15
-9.45
5.95
17.56
18.16
7.15
-9.07
-20.86
-20.90
-8.63
9.34
22.98
24.64
13.43
-4.22
-18.30
-20.97
-11.07
5.27
18.24
20.07
9.57
-7.12
-20.23
-22.02
-11.31
5.66
18.96
20.77
9.97
-7.12
-20.41
-22.02
-10.77
6.94
20.91
23.07
12.15
-5.58
-19.94
-22.77
-12.64
4.41
18.34
21.04
10.94
-6.04
-20.02
-22.87
-12.92
4.01
18.11
21.22
11.66
-4.82
-18.40
-20.96
-10.81
6.28
20.46
23.56
13.82
-3.00
-17.06
-20.09
-10.29
6.62
20.71
23.56
13.26
-4.47
-19.61
-23.58
-14.22
2.85
17.68
21.64
12.53
-4.14
-18.44
-21.88
-12.24
4.98
19.80
23.65
14.22
-3.14
-18.54
-23.35
-15.02
1.37
16.18
20.75
12.47
-3.79
-18.51
-23.01
-14.54
2.10
17.36
22.42
14.39
-1.96
-17.01
-21.84
-13.42
3.53
19.26
24.62
16.34
-1.02
-17.70
-24.36
-17.42
-1.08
15.08
21.69
15.00
-0.96
-16.80
-23.23
-16.44
-0.36
15.70
22.50
16.25
0.87
-14.45
-20.61
-13.92
1.67
16.90
22.66
15.30
-1.20
-17.44
-24.13
-17.36
-0.93
15.79
23.31
17.43
1.65
-14.81
-22.40
-16.72
-1.12
15.28
22.86
17.14
1.45
-15.08
-22.78
-17.07
-1.17
15.76
23.98
18.74
3.06
-14.15
-23.23
-19.26
-4.96
11.07
19.37
15.13
1.05
-14.37
-21.73
-16.29
-0.86
15.79
24.06
19.07
3.68
-13.21
-21.79
-17.04
-1.79
14.98
23.37
18.29
2.42
-15.23
-24.74
-20.81
-5.84
11.49
21.31
18.17
4.14
-12.47
-21.97
-18.96
-5.34
10.67
19.48
15.72
1.50
-14.91
-23.75
-19.57
-4.47
13.16
23.47
20.85
7.22
-9.26
-18.91
-16.20
-2.96
12.85
21.77
18.41
4.63
-11.62
-20.89
-17.74
-3.93
12.52
22.03
19.00
5.11
-11.59
-21.40
-18.55
-4.63
12.31
22.51
20.14
6.77
-9.63
-19.35
-16.62
-2.95
13.68
23.58
20.86
6.86
-10.70
-22.16
-21.47
-9.54
6.27
16.54
15.18
2.99
-12.87
-22.98
-21.20
-8.25
8.62
19.78
18.85
6.47
-10.03
-20.82
-19.35
-6.21
11.19
22.88
22.17
9.54
-7.65
-19.52
-19.30
-7.36
9.10
20.31
19.54
7.10
-9.81
-21.38
-20.76
-8.09
9.41
21.73
21.78
9.56
-7.82
-20.25
-20.54
-8.57
8.61
20.88
21.05
9.00
-8.27
-20.70
-21.10
-9.23
8.05
20.82
21.80
10.52
-6.43
-19.27
-20.66
-9.89
6.61
19.14
20.24
9.19
-7.55
-20.11
-20.91
-9.14
8.61
22.18
23.78
12.48
-5.15
-18.97
-21.05
-10.36
6.73
20.18
22.11
11.34
-5.94
-19.83
-22.40
-12.30
4.46
18.00
20.27
9.71
-7.77
-22.24
-25.43
-15.50
1.77
16.40
20.03
10.86
-5.38
-18.71
-20.91
-10.32
7.07
21.09
23.48
12.68
-5.20
-19.90
-23.02
-12.89
4.57
19.28
22.87
13.52
-3.15
-17.42
-21.04
-12.01
4.34
18.47
22.13
13.14
-3.30
-17.71
-21.72
-12.93
3.55
18.12
22.23
13.40
-3.26
-18.05
-22.38
-13.68
2.86
17.48
21.58
12.77
-3.77
-18.21
-21.98
-12.60
4.72
20.18
25.00
16.50
-0.45
-16.22
-22.01
-14.96
0.39
14.70
19.29
11.25
-4.91
-19.94
-25.08
-17.21
-0.73
15.00
20.97
13.79
-2.28
-17.86
-23.76
-16.39
0.03
15.96
22.11
14.91
-1.33
-16.91
-22.51
-14.60
2.31
18.42
24.42
16.92
0.47
-15.09
-20.49
-12.39
4.65
20.80
26.67
18.80
1.51
-15.47
-22.71
-16.47
-0.69
15.25
22.07
15.90
0.52
-15.08
-21.78
-15.70
-0.50
14.87
21.29
14.91
-0.60
-16.13
-22.45
-15.61
0.59
16.79
23.55
16.87
0.64
-15.65
-22.44
-15.69
0.64
16.98
23.66
16.64
-0.26
-17.43
-25.17
-19.15
-2.86
14.34
22.72
17.64
2.13
-14.80
-23.49
-19.13
-4.50
11.71
19.94
15.46
1.08
-14.61
-22.24
-17.16
-2.31
13.63
21.28
16.07
1.06
-15.03
-22.68
-17.26
-1.74
15.10
23.71
19.25
4.49
-11.86
-20.29
-15.88
-1.30
14.78
22.81
17.89
2.68
-14.11
-22.82
-18.36
-3.19
14.04
23.55
19.96
5.40
-11.75
-21.76
-19.12
-5.67
10.48
19.66
16.37
2.43
-14.14
-23.65
-20.49
-6.42
10.42
20.27
17.41
3.64
-12.88
-22.31
-18.93
-4.61
12.38
22.25
19.43
5.93
-9.95
-18.56
-14.52
-0.05
16.44
25.30
21.24
6.44
-10.67
-20.43
-17.42
-3.63
12.70
21.91
18.41
3.95
-13.41
-23.95
-21.90
-8.68
7.92
18.26
16.50
3.93
-11.91
-21.56
-19.18
-6.00
10.48
20.79
18.99
6.21
-10.09
-20.35
-18.47
-5.42
11.28
21.93
20.22
7.04
-10.07
-21.24
-20.01
-7.12
9.83
20.95
19.77
7.04
-9.62
-20.33
-18.69
-5.50
11.57
22.58
21.03
7.70
-9.83
-21.56
-20.84
-8.22
8.84
20.32
19.51
6.89
-10.19
-21.70
-20.90
-8.21
9.04
20.91
20.66
8.71
-7.70
-18.83
-18.07
-5.87
10.56
21.57
20.57
7.95
-9.13
-20.93
-20.68
-8.51
8.51
20.48
20.34
7.94
-9.79
-22.80
-23.73
-12.07
5.42
18.72
20.27
9.37
-7.49
-20.38
-21.73
-10.75
6.19
19.24
20.81
10.12
-6.46
-19.08
-20.08
-8.68
8.64
21.79
22.94
11.18
-6.84
-20.84
-22.68
-11.30
6.69
20.90
23.18
12.38
-4.99
-18.68
-20.70
-9.88
7.28
20.64
22.29
11.13
-6.45
-20.33
-22.54
-11.84
5.58
19.64
22.21
11.86
-5.43
-19.69
-22.75
-13.05
3.52
17.10
19.64
9.73
-6.62
-19.53
-20.98
-9.65
8.22
22.48
24.87
13.92
-4.18
-19.22
-22.81
-13.20
3.60
17.54
20.37
10.45
-6.22
-19.63
-21.67
-10.83
6.81
21.07
23.64
12.90
-5.14
-20.22
-23.74
-13.72
4.08
19.45
23.60
14.23
-3.19
-18.58
-23.09
-14.27
2.65
17.72
22.16
13.45
-3.24
-18.13
-22.54
-13.91
2.66
17.37
21.42
12.18
-5.24
-20.88
-25.60
-16.43
1.60
18.36
24.38
16.34
-0.95
-17.37
-23.40
-15.55
1.48
17.68
23.65
16.03
-0.60
-16.37
-22.04
-14.39
1.98
17.33
22.59
14.73
-1.61
-16.75
-21.73
-13.62
2.87
18.05
23.00
14.81
-1.71
-16.96
-21.99
-13.84
2.71
18.07
23.31
15.41
-0.96
-16.28
-21.65
-13.91
2.40
17.79
23.30
15.64
-0.80
-16.53
-22.44
-14.97
1.71
18.01
24.53
17.31
0.19
-17.38
-25.75
-20.56
-5.17
11.28
19.27
14.40
-0.08
-15.35
-22.12
-16.14
-0.75
15.13
22.18
16.17
0.53
-15.68
-22.94
-16.85
-0.86
15.79
23.33
17.14
0.57
-16.98
-25.55
-20.19
-3.97
13.80
23.10
18.86
3.85
-12.94
-21.69
-17.47
-2.90
13.22
21.27
16.41
1.39
-15.03
-23.20
-18.22
-2.77
14.34
23.26
18.93
3.95
-12.94
-21.83
-17.50
-2.47
14.56
23.77
19.94
5.58
-10.65
-19.12
-14.73
-0.05
16.26
24.53
19.65
4.12
-13.47
-23.33
-20.14
-6.00
10.74
20.37
17.42
3.71
-12.67
-22.08
-19.04
-5.25
11.26
20.85
17.95
4.33
-12.03
-21.40
-18.17
-4.11
12.72
22.57
19.71
5.83
-11.01
-21.04
-18.39
-4.58
12.35
22.60
20.07
6.08
-11.41
-22.44
-20.66
-7.04
10.58
22.11
20.89
7.54
-10.36
-22.64
-22.46
-10.09
7.16
19.27
19.36
7.62
-8.94
-20.49
-20.15
-8.06
8.86
20.90
21.15
9.67
-6.67
-18.24
-18.18
-6.58
9.67
20.84
20.02
7.32
-10.15
-22.39
-22.25
-9.67
8.15
21.00
21.42
9.05
-9.06
-22.68
-24.18
-12.95
4.26
17.31
18.70
7.78
-8.81
-21.12
-21.65
-9.90
7.43
20.26
21.02
9.27
-8.10
-20.78
-21.01
-8.31
10.25
24.03
25.02
12.57
-6.16
-20.44
-22.06
-10.21
8.06
22.07
23.61
11.75
-6.61
-20.99
-23.30
-12.52
4.77
18.29
20.18
9.44
-7.47
-20.53
-21.91
-10.60
7.03
20.88
23.03
12.41
-4.66
-18.08
-19.86
-8.85
8.56
22.17
23.88
12.54
-5.39
-19.70
-22.21
-11.68
5.47
19.11
21.20
10.54
-6.46
-19.76
-21.44
-10.37
7.06
20.73
22.67
11.65
-6.08
-20.44
-23.36
-13.31
3.72
17.76
20.71
10.99
-5.54
-18.96
-21.11
-10.38
7.27
21.74
24.60
14.12
-3.75
-18.93
-22.83
-13.46
3.40
17.84
21.41
12.12
-4.40
-18.36
-21.45
-11.65
5.49
20.10
23.71
14.00
-3.72
-19.62
-24.98
-17.05
-0.69
14.48
19.67
11.95
-4.08
-18.93
-23.74
-15.47
1.31
17.01
22.62
15.03
-1.26
-16.80
-22.59
-15.35
0.47
15.60
21.19
14.11
-1.22
-15.59
-20.35
-12.46
3.52
18.24
22.94
14.53
-2.49
-18.55
-24.60
-17.17
-0.54
15.65
22.12
15.19
-1.02
-16.90
-22.97
-15.43
1.67
18.66
25.88
19.32
2.89
-13.94
-21.48
-15.54
0.16
16.37
23.61
17.66
2.13
-13.89
-21.02
-15.06
0.46
16.37
23.31
17.00
0.87
-15.91
-23.82
-18.42
-2.91
13.60
21.56
16.43
1.21
-15.19
-23.19
-18.14
-2.84
13.91
22.46
17.92
2.96
-13.78
-22.57
-18.25
-3.28
13.79
23.13
19.39
4.83
-12.03
-21.48
-18.06
-3.91
12.55
21.65
18.03
3.76
-12.76
-21.92
-18.36
-4.03
12.79
22.48
19.55
5.76
-10.91
-20.88
-18.55
-5.45
10.61
20.03
17.07
3.25
-13.50
-23.37
-20.32
-5.80
12.11
23.20
20.97
6.57
-11.76
-23.62
-22.10
-8.03
10.56
23.17
22.73
9.68
-8.24
-20.67
-20.55
-8.07
9.38
21.64
21.67
9.55
-7.66
-19.99
-20.41
-8.87
7.82
19.85
20.18
8.67
-7.95
-19.97
-20.27
-8.67
8.08
20.18
20.37
8.36
-8.99
-21.66
-22.18
-10.03
7.92
21.44
22.76
11.03
-7.05
-21.18
-23.42
-12.67
4.62
18.24
20.24
9.47
-7.75
-21.25
-23.10
-12.13
5.41
19.45
21.98
11.83
-4.88
-18.27
-20.44
-10.15
6.48
19.73
21.75
11.26
-5.69
-19.39
-21.96
-11.97
4.65
18.17
20.64
10.46
-6.54
-20.49
-23.20
-12.83
4.83
19.70
23.25
13.41
-4.22
-19.56
-23.86
-14.86
2.07
16.96
21.13
12.29
-4.15
-18.39
-21.82
-12.17
5.07
20.00
23.95
14.61
-2.55
-17.53
-21.55
-12.11
5.40
20.89
25.47
16.46
-0.87
-16.50
-21.52
-13.25
3.24
18.06
22.38
13.68
-2.97
-17.79
-22.03
-13.12
3.87
19.18
23.91
15.29
-1.78
-17.60
-23.19
-15.45
0.93
16.36
21.68
13.56
-3.48
-19.63
-25.51
-17.39
0.39
17.89
25.36
18.65
1.72
-15.66
-23.63
-17.87
-2.01
14.47
21.84
15.85
-0.03
-16.57
-24.25
-18.81
-3.63
12.39
19.97
14.96
0.68
-14.14
-20.50
-14.37
0.80
16.22
22.87
16.64
0.90
-15.41
-23.02
-17.49
-1.89
14.93
23.49
19.10
4.50
-11.65
-19.84
-15.25
-0.50
15.74
23.77
18.64
2.95
-14.58
-24.04
-20.07
-5.06
12.39
22.26
18.97
4.63
-12.26
-21.81
-18.33
-3.84
13.17
22.74
19.14
4.31
-13.20
-23.31
-20.17
-5.44
12.47
23.38
21.23
7.40
-10.09
-21.23
-19.86
-7.12
9.33
19.69
17.72
4.50
-12.41
-23.25
-21.66
-8.55
8.48
19.53
18.02
4.70
-12.74
-24.22
-22.89
-9.23
9.06
21.73
21.66
9.06
-8.58
-20.94
-20.85
-8.31
9.40
22.05
22.46
10.61
-6.41
-18.53
-18.58
-6.57
10.52
22.66
22.66
10.42
-7.07
-19.89
-20.69
-9.15
7.89
20.57
21.53
10.28
-6.53
-19.11
-20.18
-9.17
7.25
19.25
19.61
7.87
-9.24
-21.67
-22.04
-9.84
8.21
21.87
23.44
12.15
-5.48
-19.33
-21.55
-11.08
5.77
19.03
20.70
9.57
-8.17
-22.48
-25.15
-14.51
3.46
18.71
22.71
13.35
-3.78
-18.72
-22.90
-13.95
2.78
17.42
21.41
12.44
-4.19
-18.61
-22.20
-12.72
4.44
19.31
23.18
13.78
-3.39
-18.33
-22.23
-12.70
4.77
20.16
24.57
15.49
-1.72
-17.06
-21.62
-12.68
4.57
20.15
25.12
16.60
-0.51
-16.36
-22.02
-14.46
1.65
16.65
21.63
13.60
-2.86
-18.24
-23.62
-15.99
0.10
15.16
20.21
12.10
-4.60
-20.40
-26.15
-18.46
-1.73
14.51
21.09
14.46
-1.14
-16.22
-21.64
-13.83
2.94
19.06
25.28
18.05
1.56
-14.59
-21.08
-14.24
1.85
17.71
23.95
16.88
0.60
-15.46
-21.83
-14.67
1.93
18.40
25.04
17.67
0.24
-17.54
-25.71
-19.65
-2.91
14.86
23.49
18.05
1.70
-16.20
-25.50
-21.11
-5.75
11.52
20.70
16.72
2.14
-14.35
-22.98
-18.77
-4.30
11.87
20.18
15.82
1.61
-13.74
-20.73
-14.59
1.66
19.00
27.63
22.51
6.42
-11.61
-21.65
-18.34
-4.00
12.69
21.94
18.38
4.09
-12.66
-22.18
-19.12
-5.38
10.92
20.19
17.09
3.52
-12.56
-21.68
-18.47
-4.81
11.32
20.52
17.39
3.79
-12.27
-21.42
-18.20
-4.35
12.13
21.72
18.88
5.24
-11.21
-20.82
-17.80
-3.62
13.78
24.43
22.13
8.03
-10.11
-22.22
-21.73
-9.35
7.45
18.79
18.02
5.74
-10.72
-21.61
-20.37
-7.58
9.33
20.52
19.50
6.87
-9.86
-20.78
-19.25
-5.80
12.02
23.99
23.16
9.89
-8.39
-21.32
-21.59
-9.20
8.61
21.46
21.73
9.19
-9.07
-22.66
-23.82
-11.93
6.05
19.78
21.35
9.89
-7.90
-21.79
-23.88
-13.12
4.00
17.36
19.23
8.76
-7.52
-19.56
-19.77
-7.58
10.24
23.38
24.10
11.85
-6.44
-20.29
-21.68
-9.81
8.49
22.71
24.56
12.82
-5.97
-21.29
-24.73
-14.62
2.89
17.58
21.08
11.61
-4.95
-18.61
-21.18
-11.01
6.01
19.86
22.37
12.02
-5.20
-19.22
-21.67
-10.92
7.01
21.95
25.34
15.31
-2.25
-17.25
-21.16
-11.96
4.62
18.59
21.58
11.59
-5.73
-20.36
-23.92
-14.30
2.96
17.92
22.04
13.07
-3.80
-18.88
-23.56
-15.35
0.82
15.49
20.10
12.07
-3.68
-17.71
-21.50
-12.38
4.66
19.98
24.76
16.11
-1.19
-17.33
-23.36
-16.07
0.00
15.27
20.77
13.39
-2.52
-17.63
-23.11
-15.84
-0.14
14.83
20.36
13.41
-1.64
-15.69
-20.16
-11.98
4.38
19.62
24.92
17.02
0.22
-16.00
-22.56
-15.79
0.36
16.54
23.50
17.34
1.66
-14.51
-21.94
-16.61
-1.89
13.44
20.31
14.75
0.22
-14.51
-20.43
-13.57
2.43
18.46
25.10
18.06
0.83
-17.20
-26.17
-21.22
-5.35
12.31
21.82
18.07
3.56
-13.06
-22.10
-18.48
-4.52
11.46
20.04
16.27
2.53
-12.99
-21.06
-16.74
-2.46
13.53
21.95
17.76
3.26
-13.22
-22.27
-18.64
-4.32
12.46
22.15
19.28
5.51
-11.26
-21.46
-19.41
-6.45
9.83
20.00
18.30
5.95
-9.68
-19.32
-17.18
-4.48
11.39
21.12
18.86
5.73
-10.73
-21.10
-19.34
-6.33
10.44
21.38
20.24
7.57
-9.44
-21.21
-21.32
-10.02
5.89
17.08
17.21
6.58
-8.16
-17.87
-16.31
-3.91
12.39
23.23
22.13
9.42
-7.84
-20.00
-20.22
-8.46
8.37
20.48
20.79
8.88
-8.61
-21.83
-23.42
-12.60
4.30
17.53
19.63
9.76
-5.95
-17.99
-19.00
-8.28
7.88
19.86
20.35
8.73
-8.38
-21.07
-21.77
-9.73
8.43
22.58
24.79
13.84
-4.08
-18.96
-22.72
-13.70
2.40
15.93
18.97
9.91
-5.70
-18.39
-20.37
-10.15
6.53
20.01
22.25
11.56
-6.24
-21.30
-25.20
-15.85
1.28
16.39
20.96
12.58
-3.68
-18.23
-22.62
-14.29
1.86
16.40
20.82
12.65
-3.21
-17.24
-20.80
-11.33
6.10
21.66
26.29
17.07
-0.97
-17.79
-24.03
-16.35
0.52
16.65
22.68
15.23
-1.19
-16.78
-22.33
-14.52
2.11
17.81
23.33
15.43
-1.32
-17.12
-22.65
-14.55
2.65
19.12
25.38
17.76
0.61
-16.30
-23.36
-16.58
0.03
16.89
24.37
18.32
2.37
-14.16
-21.82
-16.34
-1.17
14.54
21.27
14.78
-1.47
-18.22
-25.73
-19.50
-2.88
14.84
23.67
18.68
2.88
-14.60
-23.75
-19.36
-4.11
13.08
22.26
18.24
3.56
-13.00
-21.63
-17.18
-2.17
14.62
23.26
18.52
2.95
-14.65
-24.18
-20.17
-4.93
12.90
23.25
20.44
6.48
-10.25
-19.90
-16.85
-2.98
13.40
22.54
18.90
4.40
-12.63
-22.32
-19.00
-4.47
12.98
23.25
20.34
5.77
-12.30
-23.73
-22.21
-8.87
8.38
19.47
17.94
4.73
-12.37
-23.33
-21.61
-8.04
9.62
21.27
20.35
7.67
-9.06
-19.76
-17.91
-4.35
13.13
24.33
22.57
8.65
-9.73
-22.36
-22.38
-10.28
6.56
18.16
17.77
5.79
-10.53
-21.46
-20.45
-7.84
9.11
20.70
20.24
7.93
-9.19
-21.42
-21.85
-10.37
6.42
18.91
20.18
9.92
-5.48
-16.62
-16.60
-5.09
11.41
23.32
23.43
11.19
-6.87
-20.91
-23.28
-12.97
3.83
17.33
19.85
10.17
-5.66
-17.94
-19.02
-7.80
9.54
23.03
24.69
13.29
-5.01
-20.06
-23.55
-13.84
3.18
17.50
20.79
11.17
-5.68
-19.89
-23.08
-13.24
4.05
18.83
22.50
12.92
-4.41
-19.44
-23.45
-13.99
3.53
19.07
23.64
14.55
-2.99
-19.06
-24.63
-16.84
-0.65
14.17
18.78
10.47
-5.79
-20.14
-23.76
-13.90
4.32
20.89
26.69
18.74
1.86
-14.12
-20.06
-12.79
3.20
18.39
23.78
16.20
0.09
-15.15
-20.65
-13.05
3.26
18.93
24.89
17.46
0.61
-16.43
-24.44
-19.43
-4.78
10.63
17.81
12.73
-1.37
-15.88
-21.99
-15.78
-0.60
14.80
21.42
15.23
-0.27
-16.14
-23.04
-16.72
-0.50
16.53
24.78
19.62
4.08
-12.92
-21.80
-17.62
-3.15
12.92
20.96
16.10
1.03
-15.53
-23.88
-19.05
-3.55
13.83
23.24
19.28
4.20
-13.37
-23.48
-20.35
-5.89
11.58
22.06
19.70
6.15
-10.45
-20.24
-17.36
-3.41
13.46
23.34
20.31
5.93
-11.68
-22.66
-20.94
-7.87
8.73
19.13
17.27
4.28
-12.27
-22.75
-21.08
-8.08
8.84
20.16
19.61
7.83
-8.04
-18.50
-17.23
-4.79
11.69
22.60
21.47
8.84
-8.03
-19.26
-18.13
-5.00
12.77
25.08
24.83
12.08
-5.98
-19.24
-20.42
-9.35
6.94
18.39
17.77
5.02
-12.74
-25.25
-25.17
-12.29
6.18
19.86
21.10
9.45
-8.13
-21.35
-22.53
-11.01
6.49
19.85
21.41
10.39
-6.76
-20.04
-21.82
-11.09
5.91
19.35
21.61
11.60
-4.62
-17.44
-19.22
-8.82
7.77
20.94
22.94
12.48
-4.52
-18.38
-21.21
-11.45
5.10
18.77
21.59
11.89
-4.65
-18.32
-21.06
-11.20
5.49
19.13
21.49
10.99
-6.42
-20.54
-22.92
-11.80
6.76
22.33
26.08
15.84
-2.55
-18.73
-23.65
-14.83
2.25
17.38
21.59
12.40
-4.84
-20.00
-24.14
-14.73
2.88
18.54
23.23
14.24
-3.19
-19.03
-24.27
-16.07
0.51
15.71
20.62
12.45
-3.95
-18.94
-23.79
-15.71
0.55
15.51
20.57
12.93
-2.74
-17.09
-21.55
-13.25
3.19
18.40
23.58
15.66
-0.89
-16.65
-22.52
-15.07
1.52
17.79
24.47
17.73
1.46
-15.03
-22.40
-16.49
-0.89
15.34
22.77
17.08
1.52
-15.00
-23.05
-18.11
-3.18
12.92
20.77
15.76
0.90
-15.01
-22.48
-16.92
-1.44
14.95
22.65
17.09
1.45
-15.23
-23.29
-18.06
-2.65
13.99
22.24
17.44
2.64
-13.30
-20.78
-15.06
0.94
18.31
27.25
22.64
7.01
-10.91
-21.20
-18.33
-4.41
12.10
21.22
17.28
2.21
-15.54
-25.77
-22.50
-7.33
11.34
23.15
21.73
8.31
-9.01
-20.11
-18.62
-5.66
10.95
21.25
18.99
5.33
-11.99
-23.04
-21.54
-8.47
8.51
19.53
18.22
5.50
-11.03
-21.46
-19.31
-5.38
12.71
24.84
24.14
10.98
-7.23
-20.39
-21.38
-10.21
6.05
17.53
17.32
5.60
-10.48
-20.98
-19.09
-5.20
13.09
25.39
24.43
10.40
-9.14
-23.57
-25.20
-13.67
3.90
17.14
18.42
7.26
-9.47
-21.60
-21.60
-8.98
9.32
23.06
24.59
13.34
-3.90
-16.95
-18.12
-6.71
10.64
23.74
24.78
12.83
-5.60
-20.31
-23.19
-12.93
4.19
18.00
20.33
9.80
-7.39
-21.01
-22.84
-11.41
6.92
21.74
24.57
13.74
-4.59
-20.13
-24.36
-15.34
1.17
15.30
18.75
9.59
-6.70
-20.48
-23.60
-14.16
2.38
16.40
19.78
10.72
-5.19
-18.19
-20.10
-9.13
8.92
23.90
27.16
16.57
-2.21
-18.88
-24.34
-15.91
1.14
16.74
21.79
13.48
-3.14
-18.18
-22.64
-13.68
3.65
19.41
24.50
16.00
-1.16
-17.06
-22.64
-14.84
1.57
16.86
21.99
13.87
-2.88
-18.68
-24.54
-17.29
-1.48
13.40
18.46
10.75
-5.03
-19.31
-23.21
-13.82
4.01
20.41
26.16
17.98
0.53
-16.30
-22.94
-15.67
1.28
18.13
25.21
18.50
1.93
-14.91
-22.33
-16.10
0.02
16.61
24.02
17.99
2.12
-14.34
-21.94
-16.43
-1.26
14.53
21.61
15.69
0.09
-16.31
-24.14
-18.97
-3.92
12.27
20.22
15.46
0.99
-14.45
-21.47
-15.54
0.29
17.08
25.13
19.65
3.62
-13.92
-23.02
-18.53
-3.16
14.14
23.38
19.29
4.35
-12.69
-21.90
-17.92
-3.07
14.04
23.51
19.85
5.09
-12.40
-22.87
-20.69
-7.57
8.48
17.90
15.12
1.80
-14.15
-23.23
-19.92
-5.92
10.69
20.27
17.23
3.38
-13.07
-22.28
-18.45
-3.25
15.01
26.16
24.01
9.85
-8.23
-20.03
-19.11
-6.41
10.33
21.15
19.66
6.73
-10.00
-20.75
-19.18
-6.24
10.46
21.18
19.73
7.11
-9.04
-19.01
-16.74
-3.32
13.52
23.89
21.42
7.06
-11.50
-24.06
-23.78
-11.13
6.43
18.63
18.47
6.13
-11.03
-22.85
-22.25
-9.38
8.34
20.70
20.53
8.00
-9.56
-21.93
-21.95
-9.66
7.77
20.28
20.70
8.87
-8.26
-20.77
-21.42
-9.86
7.16
19.72
20.47
9.00
-7.92
-20.18
-20.26
-7.71
10.54
24.08
25.13
13.10
-5.05
-18.83
-20.27
-8.62
9.21
22.74
23.93
11.88
-6.71
-21.47
-24.36
-14.15
2.81
16.45
18.83
8.73
-7.67
-20.47
-21.82
-10.71
6.54
19.87
21.40
10.18
-7.27
-20.66
-21.87
-9.70
9.31
24.63
27.73
16.93
-1.64
-17.60
-22.30
-13.61
2.87
17.19
20.83
11.65
-4.90
-19.08
-22.50
-13.14
3.44
17.36
20.21
10.10
-7.17
-21.45
-24.11
-13.15
5.57
21.62
25.96
16.15
-2.30
-19.05
-24.87
-16.87
-0.13
15.40
20.64
12.62
-3.82
-18.97
-23.90
-15.67
0.90
16.13
21.18
13.27
-2.68
-16.95
-20.72
-11.34
6.07
21.59
26.19
17.09
-0.64
-17.03
-22.86
-14.99
1.78
17.59
23.16
15.17
-1.81
-18.05
-24.31
-17.09
-0.79
14.99
20.97
13.70
-2.48
-17.98
-23.52
-15.63
1.27
17.54
23.80
16.54
0.15
-15.62
-21.39
-13.54
3.52
19.90
26.00
18.02
0.28
-17.23
-24.62
-17.77
-0.72
16.64
24.38
18.24
2.05
-14.60
-21.98
-15.84
-0.01
16.06
22.82
16.27
0.33
-15.53
-21.81
-14.64
1.99
18.42
24.92
17.43
-0.21
-18.36
-27.09
-21.78
-5.85
11.34
19.88
15.03
-0.11
-16.39
-24.08
-18.48
-2.76
13.95
21.86
16.37
0.77
-15.76
-23.42
-17.65
-1.78
14.99
22.98
17.72
2.55
-13.45
-20.77
-15.04
0.46
16.63
23.91
17.77
1.39
-16.10
-24.89
-20.06
-4.45
12.96
22.30
18.47
4.10
-12.07
-20.36
-15.76
-0.99
15.26
23.42
18.75
4.15
-11.61
-19.02
-13.49
1.99
18.51
26.36
20.76
4.56
-13.38
-23.19
-19.66
-5.20
11.56
20.73
16.86
2.01
-15.37
-25.48
-22.69
-8.77
8.04
17.94
15.17
1.41
-15.23
-24.95
-21.89
-7.75
9.37
19.62
17.20
3.83
-12.22
-21.08
-16.97
-1.74
16.17
26.61
23.68
9.13
-8.64
-19.46
-17.38
-3.99
12.54
22.35
19.56
5.67
-11.33
-21.71
-19.54
-6.20
10.43
20.57
18.11
4.27
-13.07
-23.90
-21.83
-7.86
10.19
22.12
21.26
8.44
-8.61
-19.73
-18.26
-4.97
12.43
23.90
22.96
10.46
-5.95
-16.40
-14.65
-1.73
14.60
24.38
21.29
6.36
-12.52
-25.13
-24.65
-11.66
6.17
18.55
18.37
5.83
-11.73
-24.20
-24.46
-12.55
4.35
16.20
15.99
3.87
-12.88
-24.21
-23.10
-9.90
7.94
20.18
19.84
7.37
-9.54
-20.55
-18.70
-4.56
14.00
26.47
25.79
12.51
-5.53
-17.86
-17.52
-5.05
11.88
23.04
21.63
8.23
-9.55
-21.58
-20.99
-8.18
9.33
21.39
20.90
8.00
-10.02
-22.92
-23.43
-11.33
6.32
19.34
20.34
9.00
-7.72
-19.79
-19.88
-7.84
9.29
21.51
21.66
9.73
-7.12
-18.84
-18.39
-5.83
11.60
23.74
23.41
10.59
-7.54
-20.77
-21.62
-9.74
7.94
21.22
22.45
10.99
-6.49
-19.87
-21.51
-10.59
6.30
19.03
19.88
8.01
-10.04
-24.06
-26.10
-15.11
2.50
16.56
19.09
8.93
-7.59
-20.46
-21.82
-10.67
6.54
19.64
20.81
9.20
-8.44
-21.74
-22.70
-10.55
7.86
21.92
23.50
11.70
-6.55
-20.63
-22.26
-10.35
8.28
23.03
25.54
14.54
-3.50
-18.24
-21.50
-11.89
4.46
17.57
19.50
8.96
-7.95
-21.35
-23.27
-12.40
5.07
19.03
21.23
10.15
-8.02
-22.88
-25.85
-15.05
3.48
19.28
23.54
14.19
-2.92
-17.55
-20.99
-11.28
5.70
19.85
22.78
12.78
-4.09
-17.69
-19.77
-8.77
9.09
23.49
26.02
15.15
-2.95
-17.91
-21.15
-10.92
6.76
21.62
25.12
15.33
-1.99
-16.82
-20.78
-11.87
4.31
17.85
20.40
10.00
-7.77
-22.94
-26.83
-17.14
0.81
17.04
22.62
14.68
-1.92
-17.56
-23.35
-16.21
-0.73
13.63
18.15
9.99
-6.03
-20.29
-23.95
-14.33
3.46
19.38
24.33
15.52
-1.84
-17.64
-22.67
-14.02
3.23
19.05
24.35
16.30
-0.08
-15.01
-19.68
-11.48
4.61
18.93
22.87
13.97
-2.66
-17.38
-21.56
-12.63
4.28
19.41
23.93
15.08
-2.20
-18.11
-23.67
-15.85
0.68
16.24
21.70
13.76
-3.10
-19.27
-25.50
-18.23
-1.72
14.46
20.93
13.97
-2.24
-18.11
-24.23
-16.83
-0.07
16.39
23.08
16.25
0.12
-15.70
-21.87
-14.81
1.09
16.22
21.40
13.35
-3.24
-18.50
-23.21
-14.19
3.72
20.40
26.41
18.41
1.15
-15.36
-21.66
-14.35
1.97
17.53
23.11
15.43
-0.92
-16.26
-21.50
-13.38
3.57
19.60
25.46
17.74
0.77
-15.78
-22.56
-15.91
0.03
15.78
21.99
14.92
-1.41
-17.56
-24.24
-17.62
-1.69
14.06
20.23
12.94
-3.86
-20.56
-27.45
-20.43
-3.36
14.15
22.23
16.56
0.88
-15.35
-22.42
-16.06
0.07
16.52
23.69
17.40
1.29
-15.29
-22.74
-16.84
-1.07
15.39
23.04
17.66
2.69
-12.88
-19.74
-13.72
1.65
17.25
23.74
17.05
0.82
-15.61
-22.67
-16.14
0.38
17.50
25.37
19.54
3.42
-13.69
-21.98
-16.75
-1.25
15.34
23.31
18.03
2.75
-13.44
-20.92
-15.22
0.40
16.84
24.46
18.74
2.89
-14.05
-22.49
-17.71
-2.77
13.50
21.56
16.69
1.83
-14.25
-22.12
-17.15
-2.27
13.67
21.09
15.26
-0.82
-18.17
-26.92
-21.99
-6.16
11.66
21.51
18.10
3.92
-12.38
-21.06
-17.02
-2.72
13.21
21.09
15.88
0.22
-17.09
-26.15
-21.70
-6.25
11.40
21.25
17.79
3.28
-13.68
-23.15
-19.64
-5.20
11.67
21.09
17.53
3.06
-13.92
-23.57
-20.34
-6.28
10.32
19.72
16.49
2.75
-13.12
-21.45
-16.89
-1.63
15.76
25.35
21.59
6.62
-11.04
-21.32
-18.51
-4.53
12.24
21.87
18.67
4.54
-12.15
-21.57
-18.06
-3.48
13.79
23.81
20.85
6.73
-10.29
-20.28
-17.49
-3.74
12.71
21.97
18.30
3.60
-13.68
-23.50
-19.95
-4.83
13.34
24.35
22.10
8.25
-8.89
-19.22
-16.76
-3.17
13.30
22.68
19.16
4.56
-12.70
-22.65
-19.36
-4.61
13.19
23.94
21.58
7.68
-9.61
-20.29
-18.35
-5.30
10.84
20.20
16.85
2.38
-15.00
-25.30
-22.39
-7.74
10.39
21.82
20.22
6.83
-10.32
-21.15
-19.38
-6.18
10.62
21.09
19.06
5.76
-10.95
-21.24
-18.90
-5.09
12.28
23.22
21.37
7.69
-10.03
-21.72
-20.79
-7.92
9.40
21.26
20.99
9.07
-7.30
-18.46
-17.90
-6.04
9.94
20.48
19.13
6.44
-10.38
-21.61
-20.73
-8.20
8.84
20.60
20.37
8.36
-8.45
-20.36
-20.55
-8.99
7.46
19.17
19.24
7.57
-9.07
-20.97
-21.14
-9.37
7.58
19.92
20.48
9.00
-7.75
-19.88
-20.19
-8.42
8.45
20.43
20.29
7.86
-9.78
-22.46
-22.90
-10.82
6.87
20.10
21.53
10.72
-5.73
-18.15
-19.38
-8.97
6.55
17.71
17.56
5.82
-10.86
-22.75
-22.73
-10.42
7.51
21.10
22.86
12.15
-4.51
-17.30
-18.75
-8.15
7.94
19.76
20.00
8.15
-9.13
-21.87
-22.67
-10.92
6.74
20.28
22.05
11.25
-5.71
-18.89
-20.58
-9.75
7.24
20.46
22.12
11.07
-6.37
-20.16
-22.31
-11.50
6.10
20.44
23.37
13.42
-3.45
-17.31
-20.11
-10.42
5.74
18.52
20.06
9.13
-8.09
-21.64
-23.65
-12.90
4.39
18.23
20.64
10.42
-6.29
-19.48
-21.16
-10.05
7.55
21.50
23.66
12.56
-5.60
-20.51
-23.79
-13.65
3.93
18.77
22.34
12.81
-3.99
-18.04
-20.96
-11.04
5.75
19.32
21.41
10.44
-7.39
-21.76
-24.27
-13.25
5.15
20.60
24.47
14.93
-2.17
-16.74
-20.30
-10.93
5.59
19.37
22.15
12.11
-4.97
-19.19
-22.29
-12.47
4.57
18.90
22.15
12.38
-4.83
-19.62
-23.49
-14.22
2.78
17.70
21.98
13.25
-3.27
-17.82
-21.84
-12.88
3.85
18.60
22.69
13.69
-3.19
-18.16
-22.45
-13.60
3.12
17.85
21.87
12.70
-4.34
-19.36
-23.67
-14.85
1.83
16.49
20.47
11.41
-5.37
-20.08
-24.03
-14.82
2.21
17.28
21.72
13.07
-3.47
-18.09
-22.16
-13.20
3.65
18.55
22.75
13.80
-3.10
-18.06
-22.28
-13.15
4.05
19.43
24.12
15.51
-1.29
-16.47
-21.32
-13.31
2.53
16.55
20.19
11.08
-5.51
-19.85
-23.28
-13.38
4.47
20.33
25.29
16.70
-0.33
-15.87
-21.03
-13.03
3.20
17.95
22.41
13.91
-2.52
-17.22
-21.50
-12.74
3.92
18.78
23.15
14.48
-2.17
-17.07
-21.58
-13.18
3.06
17.43
21.22
11.96
-5.16
-20.32
-24.75
-15.72
1.60
17.40
22.77
14.90
-1.30
-16.10
-20.61
-11.99
4.96
20.48
25.60
17.35
0.53
-15.13
-20.66
-12.94
3.29
18.31
23.05
14.39
-2.98
-19.23
-25.04
-17.10
0.09
16.67
23.16
16.01
-0.39
-16.34
-22.45
-15.12
1.20
16.75
22.14
13.87
-3.58
-20.25
-26.52
-18.72
-1.17
16.20
23.66
17.25
0.96
-15.62
-22.96
-16.98
-1.49
14.08
20.29
13.18
-3.42
-20.01
-26.95
-20.11
-3.25
14.12
22.21
16.71
1.26
-14.75
-21.69
-15.29
0.74
16.98
23.94
17.58
1.77
-14.05
-20.45
-13.63
2.38
18.04
23.97
16.51
-0.11
-16.18
-22.25
-14.55
2.67
19.60
26.61
19.78
3.18
-13.57
-20.79
-14.47
1.50
17.65
24.38
17.60
1.08
-15.70
-23.18
-17.05
-0.85
16.04
23.91
18.24
2.27
-14.89
-23.52
-18.84
-3.88
12.45
20.48
15.41
0.20
-16.22
-24.17
-18.85
-3.21
13.73
22.06
16.80
0.76
-17.06
-26.60
-22.48
-7.18
10.63
20.95
18.25
4.59
-11.70
-20.96
-17.85
-4.43
11.04
18.99
14.29
-0.68
-17.43
-26.26
-21.90
-6.77
10.55
20.28
17.13
3.47
-12.14
-19.99
-15.03
0.19
16.89
25.22
20.16
4.50
-12.77
-21.63
-16.88
-1.32
15.97
24.91
20.25
4.72
-12.63
-21.71
-17.26
-1.85
15.63
25.12
21.28
6.53
-10.50
-19.97
-16.51
-2.32
14.08
22.96
18.84
3.78
-13.86
-24.20
-21.54
-7.55
9.69
20.31
18.42
5.45
-10.75
-20.51
-17.98
-4.59
11.70
21.13
17.86
3.41
-14.09
-24.66
-22.33
-8.48
8.83
19.65
17.90
4.95
-11.30
-21.04
-18.28
-4.39
12.62
22.98
20.77
7.39
-9.20
-19.20
-16.71
-3.20
13.35
23.14
20.29
6.42
-10.33
-20.06
-16.86
-2.33
15.27
25.86
23.37
9.19
-8.61
-20.00
-18.76
-6.10
10.13
20.01
17.34
3.32
-14.18
-25.23
-23.52
-10.09
7.17
18.16
16.43
2.87
-14.77
-26.32
-25.08
-11.79
5.97
18.12
17.98
6.15
-9.84
-20.15
-18.39
-5.36
11.30
21.73
19.71
6.34
-10.55
-21.02
-18.80
-5.05
12.34
23.35
21.61
8.16
-9.13
-20.13
-18.33
-4.58
13.32
25.17
24.20
11.03
-6.80
-19.22
-19.36
-7.65
8.57
19.43
18.20
5.28
-11.97
-23.56
-22.61
-9.39
8.81
21.78
22.26
10.16
-7.46
-20.48
-21.46
-10.01
7.00
19.58
20.35
8.95
-7.87
-20.16
-20.78
-9.45
7.00
18.70
18.67
6.98
-9.24
-20.10
-18.70
-5.35
12.48
24.64
24.14
11.26
-6.58
-19.10
-19.12
-6.76
10.75
23.12
23.00
10.26
-7.98
-21.55
-22.94
-11.72
5.20
17.67
18.13
5.99
-12.01
-25.69
-27.30
-16.05
1.49
15.28
17.59
7.54
-8.43
-20.41
-20.89
-9.07
8.48
21.73
23.13
12.02
-4.92
-17.60
-18.41
-6.79
10.42
23.03
23.36
10.91
-7.29
-20.77
-21.68
-9.32
9.39
23.86
26.00
14.79
-3.25
-17.86
-20.90
-11.05
5.51
18.90
21.10
10.67
-6.44
-20.51
-23.60
-14.12
2.23
15.85
18.86
9.68
-6.05
-18.83
-20.86
-10.62
6.11
19.72
22.38
12.62
-3.73
-16.89
-18.97
-8.58
8.26
21.54
23.18
11.82
-6.27
-20.89
-23.69
-13.12
4.60
19.14
21.96
11.26
-7.02
-22.58
-26.70
-17.24
0.27
15.82
20.73
12.63
-3.24
-17.24
-21.01
-12.32
3.55
17.04
20.00
10.60
-5.69
-19.14
-21.62
-11.40
5.74
19.94
22.96
13.07
-3.86
-17.77
-20.25
-9.42
8.86
24.30
28.09
18.04
-0.20
-16.39
-21.52
-13.06
3.60
18.37
22.25
12.60
-5.24
-21.22
-26.31
-17.80
-0.82
14.64
19.57
11.22
-5.37
-20.35
-24.80
-15.88
1.38
17.16
22.56
14.76
-1.33
-15.93
-20.27
-11.68
4.78
19.23
22.87
13.22
-4.36
-19.80
-24.10
-14.65
3.14
19.08
24.06
15.28
-2.04
-17.77
-22.70
-13.88
3.73
20.04
25.74
17.61
0.38
-16.14
-22.66
-15.74
0.18
15.48
21.00
13.33
-3.17
-18.95
-24.82
-17.35
-0.88
15.06
21.24
14.20
-1.67
-16.73
-21.77
-13.42
3.74
19.82
25.45
17.32
0.16
-15.97
-21.60
-13.37
3.88
20.03
25.45
16.67
-1.51
-18.93
-25.87
-18.71
-1.91
14.54
21.03
13.85
-2.71
-19.04
-25.72
-18.93
-2.78
13.42
20.43
14.53
-0.38
-15.11
-20.68
-13.54
2.24
17.32
22.62
14.74
-2.02
-18.06
-24.05
-16.37
0.68
17.35
24.12
17.16
0.58
-15.94
-22.73
-15.71
1.31
18.85
27.15
21.84
6.30
-10.34
-18.57
-13.93
0.30
15.10
21.13
14.17
-2.26
-18.83
-25.95
-19.34
-2.64
14.65
22.67
16.99
1.24
-15.07
-22.14
-15.59
0.96
17.99
25.68
19.65
3.40
-13.76
-22.12
-17.16
-2.17
13.88
21.41
15.87
0.34
-16.35
-24.76
-20.29
-5.81
10.00
17.78
13.01
-1.41
-16.86
-24.02
-18.37
-2.95
13.46
21.49
16.64
2.02
-13.39
-20.10
-13.66
2.64
19.59
27.35
21.30
4.73
-13.10
-22.19
-17.57
-2.22
14.76
23.48
18.81
3.38
-14.04
-23.70
-20.45
-6.67
9.26
17.86
14.18
0.72
-14.10
-20.92
-14.95
1.16
18.64
27.77
23.40
7.96
-9.88
-20.18
-17.42
-3.62
12.83
22.04
18.31
3.53
-14.02
-24.45
-21.97
-8.29
8.35
18.09
15.23
1.55
-14.76
-23.95
-20.38
-5.99
10.89
20.55
17.44
3.64
-12.43
-20.92
-16.37
-0.89
16.97
27.10
23.77
8.86
-9.22
-20.42
-18.75
-5.83
10.21
19.52
16.29
2.18
-14.61
-24.25
-20.99
-6.59
10.69
20.91
18.29
4.68
-11.49
-20.28
-15.92
-0.33
17.95
28.69
25.89
11.15
-7.23
-19.04
-17.98
-5.32
11.04
21.07
18.52
4.59
-12.82
-23.79
-22.10
-8.98
7.60
17.68
15.17
1.45
-15.40
-25.35
-22.32
-7.81
9.94
20.80
18.63
4.84
-12.37
-22.81
-20.24
-5.87
12.22
23.87
22.64
9.50
-7.86
-19.51
-18.97
-7.07
8.80
19.01
17.38
4.84
-11.09
-20.82
-18.34
-4.85
11.89
22.02
19.46
5.55
-11.66
-22.12
-19.57
-5.21
12.84
24.30
22.59
8.57
-9.95
-22.62
-22.49
-9.96
7.59
20.02
20.25
8.41
-8.38
-20.28
-20.37
-8.81
7.28
18.10
17.02
4.53
-11.99
-22.59
-20.65
-6.83
11.15
23.04
21.94
8.34
-10.04
-22.74
-22.45
-9.26
9.43
23.17
24.43
12.91
-4.41
-17.42
-18.66
-7.75
8.54
20.36
20.55
8.99
-7.42
-18.79
-18.22
-5.84
11.08
22.43
21.23
7.86
-10.11
-22.32
-21.60
-8.22
10.21
23.13
23.09
9.99
-8.91
-23.13
-24.99
-13.91
3.39
16.83
18.82
8.66
-7.17
-18.95
-19.40
-8.04
8.48
20.33
20.32
8.18
-9.17
-21.66
-21.94
-9.69
8.05
21.07
21.74
9.57
-8.50
-22.06
-23.25
-11.23
7.30
21.90
24.41
13.59
-4.18
-18.75
-21.89
-12.18
4.29
17.60
19.81
9.68
-6.60
-19.13
-20.26
-9.07
7.95
20.70
21.47
9.58
-8.18
-21.52
-22.61
-10.59
7.72
21.94
24.10
13.14
-4.49
-18.56
-21.03
-10.68
6.32
19.93
22.08
11.42
-6.03
-20.36
-23.47
-13.75
2.91
16.71
19.52
9.69
-7.05
-20.89
-23.73
-13.90
2.84
16.69
19.60
10.01
-6.07
-18.66
-19.66
-7.62
11.20
26.35
29.32
18.38
-0.38
-16.57
-21.40
-12.81
3.46
17.34
20.22
10.07
-7.39
-22.15
-25.75
-16.22
0.74
15.13
18.58
9.27
-7.05
-20.43
-22.58
-11.72
6.25
21.25
24.80
14.90
-2.72
-17.91
-21.89
-12.29
5.50
21.40
26.43
17.87
0.78
-15.01
-20.60
-13.19
2.26
16.12
19.82
10.93
-5.37
-19.31
-22.41
-12.52
4.77
19.40
22.62
12.24
-5.98
-21.72
-25.94
-16.12
2.32
19.09
24.99
17.15
0.49
-15.20
-20.92
-13.63
2.03
16.61
21.41
13.53
-2.30
-16.54
-20.47
-11.32
5.97
21.45
25.98
16.61
-1.66
-18.71
-25.10
-17.51
-0.75
15.20
20.87
12.84
-4.34
-20.84
-27.28
-20.15
-3.87
11.98
18.25
11.65
-3.26
-16.90
-20.35
-10.62
7.37
23.68
29.05
20.33
2.30
-15.07
-22.31
-15.84
0.07
15.89
22.32
15.72
0.11
-15.28
-21.43
-14.83
0.46
15.16
20.27
12.46
-3.96
-19.48
-24.93
-16.86
0.34
16.95
23.54
16.33
-0.57
-17.55
-25.05
-19.02
-3.19
13.16
20.62
15.13
0.27
-14.78
-20.82
-13.85
2.38
18.58
25.39
18.82
2.68
-13.71
-20.81
-14.54
1.40
17.72
24.86
18.57
2.41
-14.50
-22.73
-17.95
-3.44
11.91
18.81
12.97
-2.42
-18.62
-26.39
-21.26
-6.20
10.16
18.56
14.51
0.91
-13.56
-19.62
-12.84
3.63
20.73
28.67
22.72
6.00
-12.26
-21.96
-17.91
-2.92
13.97
22.76
18.20
2.92
-14.18
-23.24
-19.12
-4.41
12.14
20.84
16.67
2.35
-13.37
-20.93
-15.50
0.13
17.06
25.50
20.40
4.31
-14.00
-24.53
-21.76
-7.70
9.33
19.46
17.03
3.81
-12.10
-21.04
-17.46
-3.22
13.43
22.72
19.17
4.78
-12.06
-21.50
-17.97
-3.53
13.35
22.77
19.11
4.35
-13.06
-23.19
-20.32
-6.19
10.95
21.23
18.90
5.59
-10.65
-20.11
-17.04
-3.05
13.82
23.84
21.20
7.51
-9.19
-19.06
-16.24
-2.36
14.41
23.99
20.34
5.04
-13.67
-25.63
-24.61
-11.89
4.54
14.81
12.91
0.18
-15.60
-24.78
-21.52
-7.27
10.11
20.92
19.23
6.33
-9.93
-19.83
-17.29
-3.48
13.84
24.74
22.87
9.19
-8.67
-20.66
-20.14
-7.59
9.61
21.53
21.33
9.29
-7.42
-18.95
-18.45
-6.19
10.65
22.07
21.14
8.10
-9.79
-22.50
-23.03
-11.48
4.97
16.37
15.91
3.89
-12.46
-23.21
-21.68
-8.43
9.02
20.62
19.64
6.69
-10.49
-21.63
-19.85
-5.63
13.34
26.63
26.98
14.43
-3.81
-17.53
-19.33
-8.78
7.44
19.52
20.20
9.03
-7.38
-19.25
-19.29
-7.15
10.37
23.09
23.42
10.89
-7.58
-21.70
-23.74
-13.05
3.54
15.89
16.55
5.13
-11.43
-23.09
-22.57
-9.74
8.28
21.27
21.85
9.75
-7.98
-21.08
-22.00
-10.22
7.46
20.92
22.51
11.55
-5.43
-18.46
-19.91
-8.93
8.14
21.38
23.03
12.02
-5.42
-19.42
-22.09
-12.13
4.39
17.64
19.75
9.50
-7.00
-19.85
-21.22
-9.98
7.53
21.20
23.14
12.23
-5.14
-18.84
-20.87
-10.08
7.15
20.68
22.46
11.28
-6.54
-20.83
-23.50
-13.24
3.75
17.35
19.54
9.07
-7.77
-20.98
-22.53
-11.22
6.66
20.95
23.48
12.77
-5.17
-20.26
-24.23
-15.21
1.15
15.10
18.53
9.69
-5.75
-18.05
-19.15
-7.49
10.93
25.92
28.96
18.21
-0.45
-16.71
-21.75
-13.26
3.23
17.76
21.68
12.74
-3.62
-17.57
-20.65
-10.88
6.15
20.40
23.38
13.08
-4.81
-20.23
-24.57
-15.64
0.95
15.23
18.62
9.00
-8.09
-22.60
-25.85
-15.72
2.17
17.60
21.72
12.25
-5.13
-20.15
-23.90
-13.97
4.00
19.76
24.31
15.23
-2.09
-17.57
-22.36
-13.96
2.47
17.12
21.33
12.66
-3.66
-17.84
-21.18
-11.19
6.81
22.76
27.61
18.64
0.91
-15.53
-21.56
-14.14
1.92
16.87
21.77
13.64
-2.70
-17.56
-21.99
-13.10
4.16
19.87
24.80
15.81
-2.28
-19.45
-26.32
-19.44
-3.37
12.10
17.75
10.35
-5.48
-20.09
-24.42
-15.47
1.93
17.96
23.46
15.26
-1.94
-18.27
-24.41
-16.86
-0.02
16.46
23.21
16.62
0.97
-14.18
-19.50
-11.39
5.80
22.33
28.68
21.11
3.83
-13.43
-21.12
-15.31
0.04
15.49
21.70
14.90
-0.89
-16.36
-22.26
-15.00
1.31
17.20
23.35
16.14
-0.34
-16.60
-23.32
-16.69
-0.81
14.87
21.02
13.89
-2.45
-18.48
-24.71
-17.36
-0.54
16.03
22.67
15.42
-1.61
-18.62
-25.86
-19.21
-2.65
14.07
21.18
14.60
-1.75
-18.34
-25.50
-19.09
-2.82
13.92
21.58
15.97
0.65
-15.13
-21.89
-15.33
0.96
17.68
25.19
19.17
3.26
-13.12
-20.17
-13.51
3.17
20.26
27.79
21.26
4.32
-13.34
-21.69
-16.07
0.01
17.03
24.97
19.21
3.23
-13.61
-21.43
-15.78
-0.14
16.08
23.17
16.82
0.59
-16.19
-23.94
-18.34
-2.98
12.93
19.97
13.94
-1.59
-17.45
-24.26
-17.91
-2.07
14.01
20.83
14.27
-1.91
-18.29
-25.34
-18.84
-2.48
14.30
21.87
15.94
0.04
-16.64
-24.48
-19.06
-3.59
12.98
21.19
16.50
1.92
-13.72
-20.99
-15.28
0.38
17.03
25.01
19.66
4.07
-12.63
-20.55
-14.98
0.90
17.78
25.74
19.99
3.75
-13.62
-22.18
-17.06
-1.39
15.59
23.91
18.65
2.79
-14.61
-23.71
-19.64
-5.18
10.77
18.64
13.77
-0.91
-16.60
-23.82
-17.95
-2.07
14.83
23.07
17.86
2.14
-15.08
-24.01
-19.72
-5.01
11.24
19.35
14.58
0.02
-15.32
-21.77
-14.78
2.31
20.09
28.54
22.83
6.02
-12.62
-23.04
-20.04
-6.17
9.86
18.42
14.53
0.84
-14.05
-20.67
-14.31
2.06
19.45
28.06
22.99
7.15
-10.44
-19.92
-16.25
-2.19
13.40
20.84
15.33
-0.18
-16.67
-24.36
-18.54
-2.32
15.06
23.58
18.31
2.32
-15.16
-24.14
-19.60
-4.48
12.13
20.41
15.51
0.35
-16.18
-24.43
-19.62
-4.67
11.59
19.60
14.69
-0.15
-15.99
-23.26
-17.28
-1.08
16.25
24.99
20.36
5.36
-11.06
-19.22
-14.37
0.55
16.70
24.56
19.42
4.19
-12.37
-20.74
-16.19
-1.54
14.48
22.27
17.03
1.55
-15.39
-24.08
-19.58
-4.55
12.22
21.02
16.92
2.62
-13.17
-20.91
-15.78
-0.68
15.48
23.04
17.21
0.96
-16.61
-25.60
-21.08
-5.90
10.91
19.49
14.88
0.01
-16.21
-24.07
-18.74
-3.16
13.71
22.18
17.45
2.40
-14.15
-22.56
-18.02
-3.21
13.18
21.54
16.98
2.18
-14.08
-22.10
-16.80
-0.86
16.86
26.40
22.56
7.89
-8.82
-17.69
-13.57
0.96
17.14
25.23
20.18
4.67
-12.51
-21.67
-17.75
-3.36
12.85
21.30
17.05
2.66
-13.36
-21.58
-17.26
-3.04
12.56
20.14
15.08
0.11
-16.14
-24.32
-19.63
-4.83
11.51
19.94
15.65
1.32
-14.46
-22.23
-17.19
-2.06
14.47
22.82
18.08
2.99
-13.68
-22.31
-17.96
-3.40
12.55
20.20
14.75
-0.86
-17.62
-25.63
-19.99
-3.63
14.27
23.60
19.17
3.74
-13.62
-22.87
-18.74
-3.85
12.91
21.69
17.45
2.93
-13.05
-20.74
-15.25
0.57
17.78
26.56
21.86
6.31
-11.28
-21.09
-17.88
-4.01
12.02
20.61
16.68
2.75
-12.61
-19.85
-14.14
1.68
18.61
26.82
21.35
5.10
-12.84
-22.51
-18.72
-4.12
12.39
20.97
16.48
1.47
-15.33
-24.16
-19.87
-5.00
11.75
20.58
16.34
1.62
-14.86
-23.40
-18.95
-4.22
11.93
19.80
14.56
-0.81
-17.34
-25.21
-19.60
-3.49
13.98
22.89
18.22
2.80
-14.33
-23.25
-18.86
-3.90
12.75
21.30
16.84
2.32
-13.32
-20.39
-14.22
1.94
18.88
26.72
20.73
4.05
-14.02
-23.55
-19.55
-4.93
11.35
19.55
14.87
0.32
-15.15
-21.87
-15.27
1.36
18.73
26.96
21.37
5.21
-12.24
-21.18
-16.92
-2.62
12.79
19.93
14.60
0.19
-14.34
-19.88
-12.55
3.87
20.14
26.81
19.84
2.91
-14.64
-23.23
-18.55
-4.00
11.29
17.94
11.78
-3.68
-19.34
-25.79
-18.84
-2.12
15.12
23.26
17.93
2.54
-13.73
-21.35
-15.98
-1.06
14.23
20.46
13.51
-2.77
-18.92
-25.34
-18.01
-0.94
16.14
23.45
16.92
0.49
-16.18
-23.39
-16.97
-0.67
16.10
23.78
18.14
2.69
-13.44
-20.93
-15.61
-0.98
13.98
20.12
13.56
-1.94
-17.10
-22.62
-14.56
3.09
20.74
28.61
22.31
5.41
-12.69
-22.19
-18.45
-4.54
10.68
17.84
12.63
-1.67
-16.15
-21.59
-14.03
2.74
19.25
25.89
18.67
1.57
-15.59
-23.01
-16.50
-0.05
16.55
23.58
16.97
0.79
-15.28
-21.67
-14.47
2.10
18.31
24.50
16.80
-0.54
-17.70
-24.96
-18.38
-2.15
13.97
20.32
13.17
-3.21
-19.01
-24.71
-16.64
0.72
17.42
23.82
16.18
-1.07
-17.99
-24.87
-17.92
-1.44
14.74
21.07
13.89
-2.39
-17.94
-23.36
-15.10
2.21
18.62
24.60
16.65
-0.71
-17.56
-24.34
-17.39
-0.98
15.24
21.86
15.11
-0.92
-16.83
-23.31
-16.57
-0.59
15.29
21.89
15.60
0.53
-13.99
-18.87
-10.80
5.79
21.25
26.43
18.04
0.68
-15.78
-22.00
-14.51
2.24
18.52
24.94
17.94
1.78
-14.07
-20.39
-13.64
2.00
17.15
22.76
15.42
-0.66
-16.22
-22.32
-15.58
-0.23
14.52
19.87
12.66
-2.73
-16.95
-21.20
-12.42
4.70
20.39
25.40
16.46
-1.71
-19.12
-26.18
-19.30
-2.90
13.21
19.61
12.82
-2.77
-17.59
-22.57
-14.53
1.99
17.33
22.43
14.19
-2.71
-18.54
-24.21
-16.48
0.00
15.52
20.91
13.00
-3.57
-19.09
-24.44
-16.47
0.12
15.58
20.86
12.99
-3.21
-17.90
-22.04
-12.68
5.23
21.67
27.33
18.95
1.21
-15.93
-23.12
-16.86
-1.56
13.21
18.35
10.64
-5.40
-20.22
-24.90
-16.34
0.75
16.72
22.49
14.89
-1.49
-17.01
-22.56
-14.79
1.94
18.09
24.48
17.53
1.32
-14.79
-21.61
-15.40
-0.09
15.09
21.08
14.35
-0.92
-15.40
-20.02
-11.50
5.60
21.52
26.91
18.36
0.48
-16.85
-24.12
-17.68
-1.78
14.01
20.42
13.89
-1.42
-16.19
-21.44
-13.84
2.24
17.34
22.55
14.74
-1.45
-16.40
-21.06
-12.34
4.97
21.01
26.46
18.00
0.24
-16.96
-24.18
-17.78
-1.99
13.69
20.05
13.52
-1.76
-16.46
-21.56
-13.70
2.76
18.31
23.86
16.18
-0.22
-15.69
-21.11
-13.28
3.17
18.52
23.65
15.34
-1.84
-18.19
-24.54
-17.50
-1.44
14.13
20.08
12.98
-2.83
-17.87
-22.98
-14.76
2.38
18.72
24.94
17.52
0.85
-15.33
-21.67
-14.57
1.64
17.30
23.12
15.57
-1.04
-17.14
-23.49
-16.51
-0.47
15.07
20.93
13.66
-2.33
-17.40
-22.34
-13.84
3.47
19.67
25.41
17.33
0.08
-16.48
-22.97
-16.00
-0.05
15.24
20.72
13.03
-3.44
-19.15
-25.00
-17.53
-1.02
14.99
21.28
14.34
-1.56
-16.86
-22.30
-14.39
2.45
18.46
24.30
16.51
-0.39
-16.64
-22.90
-15.81
0.08
15.06
20.02
11.82
-4.80
-19.99
-24.64
-15.61
2.21
18.78
24.74
16.85
-0.01
-15.70
-20.76
-11.91
5.92
22.45
28.10
19.52
1.53
-15.72
-22.68
-15.95
-0.14
14.96
20.21
12.48
-3.54
-18.23
-22.72
-14.14
2.57
17.60
22.03
13.16
-3.81
-18.80
-22.72
-12.85
5.41
21.63
26.43
16.93
-1.60
-18.79
-25.21
-17.82
-1.60
13.48
18.41
10.41
-5.52
-19.55
-22.93
-13.12
4.55
20.01
24.32
14.96
-2.58
-17.99
-22.10
-12.28
5.90
21.93
26.50
16.94
-1.28
-17.75
-23.27
-15.15
1.26
15.85
19.79
10.72
-5.89
-19.98
-22.87
-12.33
5.97
21.72
25.92
16.15
-2.03
-18.29
-23.52
-15.07
1.63
16.44
20.40
11.07
-6.13
-21.08
-24.96
-15.40
2.13
17.55
22.04
13.18
-3.62
-18.32
-22.15
-12.59
4.99
20.49
24.97
15.79
-1.76
-17.56
-22.55
-14.00
2.89
18.05
22.50
13.63
-3.32
-18.39
-22.76
-13.97
2.64
17.12
20.79
11.36
-5.63
-20.10
-23.31
-13.00
5.19
20.97
25.35
15.93
-1.74
-17.39
-22.00
-13.06
3.91
18.72
22.52
13.07
-4.02
-18.61
-22.03
-12.27
4.84
19.10
21.86
11.26
-6.66
-21.47
-24.37
-13.30
5.69
21.94
26.28
16.32
-2.22
-18.87
-24.40
-16.22
0.24
14.84
18.76
9.68
-6.92
-21.05
-24.15
-14.15
3.29
18.15
21.88
12.48
-4.34
-18.47
-21.35
-10.87
7.17
22.44
26.07
15.83
-2.51
-18.56
-23.24
-14.07
3.27
18.43
22.45
12.96
-4.43
-19.54
-23.61
-14.50
2.17
16.35
19.61
10.01
-6.68
-20.45
-22.94
-12.31
5.56
20.50
23.99
14.10
-3.29
-17.99
-21.36
-11.33
6.27
21.21
24.77
14.78
-3.11
-18.73
-23.34
-14.64
1.91
16.38
20.23
11.21
-5.26
-19.38
-22.69
-13.04
4.07
18.70
22.30
12.79
-4.13
-18.36
-21.24
-10.72
7.25
22.29
25.57
15.07
-3.23
-18.85
-22.87
-13.19
4.29
19.17
22.63
12.54
-5.33
-20.67
-24.74
-15.27
2.15
17.37
21.69
12.92
-3.40
-17.28
-20.19
-10.12
7.12
21.35
24.07
13.47
-4.40
-19.21
-22.35
-11.98
5.82
20.74
24.12
14.01
-3.83
-19.30
-23.85
-15.36
0.70
14.56
17.88
8.64
-7.72
-21.44
-24.20
-13.90
3.94
19.42
23.99
15.43
-0.83
-14.90
-18.23
-8.59
8.55
23.24
26.81
16.94
-0.98
-16.99
-22.32
-14.40
1.64
16.00
19.99
11.04
-5.76
-20.67
-25.02
-16.33
0.21
14.81
18.93
10.30
-5.60
-18.83
-20.84
-9.61
9.07
24.93
29.15
19.50
1.64
-14.29
-19.42
-11.30
4.75
18.84
22.23
12.43
-5.34
-21.22
-26.38
-18.17
-1.68
13.25
17.79
9.40
-6.71
-20.64
-23.68
-13.57
4.12
19.27
23.18
13.82
-3.02
-17.13
-19.96
-9.65
7.85
22.24
24.92
14.05
-4.33
-19.83
-23.65
-13.65
4.32
19.85
23.93
14.20
-3.77
-19.72
-24.66
-16.13
0.40
14.89
18.69
9.65
-6.63
-20.14
-22.51
-11.98
5.58
20.05
23.07
13.00
-4.16
-18.27
-21.01
-10.71
6.60
20.70
23.17
12.31
-5.80
-20.90
-24.36
-14.29
3.34
18.24
21.79
12.02
-5.24
-19.92
-23.54
-14.20
2.42
16.39
19.42
9.68
-7.20
-21.41
-24.75
-15.30
1.45
15.83
19.67
11.11
-4.38
-17.13
-19.06
-8.42
9.03
23.38
26.38
16.32
-0.83
-15.04
-17.95
-7.92
9.10
23.02
25.57
15.19
-2.05
-16.06
-18.65
-8.26
9.01
23.01
25.42
14.59
-3.52
-18.81
-22.88
-13.85
2.45
16.01
18.49
8.15
-9.15
-23.37
-26.14
-15.78
1.69
16.12
19.17
9.20
-7.73
-21.45
-23.75
-13.18
4.09
17.92
20.14
9.36
-8.18
-22.38
-25.08
-14.78
2.53
16.84
20.02
10.47
-5.94
-19.39
-21.80
-11.56
5.44
19.40
22.24
12.49
-3.88
-16.93
-18.57
-7.39
10.49
24.96
27.86
17.76
0.78
-13.05
-15.66
-5.68
10.75
23.63
24.91
13.33
-4.88
-19.57
-22.65
-12.72
3.97
17.25
18.95
7.81
-9.85
-23.78
-25.78
-14.56
3.44
17.90
20.63
10.32
-6.64
-19.99
-21.68
-10.54
6.97
20.62
22.40
11.19
-6.53
-20.58
-22.90
-12.25
5.12
19.06
21.48
10.94
-6.49
-20.84
-23.92
-14.05
2.93
17.16
20.51
11.24
-4.90
-18.17
-20.52
-10.39
6.36
19.92
22.27
12.02
-4.84
-18.45
-20.94
-11.02
5.26
18.12
19.83
9.35
-7.10
-19.70
-20.86
-9.66
7.47
20.52
21.80
10.53
-6.70
-19.77
-20.89
-9.24
8.47
21.96
23.36
11.79
-6.12
-20.03
-21.93
-10.83
6.79
20.69
22.77
11.82
-5.86
-20.14
-22.92
-12.75
4.29
18.18
20.75
10.46
-6.77
-21.03
-24.20
-14.64
1.79
15.36
18.09
8.59
-7.23
-19.64
-20.78
-9.55
7.89
21.59
23.69
13.08
-3.94
-17.35
-19.24
-8.44
8.70
22.07
23.61
12.11
-6.01
-20.42
-22.88
-11.95
5.98
20.48
23.07
12.27
-5.58
-20.04
-22.61
-11.81
5.96
20.28
22.75
11.97
-5.68
-19.92
-22.52
-12.23
4.67
18.07
19.91
8.87
-8.81
-23.11
-25.93
-15.72
1.61
16.14
19.74
10.72
-5.15
-18.11
-20.09
-9.48
7.76
21.67
24.07
13.52
-3.77
-17.53
-19.42
-8.02
10.31
25.12
27.90
17.14
-0.83
-15.57
-18.61
-8.32
9.07
23.17
25.50
14.43
-3.87
-19.10
-22.82
-13.33
3.25
16.71
18.71
7.79
-9.76
-23.65
-25.53
-14.09
4.17
18.73
21.13
9.89
-8.60
-23.84
-27.29
-17.30
0.04
14.56
17.85
8.24
-8.36
-22.03
-24.64
-14.57
2.31
16.13
18.87
9.03
-7.42
-20.57
-22.36
-11.34
6.36
20.76
23.77
14.04
-2.28
-15.18
-16.66
-5.55
11.88
25.56
27.56
16.80
-0.35
-13.85
-15.87
-5.38
11.19
23.74
24.39
12.23
-6.17
-20.56
-22.93
-12.20
5.03
18.34
19.65
7.91
-10.21
-24.24
-25.94
-14.27
4.03
18.36
20.45
9.15
-8.91
-23.23
-25.57
-14.76
2.77
16.76
19.15
8.76
-8.02
-21.10
-22.59
-11.34
6.36
20.43
22.85
12.40
-4.71
-18.43
-20.71
-10.15
7.12
21.12
23.81
13.86
-2.64
-15.77
-17.59
-6.90
10.13
23.53
25.44
14.72
-2.39
-15.92
-18.08
-7.75
8.75
21.47
22.64
11.28
-6.16
-19.64
-21.39
-10.45
6.59
19.54
20.52
8.72
-9.14
-22.73
-24.12
-12.53
5.17
18.54
19.66
7.81
-10.15
-23.74
-25.02
-13.30
4.63
18.35
19.91
8.48
-9.26
-23.02
-24.83
-13.59
4.30
18.64
21.33
10.98
-6.30
-20.55
-23.57
-13.72
3.13
17.10
20.07
10.42
-5.98
-19.24
-21.30
-10.76
6.30
19.87
22.05
11.65
-5.03
-18.05
-19.71
-9.14
7.19
19.36
19.86
8.07
-9.33
-22.32
-23.32
-11.62
6.14
19.85
21.81
11.23
-5.35
-17.88
-18.66
-6.94
10.55
23.64
24.63
12.85
-4.83
-18.17
-19.40
-7.96
9.41
22.52
23.75
12.53
-4.47
-17.23
-18.35
-7.33
9.12
21.04
21.04
8.75
-8.94
-21.88
-22.49
-10.26
7.87
21.42
22.54
10.53
-7.71
-21.65
-23.22
-11.60
6.34
20.12
21.76
10.46
-6.91
-19.92
-20.73
-8.71
9.23
22.69
23.88
12.23
-5.34
-18.54
-19.68
-8.13
9.29
22.31
23.21
11.30
-6.65
-20.41
-22.19
-11.17
5.91
18.80
19.67
7.76
-10.17
-23.82
-25.30
-13.85
3.72
17.08
18.48
7.25
-9.79
-22.42
-23.07
-11.24
6.18
19.10
20.02
8.49
-8.58
-21.12
-21.60
-9.42
8.72
22.64
24.62
13.73
-3.62
-17.48
-20.08
-10.26
5.74
18.18
19.49
8.78
-7.58
-19.82
-20.46
-8.93
8.13
20.73
21.45
9.78
-7.54
-20.52
-21.78
-10.82
5.65
17.79
18.29
6.74
-10.17
-22.63
-23.33
-11.69
5.75
19.16
21.07
10.70
-5.70
-18.46
-20.13
-9.77
6.32
18.53
19.47
8.45
-8.10
-20.40
-21.00
-9.42
7.62
20.05
20.49
8.61
-8.64
-21.06
-21.28
-9.07
8.51
21.27
21.83
9.97
-7.33
-20.06
-20.94
-9.70
6.86
18.87
19.22
7.74
-8.79
-20.60
-20.62
-8.67
8.35
20.61
21.04
9.50
-7.09
-18.87
-18.73
-6.68
10.28
22.18
22.01
9.83
-7.29
-19.32
-19.27
-7.22
9.70
21.50
21.19
8.86
-8.37
-20.53
-20.59
-8.59
8.39
20.29
20.03
7.60
-9.88
-22.29
-22.33
-9.82
8.12
21.30
22.33
10.92
-5.97
-18.19
-18.40
-6.40
10.89
23.34
23.71
11.84
-5.29
-17.63
-18.06
-6.52
9.91
21.15
20.07
6.74
-11.54
-24.51
-24.82
-12.30
5.78
18.97
19.72
7.72
-9.87
-22.66
-22.98
-10.41
7.92
21.58
22.83
11.20
-6.29
-19.22
-19.90
-7.87
9.90
23.09
24.06
12.36
-5.03
-17.89
-18.72
-7.13
9.95
22.23
22.18
9.45
-8.92
-22.63
-24.05
-12.62
4.64
17.43
18.15
6.34
-10.94
-23.37
-23.36
-10.57
7.79
21.27
22.20
10.23
-7.44
-20.36
-20.92
-8.80
8.87
21.83
22.59
10.88
-6.18
-18.47
-18.65
-6.52
10.86
23.29
23.35
10.81
-7.27
-20.65
-21.82
-10.42
6.49
18.55
18.25
5.37
-12.76
-25.56
-25.33
-11.90
7.19
21.11
21.95
9.39
-9.15
-22.89
-23.95
-11.86
6.25
19.98
21.61
10.65
-5.98
-18.24
-18.76
-7.11
9.91
22.32
22.79
10.92
-6.56
-19.76
-21.32
-10.70
5.47
17.38
17.77
6.26
-10.39
-22.28
-22.18
-9.87
7.62
20.17
20.48
8.38
-8.94
-21.27
-21.27
-8.82
8.95
21.90
22.66
11.01
-6.07
-18.62
-19.38
-8.01
8.76
21.04
21.56
9.90
-7.25
-20.01
-20.96
-9.49
7.67
20.43
21.20
9.41
-8.09
-21.08
-21.86
-9.97
7.50
20.19
20.51
8.19
-9.49
-22.07
-22.01
-9.16
9.20
22.67
23.62
11.73
-5.94
-19.17
-20.46
-9.24
7.75
20.49
21.48
10.11
-6.97
-19.84
-20.98
-9.70
7.29
19.96
20.75
9.14
-8.01
-20.55
-20.93
-8.87
8.48
20.76
20.53
7.64
-10.54
-23.54
-23.82
-11.24
6.98
20.46
21.64
10.20
-6.85
-19.40
-20.04
-8.34
8.86
21.47
22.02
10.05
-7.67
-20.99
-22.29
-10.86
6.54
19.72
20.94
9.53
-7.81
-20.96
-22.25
-11.13
5.59
17.82
18.12
6.16
-11.08
-23.46
-23.63
-11.34
6.43
19.59
20.75
9.57
-7.06
-19.26
-19.76
-8.18
8.78
21.24
21.91
10.42
-6.59
-19.25
-20.31
-9.29
7.02
18.66
18.33
5.81
-11.79
-24.20
-23.92
-10.78
7.83
21.34
22.11
9.95
-7.69
-20.24
-20.16
-7.37
10.72
23.70
24.16
12.12
-5.07
-17.18
-17.06
-4.75
12.50
24.50
24.11
11.37
-6.51
-19.39
-20.06
-8.40
8.43
20.23
19.69
6.74
-11.33
-24.12
-24.07
-11.07
7.53
21.18
22.27
10.55
-6.74
-19.16
-19.30
-7.12
10.11
22.11
21.67
8.98
-8.58
-20.69
-20.24
-7.43
10.36
22.82
22.77
10.22
-7.60
-20.53
-21.25
-9.52
7.68
20.27
20.87
9.07
-8.33
-21.29
-22.27
-10.69
6.71
19.90
21.41
10.64
-5.73
-17.79
-18.16
-6.59
10.04
21.78
21.51
9.21
-8.10
-20.39
-20.62
-8.82
7.93
19.74
19.57
7.40
-9.82
-22.28
-22.93
-11.49
5.37
17.91
18.97
8.13
-8.20
-20.40
-21.23
-10.09
6.55
18.94
19.74
8.29
-8.84
-21.76
-22.90
-11.62
5.44
18.28
19.39
8.28
-8.35
-20.50
-20.85
-9.11
7.81
19.98
20.19
8.31
-8.68
-20.85
-21.03
-8.99
8.41
21.19
22.07
10.67
-6.29
-18.91
-19.74
-8.21
8.97
21.79
22.67
10.96
-6.66
-20.11
-21.76
-10.97
5.53
17.66
17.95
5.96
-11.40
-23.94
-24.24
-11.93
6.00
19.37
20.63
9.34
-7.62
-20.15
-20.77
-8.87
8.77
21.97
23.04
11.31
-6.51
-20.14
-21.71
-10.37
7.09
20.26
21.21
9.27
-8.52
-21.57
-21.93
-9.14
9.47
23.14
24.02
11.85
-5.85
-18.34
-17.97
-4.78
13.63
26.62
26.69
13.92
-4.28
-17.51
-18.56
-7.41
8.83
20.18
19.69
7.50
-9.33
-21.00
-20.64
-8.40
8.63
20.50
20.22
7.86
-9.51
-21.81
-21.81
-9.35
8.43
21.31
21.83
9.65
-8.23
-21.57
-22.77
-11.43
5.56
18.02
18.40
6.29
-11.41
-24.50
-25.47
-13.84
3.61
16.80
18.22
7.36
-9.11
-21.30
-21.87
-10.25
6.92
19.72
20.73
9.41
-7.61
-20.35
-21.31
-9.82
7.38
20.17
20.92
9.09
-8.40
-21.20
-21.55
-8.97
9.38
22.98
24.03
12.13
-5.45
-18.06
-17.98
-5.03
13.35
26.46
26.61
13.64
-4.93
-18.44
-19.27
-7.27
10.17
22.53
22.27
9.23
-9.35
-23.06
-24.37
-12.86
4.55
17.70
19.07
8.10
-8.56
-21.00
-21.69
-10.02
7.35
20.37
21.40
9.77
-7.82
-21.16
-22.43
-10.90
6.67
19.94
21.10
9.39
-8.37
-21.86
-23.29
-11.90
5.61
19.09
20.79
9.95
-6.86
-19.70
-21.01
-9.97
6.94
19.73
20.74
9.13
-8.54
-22.13
-23.71
-12.20
5.78
19.78
21.58
10.02
-8.20
-22.44
-24.28
-12.53
5.99
20.59
22.86
11.76
-5.81
-19.15
-20.04
-7.70
10.89
25.04
26.67
15.01
-2.96
-16.76
-18.52
-7.57
9.28
21.82
22.41
10.54
-6.99
-20.04
-21.07
-9.47
8.04
21.34
22.76
11.52
-5.90
-19.44
-21.34
-10.54
6.57
20.02
21.93
11.16
-6.05
-19.70
-21.84
-11.38
5.34
18.19
19.27
7.58
-10.33
-24.24
-26.18
-15.11
2.51
16.54
19.05
8.93
-7.53
-20.45
-22.12
-11.43
5.42
18.54
20.16
9.16
-8.19
-21.89
-23.87
-12.74
5.25
19.87
22.77
12.45
-4.89
-18.96
-21.34
-10.49
7.26
21.59
24.22
13.80
-3.17
-16.37
-17.69
-6.14
11.65
25.37
27.08
15.90
-1.53
-15.06
-17.06
-6.84
9.04
20.64
20.56
8.29
-9.53
-22.95
-24.48
-13.33
4.00
17.51
19.44
8.74
-8.38
-21.99
-24.18
-13.64
3.42
16.93
18.79
7.62
-10.33
-24.79
-27.37
-16.56
1.37
16.08
19.20
9.24
-7.51
-20.79
-22.44
-11.24
6.42
20.35
22.55
12.05
-4.58
-17.14
-17.84
-5.98
11.67
24.73
25.38
13.00
-5.45
-19.50
-21.18
-9.67
8.24
22.12
23.98
12.86
-4.67
-18.38
-20.32
-9.43
7.83
21.39
23.34
12.57
-4.63
-18.33
-20.69
-10.71
5.31
17.51
18.20
6.56
-10.93
-24.24
-25.71
-14.51
2.89
16.46
18.51
8.17
-8.16
-20.57
-21.41
-9.73
8.11
22.10
24.36
13.72
-3.60
-17.65
-20.43
-10.51
6.03
19.27
21.24
10.63
-6.38
-19.73
-21.32
-9.88
8.24
22.81
25.65
15.40
-1.63
-15.27
-17.48
-7.15
9.27
21.67
22.18
9.86
-8.64
-23.04
-25.39
-14.68
2.61
16.29
18.42
7.87
-9.04
-22.27
-23.97
-12.93
4.58
18.43
20.54
9.64
-7.99
-22.12
-24.44
-13.45
4.51
19.02
21.65
10.96
-6.63
-20.57
-22.34
-10.57
8.13
23.13
25.96
15.33
-2.11
-15.83
-17.55
-6.20
11.58
25.36
27.07
15.61
-2.48
-17.01
-20.07
-10.58
5.18
17.32
18.13
6.64
-10.84
-24.39
