1538482914.00
64.000000
-0.00
-0.00
-0.00
-0.00
-0.00
-0.00
-0.00
-0.00
-0.00
-0.00
0.00
0.01
0.01
-0.00
-0.03
-0.05
-0.05
0.00
0.13
0.36
0.66
1.01
1.37
1.72
2.06
2.40
2.79
3.24
3.80
4.42
5.06
5.66
6.20
6.68
7.15
7.68
8.31
9.14
10.09
11.04
11.88
12.56
13.14
13.76
14.65
15.96
17.91
20.32
22.90
25.38
27.58
29.57
31.68
34.32
37.81
42.54
48.15
54.10
59.83
64.97
69.58
74.14
79.34
85.71
93.76
103.00
112.62
121.73
129.77
136.75
143.30
150.75
157.77
166.64
177.95
191.79
206.97
220.57
228.25
225.36
208.53
176.87
132.76
80.05
23.07
-34.94
-92.44
-149.16
-205.23
-260.37
-313.74
-363.87
-409.83
-450.91
-486.50
-515.74
-537.23
-549.22
-549.96
-538.35
-514.18
-478.63
-433.81
-382.36
-326.89
-269.67
-212.42
-156.40
-102.64
-52.01
-5.49
36.04
71.93
101.90
126.09
145.01
159.37
169.87
177.14
181.57
183.47
183.08
180.67
176.58
171.18
164.86
157.91
150.58
143.03
135.40
127.79
120.28
112.93
105.76
98.78
91.97
85.35
78.95
72.87
67.20
62.01
57.28
52.94
48.85
44.90
41.03
37.33
33.98
31.18
29.05
27.53
26.38
25.24
23.83
22.07
20.20
18.67
17.95
18.22
19.17
19.98
19.62
17.19
12.37
5.56
-2.22
-9.79
-16.37
-21.88
-27.01
-32.77
-39.94
-48.45
-57.22
-64.48
-68.62
-68.82
-65.58
-60.55
-55.88
-53.55
-55.03
-61.21
-72.11
-86.42
-100.96
-110.98
-111.51
-99.36
-74.96
-42.59
-8.85
20.03
40.52
52.55
58.39
60.69
61.02
59.64
56.63
52.99
51.05
53.42
61.46
74.27
88.83
101.39
109.03
111.14
109.78
109.08
113.65
126.78
148.55
174.81
197.55
207.01
194.63
156.30
94.61
19.03
-56.31
-116.59
-150.52
-153.68
-129.40
-87.24
-39.51
2.48
31.34
44.49
43.05
30.88
12.69
-6.39
-22.07
-31.42
-32.99
-26.56
-13.24
4.88
25.04
43.69
57.49
64.38
64.38
59.65
53.62
49.27
47.92
49.30
50.82
49.12
41.40
26.69
6.44
-16.02
-37.47
-55.51
-69.53
-81.86
-96.29
-116.92
-147.18
-189.59
-242.15
-302.85
-368.23
-426.88
-466.59
-476.59
-451.99
-396.63
-322.03
-242.80
-171.77
-115.81
-75.42
-47.96
-30.09
-19.73
-16.07
-18.33
-24.59
-32.17
-38.18
-40.80
-40.28
-38.59
-38.41
-41.65
-48.50
-57.39
-66.06
-72.34
-75.07
-74.64
-72.63
-70.89
-70.64
-71.83
-73.05
-72.20
-66.97
-57.47
-44.21
-28.21
-10.58
7.87
26.90
46.62
67.13
88.39
110.30
133.07
156.86
181.62
206.40
229.05
246.34
254.49
250.14
231.39
198.95
156.19
109.16
65.39
32.15
14.54
13.94
28.01
52.13
81.49
112.26
141.91
168.30
188.92
201.01
202.94
195.61
182.46
168.02
155.50
145.60
137.12
129.38
124.29
126.39
140.33
167.22
202.23
235.54
256.46
258.46
242.26
214.92
185.36
159.44
136.73
111.69
78.05
33.48
-18.18
-68.58
-109.20
-136.10
-151.70
-162.93
-176.98
-197.23
-221.82
-245.35
-262.54
-271.38
-274.08
-275.16
-278.17
-283.03
-285.51
-279.18
-258.78
-222.91
-174.71
-120.50
-66.80
-17.76
26.04
67.13
109.50
157.02
212.06
274.69
342.21
409.15
468.02
510.94
531.77
528.05
501.56
457.50
402.68
343.66
285.79
233.23
189.44
157.20
137.88
130.34
130.51
132.08
128.37
114.40
88.19
50.88
6.03
-41.55
-86.84
-125.24
-153.27
-169.16
-173.63
-170.07
-163.98
-161.63
-168.30
-187.02
-218.06
-259.12
-306.13
-354.11
-398.15
-434.36
-460.53
-476.34
-482.81
-481.36
-472.86
-457.35
-434.46
-404.18
-367.35
-325.60
-280.59
-233.33
-184.04
-132.58
-79.10
-24.29
31.11
87.16
144.90
205.55
268.70
330.87
385.77
426.43
448.41
451.68
440.22
419.54
393.64
363.63
328.80
289.10
246.90
206.78
173.26
148.54
131.42
118.45
105.91
91.32
73.44
51.23
23.19
-12.19
-55.21
-103.88
-153.83
-199.57
-236.26
-261.20
-274.25
-277.35
-273.48
-265.60
-256.09
-246.53
-237.99
-231.41
-227.68
-227.11
-228.47
-228.80
-223.95
-210.28
-186.39
-153.91
-117.18
-81.58
-51.70
-30.25
-17.55
-11.88
-10.15
-8.64
-4.13
4.71
16.44
27.08
32.02
28.75
18.80
7.37
0.94
4.13
17.83
39.54
64.86
89.34
109.06
120.43
120.05
105.40
76.27
35.79
-9.86
-53.74
-90.64
-118.37
-137.53
-149.17
-152.82
-146.11
-126.06
-91.57
-45.71
4.04
47.59
75.84
84.43
75.96
59.16
45.45
44.26
58.89
85.16
113.34
132.09
132.53
110.43
66.47
5.11
-66.59
-139.76
-204.38
-250.71
-271.47
-263.97
-231.21
-180.94
-122.58
-64.38
-11.01
36.66
80.49
123.45
168.35
216.91
269.05
322.60
373.43
416.63
448.22
466.60
472.55
468.30
455.72
435.43
407.08
370.60
327.69
281.91
237.53
197.50
162.06
128.59
93.14
52.29
4.95
-46.89
-98.61
-144.44
-179.37
-200.57
-208.16
-204.68
-194.53
-182.77
-173.48
-168.51
-166.92
-165.29
-159.08
-144.81
-121.49
-92.15
-63.25
-41.79
-31.86
-32.34
-37.01
-37.02
-24.31
6.35
54.86
115.96
180.83
239.53
283.44
307.22
309.72
288.18
244.89
185.65
118.20
50.15
-12.45
-65.65
-107.37
-137.26
-156.75
-167.89
-173.63
-176.71
-178.61
-179.32
-177.83
-172.96
-164.52
-153.62
-141.63
-130.24
-120.68
-113.37
-107.76
-102.73
-97.13
-90.39
-82.75
-74.65
-66.86
-60.03
-54.49
-50.09
-46.34
-42.68
-38.75
-34.56
-30.20
-25.96
-22.13
-18.89
-16.26
-14.08
-12.14
-10.26
-8.38
-6.47
-4.57
-2.76
-1.12
0.33
1.58
2.67
3.62
4.46
5.20
5.86
6.46
7.02
7.55
8.08
8.63
9.19
9.79
10.38
11.00
11.65
12.36
13.14
13.98
14.88
15.80
16.71
17.57
18.35
19.09
19.83
20.60
21.38
22.01
22.30
21.98
20.85
18.82
15.88
12.23
8.10
3.68
-0.92
-5.64
-10.46
-15.27
-19.82
-23.74
-26.59
-28.07
-28.13
-27.09
-25.56
-24.24
-23.67
-23.95
-24.63
-24.90
-23.98
-21.55
-17.99
-14.37
-11.96
-11.63
-13.34
-15.96
-17.75
-17.15
-13.69
-8.35
-3.40
-1.40
-3.95
-10.87
-20.03
-28.27
-32.96
-33.20
-30.38
-27.63
-28.33
-34.44
-45.95
-60.83
-76.07
-88.45
-94.82
-92.20
-78.03
-51.26
-14.13
26.80
61.81
81.53
81.25
63.49
36.39
9.00
-13.76
-33.10
-54.01
-80.55
-110.62
-137.42
-152.19
-149.53
-131.23
-105.88
-84.05
-72.23
-69.19
-66.67
-53.89
-22.48
29.89
99.07
176.37
251.94
317.65
368.61
403.65
424.46
434.32
436.48
433.04
424.47
410.02
388.50
359.20
322.82
281.85
240.45
203.39
174.43
154.92
143.46
136.83
131.81
126.64
121.25
116.29
111.74
106.27
98.05
86.18
71.81
57.78
46.82
39.44
32.75
21.18
-1.13
-37.25
-85.15
-137.64
-184.37
-215.46
-224.93
-212.75
-184.69
-149.88
-117.32
-92.65
-76.70
-66.01
-54.88
-37.99
-12.29
22.09
62.09
102.65
137.75
161.61
169.82
160.22
133.47
92.80
43.14
-10.33
-63.54
-114.37
-162.57
-209.26
-256.13
-304.96
-357.38
-414.42
-475.65
-538.18
-596.71
-644.94
-678.29
-696.26
-702.96
-704.83
-706.95
-710.03
-709.98
-700.61
-677.52
-640.99
-595.97
-549.43
-506.96
-470.62
-439.40
-411.11
-384.52
-360.06
-339.08
-322.56
-310.22
-300.53
-291.43
-281.43
-270.14
-258.30
-247.13
-237.51
-229.42
-221.76
-212.78
-200.73
-184.51
-163.94
-139.61
-112.37
-82.84
-51.11
-16.86
20.24
60.14
102.05
144.64
186.35
225.92
262.74
296.85
328.64
358.42
386.08
411.17
433.07
451.44
466.56
479.35
491.26
503.95
519.01
537.46
559.09
582.05
602.76
616.68
619.65
609.40
586.38
553.65
515.69
476.86
440.18
407.01
377.22
350.09
324.79
300.67
277.26
254.12
230.85
207.33
183.81
160.80
139.05
119.28
101.97
87.28
75.00
64.66
55.80
48.13
41.77
37.18
34.88
35.03
37.14
40.03
42.06
41.89
39.01
34.15
29.03
25.71
25.57
28.73
33.85
38.56
40.52
38.35
32.34
24.42
17.62
14.97
18.28
27.26
38.95
48.17
48.76
35.65
7.16
-33.65
-79.65
-121.92
-153.35
-171.43
-178.76
-181.15
-184.16
-190.18
-197.63
-202.72
-202.30
-196.11
-186.97
-178.93
-174.87
-174.98
-176.84
-177.17
-173.59
-165.66
-154.63
-142.49
-130.55
-118.97
-106.79
-92.52
-75.00
-54.01
-30.41
-6.05
16.89
36.70
52.77
65.99
78.42
92.31
109.07
128.40
148.40
166.39
180.22
189.21
194.43
198.09
202.46
209.02
218.10
229.06
240.48
250.07
254.51
249.82
232.53
201.42
158.79
110.40
63.65
24.86
-2.85
-20.15
-30.21
-36.49
-41.07
-44.25
-45.38
-44.14
-41.12
-37.48
-34.08
-30.83
-26.69
-20.31
-10.75
2.03
17.17
33.24
48.71
62.38
73.85
83.68
93.31
104.29
117.16
130.47
140.64
142.89
133.12
109.66
74.16
31.00
-14.47
-57.83
-96.72
-130.80
-160.72
-187.31
-211.45
-234.53
-258.89
-287.06
-319.84
-354.33
-383.42
-397.67
-389.29
-356.11
-303.09
-240.53
-179.85
-128.96
-90.18
-61.01
-36.80
-13.51
10.96
37.19
64.90
93.08
119.47
140.03
149.82
145.07
125.63
96.17
65.41
43.20
36.99
49.03
75.68
109.29
141.61
167.33
186.10
201.95
220.77
246.86
280.59
317.91
352.06
376.40
386.39
380.97
362.23
334.30
302.36
271.77
247.39
233.13
231.09
240.84
259.32
281.21
300.28
310.97
309.97
297.06
274.87
247.82
220.32
195.43
173.95
154.71
135.49
114.06
89.13
60.60
29.56
-2.30
-33.13
-61.60
-87.21
-110.22
-131.37
-151.39
-170.62
-188.82
-205.51
-220.30
-233.47
-246.09
-259.82
-276.31
-296.57
-320.51
-347.03
-374.47
-401.32
-426.77
-450.89
-474.51
-499.10
-526.56
-558.89
-597.29
-641.00
-686.33
-726.87
-755.20
-765.65
-756.88
-732.62
-700.36
-668.15
-641.68
-622.65
-609.20
-597.74
-584.84
-568.18
-546.30
-518.00
-481.89
-436.94
-383.29
-322.95
-259.64
-197.96
-141.97
-93.91
-53.80
-19.71
11.11
40.87
70.37
98.72
124.08
144.80
160.43
172.13
182.29
193.46
207.22
223.45
240.42
255.77
267.67
275.80
281.45
287.01
295.03
307.49
325.44
348.65
375.18
401.12
420.88
428.52
420.16
396.23
362.15
326.91
299.55
285.44
284.23
290.42
296.51
296.61
288.94
275.77
261.49
250.01
242.83
238.86
235.56
230.58
222.89
213.21
203.05
193.76
185.70
178.32
171.08
164.50
160.41
161.20
167.98
179.08
190.03
195.13
190.13
174.38
150.72
123.27
94.37
62.70
23.87
-26.44
-88.84
-158.24
-224.56
-276.28
-304.51
-305.65
-281.44
-237.16
-178.96
-112.44
-42.61
25.48
86.36
135.58
171.29
195.50
213.17
229.39
245.78
258.83
261.22
245.70
209.71
157.34
98.01
42.23
-2.62
-34.59
-56.20
-71.49
-83.27
-91.76
-95.46
-92.96
-84.55
-72.45
-59.89
-49.88
-44.19
-43.29
-46.81
-54.01
-64.17
-76.34
-89.27
-101.01
-109.16
-111.36
-106.18
-93.95
-77.19
-60.35
-48.54
-45.71
-53.08
-68.25
-85.99
-100.54
-107.82
-106.99
-100.22
-91.37
-83.86
-79.19
-76.48
-73.33
-67.09
-55.60
-37.59
-13.18
15.25
42.36
59.72
58.13
30.90
-22.76
-95.61
-173.44
-240.09
-283.41
-299.32
-292.40
-270.83
-242.08
-210.04
-174.76
-133.98
-87.55
-39.45
2.75
30.15
38.93
31.29
13.86
-4.24
-12.68
-3.76
25.79
74.02
132.98
194.89
251.60
294.73
317.46
318.15
299.63
268.83
234.90
205.01
187.87
188.96
207.90
223.65
216.67
177.35
112.56
54.18
9.83
-20.27
-37.73
-48.89
-55.56
-55.68
-46.91
-28.48
-2.45
25.25
52.48
79.23
105.71
131.50
155.53
174.68
184.41
179.93
156.32
114.06
56.80
-10.73
-83.01
-153.33
-214.86
-261.89
-291.63
-306.24
-309.45
-305.90
-299.48
-291.44
-280.15
-262.95
-238.35
-207.62
-175.19
-145.50
-121.83
-105.36
-95.07
-88.44
-82.65
-75.34
-65.24
-52.43
-37.64
-22.23
-7.87
3.84
11.78
15.70
16.41
15.66
15.63
18.08
23.56
31.01
38.04
41.96
41.07
35.48
27.18
19.08
13.64
11.72
12.34
13.27
12.15
7.52
-0.74
-11.57
-23.05
-33.00
-39.48
-41.43
-39.43
-36.13
-35.71
-42.26
-57.46
-78.96
-100.47
-114.07
-113.60
-97.49
-69.63
-37.52
-9.04
10.61
20.33
22.64
21.69
21.38
24.12
30.64
40.60
53.03
66.69
80.23
92.13
100.83
105.04
104.11
98.43
89.51
79.68
71.40
66.51
65.62
68.01
72.03
75.80
77.90
77.81
75.95
73.37
71.27
70.45
71.04
72.41
73.43
72.95
70.35
65.91
60.79
56.70
55.09
56.53
60.29
64.63
67.42
67.01
62.81
55.41
46.27
37.15
29.66
25.04
23.95
26.35
31.21
36.34
38.67
35.18
24.10
6.14
-15.35
-35.19
-48.10
-50.63
-42.33
-25.87
-5.99
12.11
24.27
28.37
24.58
14.93
2.56
-9.20
-17.62
-21.02
-18.99
-12.28
-2.62
7.61
15.67
18.89
15.14
3.51
-15.17
-38.27
-61.88
-81.88
-95.31
-101.19
-100.68
-96.33
-90.85
-86.10
-82.64
-80.06
-77.61
-75.00
-72.56
-71.05
-71.22
-73.56
-78.25
-85.40
-95.19
-107.69
-122.57
-138.71
-154.12
-166.25
-172.61
-171.36
-161.62
-143.47
-117.63
-85.14
-47.27
-5.44
38.46
82.18
123.22
159.33
189.08
212.15
229.33
242.11
252.12
260.64
268.46
275.99
283.60
291.63
300.18
308.38
314.14
314.06
304.17
281.14
243.39
191.82
129.85
63.04
-1.92
-58.23
-100.22
-124.50
-130.96
-123.36
-108.75
-95.62
-91.25
-99.15
-117.99
-142.50
-165.94
-182.79
-190.54
-189.77
-182.76
-171.88
-158.61
-143.64
-127.79
-112.64
-100.45
-93.26
-91.80
-94.90
-99.91
-103.65
-103.48
-97.99
-87.22
-72.19
-54.36
-35.17
-15.72
3.18
20.96
37.09
50.97
61.88
69.05
71.89
70.19
64.39
55.42
44.55
33.08
22.01
11.98
3.39
-3.49
-8.40
-11.17
-11.86
-10.83
-8.69
-6.20
-4.00
-2.55
-2.01
-2.29
-3.12
-4.15
-5.03
-5.49
-5.44
-5.03
-4.56
-4.39
-4.75
-5.59
-6.57
-7.20
-6.93
-5.49
-2.95
0.27
3.47
5.88
6.93
6.44
4.80
2.93
2.02
3.06
6.51
12.04
18.70
25.35
31.14
35.72
39.24
41.98
43.90
44.54
42.95
38.11
29.23
16.01
-1.25
-21.66
-43.83
-65.75
-84.91
-98.67
-104.62
-101.38
-88.99
-69.07
-44.54
-18.91
4.40
22.69
34.16
37.89
33.67
22.04
4.45
-16.45
-36.94
-52.74
-60.07
-56.82
-43.35
-22.40
1.79
24.79
43.25
55.44
60.99
60.38
54.31
43.59
29.35
13.33
-2.05
-14.16
-20.86
-21.27
-16.01
-7.04
3.10
12.05
18.23
21.09
20.91
18.45
14.52
9.87
5.06
0.58
-3.10
-5.63
-6.80
-6.62
-5.37
-3.47
-1.35
0.62
2.19
3.21
3.60
3.30
2.29
0.60
-1.62
-4.13
-6.50
-8.34
-9.25
-9.01
-7.62
-5.31
-2.44
0.61
3.49
5.98
7.94
9.25
9.78
9.45
8.25
6.31
3.88
1.30
-1.12
-3.14
-4.70
-5.79
-6.51
-6.88
-6.89
-6.48
-5.70
-4.68
-3.70
-2.99
-2.63
-2.49
-2.21
-1.41
0.09
2.18
4.44
6.33
7.46
7.64
6.96
5.66
3.98
2.10
0.08
-2.09
-4.46
-7.05
-9.78
-12.49
-14.93
-16.80
-17.92
-18.32
-18.36
-18.57
-19.51
-21.48
-24.34
-27.46
-29.97
-31.05
-30.26
-27.75
-24.15
-20.38
-17.38
-15.85
-16.17
-18.41
-22.13
-26.33
-29.45
-29.64
-25.31
-15.78
-1.61
15.45
32.97
48.63
60.69
68.30
71.36
70.27
65.78
58.86
50.60
42.01
33.84
26.35
19.41
12.71
6.04
-0.56
-6.68
-11.75
-15.22
-16.67
-16.01
-13.57
-10.01
-6.22
-3.04
-0.97
-0.07
-0.05
-0.49
-1.10
-1.86
-2.85
-4.14
-5.57
-6.77
-7.32
-6.91
-5.47
-3.14
-0.22
2.92
5.88
8.29
9.84
10.40
10.09
9.28
8.42
7.95
8.05
8.57
9.11
9.16
8.32
6.40
3.50
-0.17
-4.31
-8.64
-12.76
-16.11
-17.98
-17.65
-14.71
-9.37
-2.57
4.28
9.63
12.31
11.90
8.84
4.20
-0.52
-3.84
-4.63
-2.43
2.44
8.95
15.74
21.42
25.02
26.14
24.87
21.62
16.88
11.17
5.03
-0.93
-6.03
-9.62
-11.16
-10.31
-6.93
-0.94
7.56
18.32
30.79
43.93
56.41
66.90
74.43
78.75
80.30
79.86
77.99
74.53
68.46
58.16
42.21
20.13
-6.99
-36.40
-64.23
-86.39
-99.68
-102.50
-95.22
-79.85
-59.48
-37.51
-16.98
-0.24
11.28
17.00
17.08
12.23
3.51
-7.77
-20.31
-32.92
-44.60
-54.62
-62.40
-67.56
-69.92
-69.60
-67.03
-63.03
-58.72
-55.38
-54.27
-56.35
-62.03
-71.06
-82.49
-94.79
-106.14
-114.70
-119.03
-118.19
-111.87
-100.43
-84.84
-66.50
-47.14
-28.47
-11.97
1.45
11.46
18.33
22.65
25.18
26.61
27.48
28.24
29.31
31.00
33.43
36.37
39.12
40.65
39.92
36.28
29.92
22.04
14.68
10.05
9.75
14.10
21.96
31.06
38.79
43.11
43.42
40.51
36.08
31.83
28.75
26.98
26.04
25.28
24.27
23.48
23.77
26.03
30.59
37.06
44.52
51.74
57.43
60.64
62.07
63.30
65.92
70.15
74.45
76.34
73.89
66.82
56.97
49.16
48.42
57.52
75.12
96.28
114.98
126.75
129.79
124.82
116.12
108.89
107.84
116.16
135.76
167.93
213.04
268.77
315.39
330.87
299.46
222.96
120.41
16.68
-69.17
-128.91
-164.31
-182.90
-190.84
-191.17
-184.03
-169.56
-149.96
-129.39
-112.14
-101.08
-96.60
-95.35
-92.54
-84.12
-69.15
-50.02
-31.24
-16.85
-9.37
-8.76
-12.19
-15.94
-16.93
-14.05
-8.20
-2.20
1.83
2.85
1.75
0.70
1.69
5.49
11.30
17.37
20.32
18.24
10.79
-0.07
-11.56
-21.65
-29.91
-37.58
-46.89
-62.70
-83.75
-109.04
-136.42
-163.94
-191.19
-219.43
-250.78
-273.91
-282.06
-275.15
-260.26
-244.43
-229.45
-211.21
-183.10
-140.29
-83.13
-19.92
38.08
81.16
105.68
114.46
114.15
111.49
110.41
111.28
110.64
105.56
95.52
83.18
72.31
65.55
63.49
65.05
68.49
71.74
73.72
74.38
73.91
71.75
67.15
60.15
52.82
49.13
52.82
65.65
86.16
109.97
131.44
146.42
153.38
153.34
148.20
139.14
126.00
108.19
85.75
60.12
34.56
12.80
-2.12
-8.61
-6.66
2.52
17.27
37.91
63.27
91.42
118.92
141.69
155.90
158.76
149.00
127.41
96.07
58.09
17.36
-24.03
-64.58
-102.61
-136.09
-163.29
-182.99
-196.27
-205.43
-212.94
-223.29
-239.31
-260.48
-283.30
-303.30
-316.53
-322.98
-324.59
-324.15
-328.11
-342.30
-369.61
-409.00
-456.14
-503.38
-543.96
-571.29
-561.44
-504.90
-412.08
-308.70
-219.89
-165.03
-135.98
-121.76
-114.01
-108.13
-104.34
-103.90
-105.29
-103.82
-94.26
-72.60
-40.36
-1.33
39.88
76.96
105.73
125.93
140.83
154.81
171.77
191.70
212.77
232.50
247.20
254.55
255.01
251.70
248.75
250.07
256.81
268.36
283.00
297.78
310.28
319.71
327.13
334.89
346.08
363.05
387.19
418.12
452.67
485.06
508.05
514.73
500.63
465.41
413.00
350.78
287.25
229.48
181.26
142.68
111.15
82.97
54.90
25.23
-5.77
-36.01
-62.35
-81.63
-91.85
-92.84
-86.15
-74.34
-60.15
-45.77
-32.79
-22.40
-15.59
-12.95
-14.31
-18.48
-23.27
-26.40
-26.14
-22.03
-14.79
-6.02
2.58
9.92
16.05
22.11
29.63
39.56
51.53
63.58
72.95
77.35
76.11
70.43
62.52
54.02
44.80
32.68
14.38
-12.64
-48.77
-91.91
-138.27
-183.62
-224.87
-260.69
-291.41
-318.49
-343.68
-368.50
-393.94
-419.96
-444.74
-464.47
-474.12
-469.30
-448.35
-413.53
-370.34
-325.11
-282.21
-242.53
-204.09
-163.99
-120.67
-75.10
-30.23
10.67
45.71
75.21
101.18
125.99
151.14
176.43
199.94
218.94
231.12
236.07
235.72
233.89
234.81
241.37
254.04
270.73
287.33
298.62
299.37
285.81
257.09
216.08
169.14
124.52
89.60
68.52
60.96
62.88
68.65
73.64
75.63
74.79
72.31
68.83
63.93
56.73
47.02
35.88
25.38
17.34
12.17
8.52
3.89
-3.72
-14.36
-25.73
-34.43
-37.63
-34.58
-27.14
-18.91
-13.68
-13.89
-20.13
-31.30
-45.29
-59.61
-71.96
-80.59
-84.48
-83.52
-78.49
-70.77
-61.95
-53.34
-45.80
-39.73
-35.30
-32.66
-31.99
-33.23
-36.10
-40.00
-44.27
-48.39
-52.05
-55.03
-57.06
-57.82
-57.08
-54.96
-51.95
-48.72
-45.74
-43.06
-40.29
-36.99
-32.92
-28.20
-23.32
-18.82
-15.13
-12.46
-10.75
-9.71
-8.77
-7.21
-4.28
0.46
6.94
14.57
22.42
29.49
34.95
38.00
37.86
33.60
24.13
8.52
-13.50
-40.99
-71.29
-99.99
-121.62
-130.86
-124.01
-100.28
-62.22
-15.23
33.87
78.59
114.30
139.11
153.50
159.61
160.03
156.79
150.94
142.68
131.75
117.92
101.74
85.12
71.59
65.45
69.94
84.91
105.60
123.33
128.55
115.07
83.09
39.50
-5.19
-41.33
-64.02
-73.89
-75.15
-72.12
-66.73
-58.38
-45.77
-29.12
-11.21
3.48
10.77
8.92
-0.52
-13.38
-24.62
-30.00
-27.02
-15.07
4.85
30.19
56.92
79.90
93.89
95.15
82.96
60.08
31.88
4.38
-17.91
-33.05
-41.66
-45.61
-46.73
-46.00
-43.80
-40.71
-38.00
-37.64
-41.54
-50.57
-63.82
-78.90
-92.73
-102.62
-107.17
-106.47
-101.58
-93.92
-84.60
-74.29
-63.27
-51.71
-39.67
-27.24
-14.43
-1.21
12.46
26.55
40.98
55.58
70.10
84.23
97.52
109.36
119.12
126.23
130.45
132.03
131.66
130.40
129.18
128.42
127.74
126.13
122.36
115.71
106.38
95.44
84.23
73.53
63.21
52.34
39.99
25.75
10.07
-6.12
-21.89
-36.62
-49.77
-60.49
-67.48
-69.45
-66.04
-58.55
-49.94
-43.94
-43.65
-50.31
-62.95
-78.88
-94.79
-107.94
-116.78
-121.19
-122.15
-121.22
-120.02
-119.87
-121.60
-125.42
-131.01
-137.40
-143.15
-146.59
-146.22
-141.30
-132.43
-121.66
-112.04
-106.77
-108.00
-116.02
-129.05
-143.85
-156.63
-164.08
-163.95
-155.37
-138.88
-116.15
-89.73
-62.53
-37.32
-16.04
0.41
12.27
20.59
26.73
31.97
37.18
42.72
48.40
53.57
57.26
58.54
57.02
53.08
47.96
43.31
40.62
40.75
43.75
48.90
55.10
61.23
66.35
69.88
71.60
71.73
70.81
69.70
69.35
70.58
73.91
79.32
86.31
94.04
101.74
108.90
115.51
121.89
128.56
135.94
144.16
153.05
162.21
171.22
179.84
188.16
196.71
206.33
217.89
231.59
246.57
260.75
271.29
275.77
273.17
264.36
251.72
237.98
224.98
213.12
201.66
189.47
175.96
161.29
145.91
129.71
111.72
90.23
63.61
31.10
-6.93
-49.26
-94.45
-141.11
-187.69
-231.87
-270.52
-300.28
-319.10
-327.47
-328.55
-326.87
-326.04
-326.78
-326.59
-321.24
-307.29
-284.07
-254.08
-221.60
-190.53
-162.97
-138.98
-117.80
-99.11
-83.68
-72.91
-67.68
-67.56
-70.65
-74.48
-76.97
-77.06
-74.57
-69.44
-61.30
-49.41
-33.28
-13.48
8.09
28.48
44.47
53.37
53.51
44.26
25.93
-0.23
-31.88
-65.74
-97.93
-124.78
-143.61
-152.96
-152.58
-142.99
-125.19
-100.63
-71.39
-40.32
-10.71
14.32
32.57
43.14
46.28
42.98
34.42
21.83
6.61
-9.36
-23.70
-33.87
-37.84
-34.74
-25.09
-10.70
5.91
22.17
35.96
45.80
50.84
50.79
45.96
37.31
26.33
14.98
5.24
-1.35
-4.06
-3.25
-0.25
2.95
4.33
2.42
-3.21
-11.79
-21.74
-31.07
-38.04
-41.68
-41.97
-39.78
-36.59
-33.97
-33.12
-34.40
-36.98
-38.99
-37.97
-31.65
-18.73
0.55
24.52
50.46
75.30
96.16
110.61
116.72
113.20
99.55
76.42
45.68
10.10
-27.24
-63.42
-95.92
-122.52
-141.12
-150.00
-148.35
-136.97
-118.26
-95.71
-72.68
-51.38
-32.56
-15.98
-1.41
10.75
19.43
23.53
22.73
17.88
10.82
3.69
-1.69
-4.35
-4.15
-1.62
2.33
6.70
10.60
13.35
14.57
14.23
12.60
10.22
7.88
6.43
6.70
9.12
13.58
19.19
24.55
28.12
28.77
26.22
21.07
14.51
7.91
2.37
-1.47
-3.33
-3.17
-1.15
2.47
7.18
12.20
16.63
19.66
20.80
20.04
17.84
14.96
12.26
10.44
9.79
10.06
10.43
9.71
6.68
0.46
-9.23
-21.78
-35.89
-49.65
-60.87
-67.48
-67.92
-61.52
-48.89
-31.88
-13.27
3.79
16.58
23.35
23.47
17.40
6.38
-7.96
-23.68
-38.78
-51.25
-59.43
-62.14
-59.03
-50.64
-38.22
-23.49
-8.15
6.43
19.39
30.31
39.05
45.67
50.27
53.15
54.93
56.49
58.77
62.50
67.86
74.40
81.15
87.00
91.10
92.99
92.68
90.48
86.80
82.03
76.48
70.38
63.90
57.18
50.30
43.24
36.05
28.79
21.62
14.75
8.36
2.60
-2.44
-6.64
-9.85
-11.77
-12.12
-10.76
-7.84
-3.87
0.26
3.49
4.84
3.74
0.23
-5.07
-11.08
-16.62
-20.70
-22.71
-22.40
-19.81
-15.21
-9.11
-2.32
4.15
9.20
11.96
12.15
10.20
7.09
4.01
1.92
1.18
1.55
2.42
3.10
3.16
2.55
1.47
0.22
-1.01
-2.23
-3.54
-5.03
-6.62
-8.10
-9.30
-10.10
-10.60
-11.01
-11.50
-12.09
-12.69
-13.09
-13.10
-12.59
-11.57
-10.07
-8.16
-5.94
-3.41
-0.65
2.29
5.33
8.35
11.24
13.93
16.37
18.54
20.47
22.07
23.15
23.43
22.64
20.70
17.73
14.06
10.07
6.01
1.97
-2.04
-5.95
-9.54
-12.47
-14.35
-14.96
-14.34
-12.85
-11.11
-9.75
-9.25
-9.88
-11.57
-14.02
-16.68
-18.90
-19.92
-19.03
-15.71
-9.74
-1.45
8.28
18.11
26.47
31.99
33.82
31.86
26.74
19.63
11.94
5.04
-0.03
-2.70
-2.97
-1.24
1.69
4.88
7.46
8.80
8.62
7.03
4.52
1.78
-0.33
-1.05
0.05
2.96
7.14
11.74
15.91
19.04
21.04
22.15
22.80
23.25
23.62
23.89
24.01
24.04
24.00
23.80
23.19
21.81
19.48
16.30
12.73
9.41
6.97
5.79
5.92
7.11
8.91
10.86
12.55
13.71
14.23
14.19
13.78
13.16
12.45
11.61
10.55
9.17
7.49
5.62
3.71
1.85
0.00
-1.93
-4.08
-6.45
-9.00
-11.60
-14.16
-16.68
-19.12
-21.49
-23.64
-25.35
-26.31
-26.33
-25.28
-23.21
-20.29
-16.79
-13.08
-9.54
-6.50
-4.10
-2.35
-1.06
-0.01
1.01
2.10
3.30
4.59
5.90
7.10
7.99
8.39
8.21
7.46
6.28
4.84
3.27
1.62
-0.08
-1.71
-3.10
-3.95
-4.04
-3.24
-1.61
0.65
3.25
5.89
8.35
10.39
11.93
12.96
13.55
13.82
13.83
13.55
12.92
11.95
10.76
9.60
8.68
8.06
7.59
7.03
6.19
5.06
3.83
2.70
1.82
1.07
0.17
-1.14
-2.96
-5.14
-7.23
-8.80
-9.51
-9.23
-8.05
-6.23
-3.95
-1.42
1.26
3.94
6.36
8.24
9.33
9.57
9.12
8.29
7.41
6.66
6.05
5.48
4.88
4.25
3.72
3.45
3.53
3.91
4.47
4.99
5.29
5.26
4.91
4.31
3.61
2.93
2.37
1.99
1.87
2.08
2.76
4.09
6.16
8.95
12.22
15.69
19.03
21.99
24.40
26.03
26.72
26.36
25.05
23.08
20.99
19.21
17.98
17.20
16.50
15.45
13.75
11.37
8.49
5.45
2.54
-0.10
-2.41
-4.53
-6.60
-8.75
-10.99
-13.19
-15.07
-16.33
-16.80
-16.51
-15.76
-14.88
-14.11
-13.44
-12.61
-11.27
-9.16
-6.31
-3.03
0.12
2.57
3.92
4.10
3.34
2.20
1.38
1.52
3.04
5.92
9.69
13.56
16.57
17.97
17.26
14.49
10.14
5.10
0.47
-2.81
-4.11
-3.40
-1.13
1.80
4.38
5.81
5.67
4.01
1.31
-1.71
-4.33
-5.94
-6.19
-4.98
-2.53
0.72
4.17
7.25
9.55
10.85
11.19
10.76
9.77
8.47
7.00
5.46
3.93
2.44
0.98
-0.45
-1.83
-3.05
-3.92
-4.31
-4.12
-3.45
-2.54
-1.65
-1.08
-1.04
-1.61
-2.65
-3.92
-5.10
-5.97
-6.39
-6.37
-5.98
-5.27
-4.25
-2.91
-1.35
0.22
1.45
2.07
2.05
1.63
1.24
1.35
2.25
3.93
6.15
8.41
10.25
11.35
11.62
11.32
10.82
10.45
10.34
10.28
9.96
9.05
7.52
5.62
3.81
2.54
2.09
2.53
3.78
5.58
7.45
8.66
8.30
5.69
0.69
-5.90
-12.49
-17.15
-18.35
-15.59
-9.50
-1.69
5.97
11.81
14.84
14.83
12.18
7.71
2.45
-2.50
-6.27
-8.29
-8.41
-6.95
-4.55
-2.06
-0.32
0.13
-0.84
-2.91
-5.47
-7.85
-9.58
-10.51
-10.76
-10.60
-10.27
-9.99
-9.93
-10.27
-11.13
-12.53
-14.18
-15.64
-16.47
-16.47
-15.85
-15.13
-14.90
-15.45
-16.69
-18.07
-18.99
-19.07
-18.30
-17.08
-15.94
-15.30
-15.28
-15.59
-15.69
-15.01
-13.02
-9.47
-4.41
1.78
8.31
14.13
18.06
19.04
16.53
10.72
2.58
-6.34
-14.34
-19.99
-22.53
-21.93
-18.83
-14.20
-9.00
-3.97
0.51
4.40
7.96
11.50
15.37
19.77
24.76
30.22
35.85
41.22
45.94
49.66
52.19
53.47
53.51
52.36
50.16
47.13
43.57
39.81
36.00
32.16
28.18
23.95
19.51
15.09
11.03
7.62
4.99
3.07
1.64
0.49
-0.52
-1.49
-2.53
-3.77
-5.33
-7.23
-9.32
-11.36
-13.14
-14.57
-15.73
-16.79
-17.90
-18.99
-19.78
-19.88
-18.97
-17.00
-14.23
-11.14
-8.31
-6.11
-4.68
-3.92
-3.59
-3.46
-3.39
-3.34
-3.33
-3.43
-3.84
-4.80
-6.66
-9.67
-13.82
-18.62
-23.17
-26.27
-26.82
-24.15
-18.29
-10.08
-0.97
7.32
13.18
15.45
13.71
8.36
0.55
-8.07
-15.68
-20.67
-22.05
-19.56
-13.82
-6.16
1.74
8.25
12.14
12.90
10.77
6.65
1.68
-3.03
-6.73
-9.07
-10.06
-9.95
-9.03
-7.65
-6.17
-5.02
-4.52
-4.87
-5.95
-7.39
-8.67
-9.40
-9.51
-9.24
-8.98
-9.07
-9.57
-10.26
-10.81
-10.91
-10.46
-9.56
-8.42
-7.28
-6.40
-6.06
-6.57
-8.23
-11.18
-15.15
-19.35
-22.51
-23.10
-19.73
-11.65
1.01
17.18
34.96
52.10
66.35
75.82
79.26
76.14
66.76
52.14
33.96
14.32
-4.51
-20.43
-31.86
-37.80
-37.99
-32.74
-22.87
-9.59
5.58
20.71
33.75
42.60
45.62
41.93
31.66
16.04
-2.77
-22.10
-39.17
-51.65
-58.07
-57.96
-51.99
-41.76
-29.57
-18.03
-9.66
-6.30
-8.71
-16.22
-26.74
-37.25
-44.58
-46.27
-41.23
-29.87
-13.82
4.69
23.29
39.93
53.01
61.44
64.74
63.09
57.29
48.61
38.49
28.14
18.31
9.24
0.76
-7.42
-15.48
-23.33
-30.57
-36.55
-40.52
-41.72
-39.52
-33.68
-24.44
-12.73
-0.03
11.75
20.71
25.34
24.90
19.43
9.82
-2.67
-16.67
-31.11
-45.30
-58.72
-70.84
-80.79
-87.47
-89.68
-86.59
-77.98
-64.28
-46.50
-25.99
-4.38
16.31
33.80
45.75
50.45
47.27
37.01
21.63
3.70
-14.26
-30.23
-42.63
-50.32
-52.38
-48.31
-38.19
-22.88
-3.90
16.86
37.43
56.09
71.39
82.16
87.52
86.89
80.15
67.80
50.96
31.43
11.55
-6.09
-19.02
-25.38
-24.40
-16.61
-3.82
11.34
26.07
37.98
45.49
47.83
44.92
37.14
25.37
11.01
-4.01
-17.44
-27.21
-31.92
-31.18
-25.68
-16.91
-6.65
3.31
11.51
16.91
18.97
17.71
13.78
8.31
2.66
-1.93
-4.68
-5.41
-4.41
-2.20
0.64
3.65
6.52
8.97
10.75
11.62
11.47
10.46
9.04
7.83
7.34
7.74
8.80
9.95
10.59
10.33
9.13
7.20
4.88
2.48
0.21
-1.81
-3.45
-4.64
-5.35
-5.65
-5.79
-6.05
-6.67
-7.69
-8.95
-10.11
-10.83
-10.92
-10.38
-9.39
-8.20
-7.00
-5.80
-4.51
-3.04
-1.41
0.20
1.55
2.46
2.87
2.87
2.66
2.42
2.24
2.10
1.93
1.68
1.32
0.91
0.56
0.38
0.48
0.83
1.31
1.70
1.73
1.21
0.13
-1.41
-3.14
-4.85
-6.41
-7.84
-9.23
-10.70
-12.27
-13.95
-15.68
-17.45
-19.19
-20.88
-22.50
-24.06
-25.68
-27.49
-29.63
-32.16
-35.00
-37.93
-40.71
-43.23
-45.57
-48.07
-51.10
-54.98
-59.78
-65.23
-70.79
-75.86
-80.00
-83.11
-85.47
-87.61
-90.15
-93.76
-99.04
-106.50
-116.22
-127.54
-138.80
-147.56
-151.15
-147.58
-136.33
-118.50
-96.31
-72.24
-48.17
-25.17
-3.77
15.63
32.48
46.30
57.06
65.44
72.68
80.05
88.27
97.25
106.26
114.37
120.95
126.02
130.13
134.20
139.12
145.35
152.73
160.47
167.37
172.23
174.23
173.19
169.38
163.32
155.42
145.90
134.94
122.92
110.53
98.75
88.43
79.97
73.19
67.44
62.00
56.42
50.68
45.17
40.30
36.29
32.96
29.87
26.57
22.88
18.97
15.27
12.27
10.27
9.28
9.04
9.10
8.97
8.15
6.29
3.22
-0.94
-5.87
-11.16
-16.57
-22.10
-28.05
-34.75
-42.32
-50.53
-58.91
-66.91
-74.12
-80.31
-85.32
-89.02
-91.24
-91.90
-91.07
-89.06
-86.29
-83.09
-79.74
-76.38
-73.11
-69.98
-66.93
-63.60
-59.43
-53.75
-46.14
-36.72
-26.11
-15.26
-5.04
4.04
11.85
18.43
23.77
27.65
29.85
30.39
29.66
28.45
27.61
27.71
28.76
30.33
31.74
32.39
32.06
30.90
29.23
27.32
25.33
23.29
21.34
19.92
19.64
21.01
23.91
27.35
29.73
29.58
26.34
20.63
13.82
7.16
0.99
-5.36
-12.98
-22.28
-32.38
-41.18
-46.28
-46.17
-40.82
-31.66
-20.76
-9.88
0.30
10.15
20.70
32.87
46.62
60.58
72.23
78.74
77.97
69.35
54.09
34.63
13.85
-5.96
-23.37
-37.70
-48.53
-55.49
-58.19
-56.63
-51.46
-44.04
-36.05
-29.00
-23.74
-20.32
-18.19
-16.56
-14.81
-12.75
-10.63
-8.99
-8.35
-8.86
-10.16
-11.58
-12.44
-12.42
-11.70
-10.74
-9.98
-9.57
-9.31
-8.91
-8.20
-7.33
-6.61
-6.27
-6.14
-5.85
-4.93
-3.24
-0.99
1.35
3.34
4.81
5.91
6.95
8.17
9.52
10.65
11.09
10.52
8.95
6.77
4.58
3.00
2.36
2.57
3.21
3.69
3.65
3.06
2.26
1.73
1.83
2.63
3.78
4.82
5.31
5.03
4.11
2.82
1.49
0.30
-0.66
-1.47
-2.20
-2.93
-3.67
-4.44
-5.23
-6.02
-6.81
-7.54
-8.12
-8.44
-8.38
-7.82
-6.67
-4.93
-2.68
-0.16
2.30
4.30
5.54
5.82
5.16
3.73
1.77
-0.43
-2.67
-4.75
-6.54
-7.95
-8.93
-9.45
-9.52
-9.22
-8.64
-7.96
-7.36
-6.96
-6.77
-6.73
-6.70
-6.58
-6.26
-5.67
-4.79
-3.58
-2.06
-0.34
1.45
3.14
4.68
6.05
7.32
8.53
9.63
10.48
10.90
10.81
10.21
9.26
8.27
7.60
7.61
8.52
10.34
12.86
15.71
18.52
21.05
23.20
24.91
26.17
26.93
27.14
26.93
26.62
26.72
27.67
29.64
32.37
35.24
37.52
38.79
39.20
39.39
40.17
42.15
45.37
49.40
53.62
57.61
61.40
65.30
69.63
74.41
79.41
84.22
88.52
92.14
94.86
96.40
96.35
94.44
90.93
86.75
83.26
81.53
81.66
82.59
82.50
79.78
73.89
65.54
56.23
47.19
38.49
28.89
16.21
-1.63
-25.74
-55.87
-90.34
-126.69
-162.33
-195.05
-223.36
-246.45
-264.12
-277.03
-287.20
-298.01
-313.40
-335.88
-364.30
-392.74
-411.55
-410.71
-383.69
-330.20
-256.20
-171.63
-86.90
-10.39
52.53
98.95
127.79
139.52
136.43
122.74
103.77
84.64
68.93
58.05
51.63
48.35
46.63
45.25
43.41
40.76
37.48
34.09
31.34
29.71
29.29
29.57
29.83
29.46
28.38
27.02
26.08
26.18
27.60
30.15
33.40
36.88
40.22
43.25
46.03
48.68
51.37
54.18
57.02
59.65
61.86
63.64
65.37
67.80
71.74
77.64
85.43
94.51
104.19
114.04
124.09
134.57
145.60
156.72
166.88
174.91
179.82
181.20
179.07
173.74
165.72
155.82
145.04
134.48
124.95
116.57
108.86
101.10
92.98
84.91
77.91
73.15
71.36
72.57
76.14
80.88
85.13
86.76
83.31
72.44
52.58
23.29
-14.77
-60.48
-112.91
-171.40
-234.90
-300.88
-364.65
-419.82
-459.92
-480.56
-480.99
-464.18
-435.30
-399.59
-360.62
-319.79
-277.19
-233.24
-189.70
-149.74
-116.90
-93.67
-80.46
-75.82
-77.21
-82.13
-88.95
-97.00
-106.05
-115.72
-124.99
-132.20
-135.64
-134.01
-126.99
-115.36
-100.69
-84.80
-69.25
-54.92
-42.09
-30.66
-20.50
-11.74
-4.85
-0.29
1.78
1.83
0.90
0.35
1.29
4.23
8.99
14.96
21.62
28.86
36.94
46.24
56.76
67.99
78.86
88.13
94.76
98.16
98.29
95.50
90.43
83.92
76.90
70.30
64.93
61.34
59.75
60.05
61.84
64.54
67.52
70.31
72.63
74.53
76.28
78.08
79.94
81.43
81.87
80.57
77.19
71.90
65.30
58.15
51.16
44.79
39.30
34.88
31.64
29.51
28.19
27.03
25.15
21.79
16.49
9.27
0.70
-8.42
-17.21
-24.98
-31.26
-35.82
-38.61
-39.71
-39.29
-37.60
-34.96
-31.74
-28.23
-24.62
-21.02
-17.54
-14.32
-11.53
-9.36
-7.89
-7.09
-6.84
-6.98
-7.39
-7.96
-8.73
-9.63
-10.54
-11.23
-11.37
-10.61
-8.62
-5.26
-0.58
5.08
11.24
17.37
22.98
27.81
31.77
34.97
37.60
39.89
41.94
43.79
45.28
46.22
46.37
45.56
43.78
41.16
37.97
34.54
31.17
28.07
25.32
22.95
20.86
18.84
16.68
14.15
11.11
7.59
3.77
-0.06
-3.52
-6.25
-8.00
-8.68
-8.45
-7.65
-6.69
-5.90
-5.43
-5.12
-4.74
-4.05
-3.05
-1.96
-1.07
-0.59
-0.49
-0.49
-0.13
0.99
3.12
6.32
10.45
15.25
20.47
25.77
30.85
35.47
39.47
42.90
46.03
49.23
52.69
56.24
59.12
60.22
58.35
52.86
43.93
32.66
20.65
9.42
-0.10
-7.83
-14.34
-20.45
-26.78
-33.43
-39.97
-45.62
-49.55
-51.16
-50.21
-46.81
-41.31
-34.19
-25.91
-16.93
-7.76
0.98
8.63
14.58
18.53
20.54
21.04
20.62
19.73
18.53
16.77
14.04
9.96
4.50
-1.92
-8.55
-14.49
-19.00
-21.64
-22.47
-21.81
-20.20
-18.22
-16.37
-14.97
-14.20
-14.08
-14.53
-15.42
-16.57
-17.83
-19.04
-20.15
-21.22
-22.33
-23.61
-25.05
-26.50
-27.66
-28.28
-28.18
-27.36
-25.97
-24.21
-22.17
-19.88
-17.32
-14.56
-11.91
-9.78
-8.52
-8.30
-8.93
-9.94
-10.75
-10.81
-9.78
-7.49
-3.91
0.91
6.79
13.53
20.76
28.01
34.79
40.76
45.81
50.10
53.89
57.30
60.18
62.05
62.32
60.52
56.58
50.73
43.60
35.86
28.18
21.17
15.30
10.92
8.18
7.03
7.22
8.42
10.36
12.83
15.71
18.82
21.96
24.98
27.81
30.50
33.17
35.82
38.20
39.95
40.70
40.33
39.04
37.29
35.62
34.43
33.80
33.48
32.93
31.36
27.96
22.12
13.73
3.39
-7.45
-16.82
-22.71
-23.79
-19.85
-11.87
-1.67
8.68
17.43
23.55
26.75
27.39
26.20
24.07
21.84
20.12
19.09
18.51
17.79
16.31
13.66
9.80
5.05
-0.11
-5.29
-10.27
-15.01
-19.47
-23.36
-26.07
-26.81
-25.06
-20.87
-15.13
-9.38
-5.25
-4.03
-6.18
-11.28
-18.14
-25.08
-30.22
-31.67
-28.03
-18.67
-4.21
13.45
31.59
47.24
58.01
62.49
60.41
52.36
39.49
23.24
5.25
-12.73
-28.96
-42.11
-51.46
-56.96
-59.12
-58.59
-55.84
-51.02
-44.06
-34.99
-24.25
-12.86
-2.29
5.82
10.14
9.92
5.10
-3.73
-15.48
-28.75
-42.05
-54.00
-63.53
-70.01
-73.29
-73.57
-71.24
-66.58
-59.73
-50.63
-39.30
-26.16
-12.14
1.36
12.78
20.93
25.31
26.24
24.69
21.86
18.76
16.07
14.05
12.77
12.35
12.90
14.49
16.94
19.68
21.90
22.86
22.12
19.82
16.58
13.28
10.68
9.29
9.39
11.00
14.10
18.54
23.88
29.39
34.14
37.19
38.06
36.82
34.05
30.57
27.05
23.77
20.56
17.00
12.75
7.68
1.99
-3.96
-9.75
-15.04
-19.55
-23.07
-25.38
-26.34
-25.92
-24.32
-22.00
-19.53
-17.43
-16.04
-15.44
-15.42
-15.70
-15.96
-16.03
-15.86
-15.44
-14.79
-13.84
-12.54
-10.85
-8.90
-6.88
-5.00
-3.34
-1.90
-0.55
0.76
1.99
3.02
3.75
4.18
4.46
4.82
5.41
6.40
7.82
9.70
12.00
14.54
16.98
18.88
19.84
19.66
18.45
16.57
14.46
12.46
10.67
9.00
7.28
5.44
3.55
1.83
0.59
0.06
0.36
1.41
2.88
4.24
4.86
4.19
2.00
-1.38
-5.05
-7.71
-8.15
-5.82
-1.20
4.36
9.12
11.68
11.50
8.90
4.84
0.39
-3.50
-6.16
-7.15
-6.34
-4.07
-1.28
0.66
0.54
-2.12
-6.66
-11.53
-15.10
-16.48
-15.93
-14.62
-13.91
-14.52
-16.18
-17.84
-18.34
-17.05
-14.29
-11.07
-8.59
-7.57
-7.98
-9.10
-9.99
-10.12
-9.68
-9.46
-10.41
-13.00
-16.96
-21.43
-25.54
-28.99
-32.19
-36.00
-41.08
-47.38
-54.16
-60.45
-65.71
-70.35
-75.49
-82.31
-91.26
-101.60
-111.70
-119.67
-124.27
-125.47
-124.50
-123.49
-124.51
-128.60
-134.86
-140.26
-140.04
-129.12
-103.75
-63.30
-11.02
46.48
100.95
145.03
174.30
188.15
189.25
181.94
170.36
157.35
144.29
131.73
120.19
110.39
102.96
97.83
94.10
90.39
85.68
79.96
74.22
69.92
68.11
68.84
71.16
73.53
74.60
73.66
70.87
66.98
62.99
59.65
57.26
55.57
54.05
52.19
49.78
46.96
44.07
41.28
38.47
35.10
30.50
24.18
16.11
6.87
-2.53
-10.89
-17.15
-20.72
-21.61
-20.48
-18.35
-16.32
-15.11
-14.97
-15.68
-16.81
-17.96
-18.98
-20.05
-21.42
-23.27
-25.57
-28.11
-30.58
-32.70
-34.21
-34.71
-33.73
-30.69
-25.16
-17.16
-7.23
3.55
13.86
22.51
28.68
31.97
32.39
30.21
25.89
20.12
13.79
7.91
3.35
0.59
-0.47
-0.47
-0.36
-1.07
-3.13
-6.33
-9.63
-11.36
-9.74
-3.71
6.45
18.89
30.69
38.99
42.00
39.62
33.15
24.55
15.37
6.25
-3.06
-13.15
-24.31
-36.28
-48.33
-59.53
-69.06
-76.23
-80.58
-81.87
-80.02
-75.09
-67.25
-56.76
-44.03
-29.63
-14.23
1.54
17.21
32.49
47.12
60.81
73.12
83.60
92.08
98.78
104.37
109.60
114.68
118.90
120.62
117.93
109.50
95.32
76.97
57.23
39.14
24.98
15.46
9.61
5.45
0.94
-5.06
-12.30
-19.43
-24.77
-27.22
-26.72
-24.43
-22.24
-22.24
-26.28
-35.35
-48.91
-64.19
-76.21
-78.98
-68.02
-42.94
-8.70
25.66
50.50
59.56
52.45
34.09
11.71
-8.77
-24.79
-36.96
-47.03
-55.80
-62.45
-65.34
-63.57
-57.94
-50.80
-44.67
-41.03
-39.64
-38.81
-36.59
-31.80
-24.72
-16.97
-10.74
-7.85
-8.86
-12.93
-18.19
-22.59
-24.71
-24.21
-21.87
-19.07
-17.21
-17.06
-18.63
-21.25
-24.06
-26.31
-27.66
-28.16
-28.04
-27.56
-26.90
-26.19
-25.55
-25.15
-25.09
-25.25
-25.39
-25.11
-24.11
-22.32
-19.88
-17.06
-14.15
-11.35
-8.80
-6.63
-4.95
-3.82
-3.21
-2.94
-2.73
-2.39
-1.83
-1.13
-0.44
0.12
0.58
0.99
1.47
2.09
2.89
3.83
4.88
5.96
6.99
7.85
8.43
8.67
8.67
8.69
9.11
10.20
12.01
14.33
16.73
18.72
19.86
19.85
18.56
16.00
12.42
8.32
4.52
1.90
1.17
2.56
5.66
9.59
13.30
15.88
16.84
15.93
13.16
8.61
2.55
-4.50
-11.62
-17.66
-21.42
-21.98
-19.13
-13.34
-5.78
1.92
8.09
11.37
11.04
7.27
1.04
-6.05
-12.21
-15.88
-16.12
-12.81
-6.69
0.83
8.05
13.37
15.72
14.87
11.42
6.55
1.65
-2.09
-4.01
-4.04
-2.59
-0.37
1.93
3.72
4.64
4.63
3.80
2.46
0.96
-0.33
-1.16
-1.42
-1.20
-0.70
-0.23
-0.06
-0.39
-1.29
-2.72
-4.53
-6.47
-8.29
-9.80
-10.90
-11.64
-12.19
-12.71
-13.23
-13.62
-13.62
-12.99
-11.69
-9.91
-8.04
-6.50
-5.56
-5.17
-5.12
-5.06
-4.77
-4.20
-3.52
-3.00
-2.90
-3.37
-4.33
-5.59
-6.82
-7.67
-7.89
-7.32
-5.98
-4.07
-1.89
0.24
2.06
3.50
4.74
6.07
7.86
10.27
13.25
16.46
19.38
21.50
22.36
21.69
19.37
15.56
10.65
5.30
0.30
-3.54
-5.69
-5.93
-4.48
-1.87
1.20
3.96
5.79
6.23
5.09
2.49
-1.16
-5.20
-8.93
-11.69
-13.07
-12.88
-11.22
-8.51
-5.34
-2.47
-0.49
0.22
-0.33
-1.76
-3.52
-4.99
-5.79
-5.73
-4.89
-3.51
-1.82
-0.08
1.51
2.78
3.69
4.20
4.41
4.45
4.46
4.55
4.73
4.98
5.17
5.21
4.95
4.31
3.29
1.96
0.53
-0.82
-1.97
-2.96
-3.96
-5.21
-6.79
-8.51
-9.97
-10.57
-9.93
-7.93
-4.82
-1.10
2.69
6.14
9.01
11.20
12.69
13.43
13.34
12.50
11.06
9.36
7.71
6.27
4.90
3.36
1.36
-1.16
-3.96
-6.59
-8.56
-9.63
-9.79
-9.27
-8.33
-7.14
-5.79
-4.33
-2.91
-1.68
-0.87
-0.54
-0.64
-0.92
-1.19
-1.23
-0.97
-0.34
0.68
2.13
3.98
6.05
8.01
9.41
9.86
9.31
8.00
6.42
5.04
4.16
3.72
3.46
3.09
2.46
1.67
0.98
0.60
0.55
0.63
0.44
-0.31
-1.75
-3.70
-5.78
-7.55
-8.69
-9.09
-8.82
-8.09
-7.02
-5.71
-4.14
-2.35
-0.43
1.38
2.85
3.84
4.37
4.61
4.80
5.09
5.47
5.83
6.05
6.05
5.87
5.49
4.83
3.75
2.16
0.08
-2.25
-4.46
-6.20
-7.27
-7.68
-7.56
-7.07
-6.29
-5.20
-3.80
-2.08
-0.11
1.98
4.07
6.06
7.87
9.45
10.70
11.57
11.97
11.93
11.57
11.13
10.84
10.88
11.25
11.81
12.37
12.82
13.23
13.79
14.70
15.96
17.37
18.64
19.56
20.05
20.27
20.35
20.37
20.21
19.69
18.76
17.55
16.36
15.46
14.97
14.75
14.52
14.00
13.00
11.51
9.66
7.61
5.55
3.67
2.07
0.84
-0.13
-1.04
-2.19
-3.88
-6.34
-9.61
-13.53
-17.78
-21.99
-25.74
-28.78
-30.96
-32.30
-32.86
-32.73
-31.99
-30.76
-29.26
-27.81
-26.77
-26.32
-26.45
-26.93
-27.38
-27.49
-27.08
-26.14
-24.80
-23.24
-21.65
-20.19
-18.99
-18.13
-17.62
-17.42
-17.42
-17.49
-17.42
-17.00
-16.10
-14.66
-12.81
-10.83
-9.02
-7.56
-6.45
-5.52
-4.53
-3.36
-2.09
-0.95
-0.20
0.07
-0.07
-0.37
-0.60
-0.62
-0.41
-0.08
0.31
0.73
1.19
1.73
2.33
2.86
3.17
3.15
2.84
2.40
2.05
2.00
2.31
2.96
3.87
4.92
6.06
7.26
8.53
9.82
11.07
12.16
12.94
13.30
13.15
12.53
11.53
10.29
8.97
7.64
6.34
5.07
3.85
2.72
1.76
0.99
0.40
-0.03
-0.25
-0.25
-0.02
0.39
0.81
1.11
1.19
0.98
0.53
-0.11
-0.85
-1.58
-2.14
-2.36
-2.09
-1.37
-0.41
0.46
0.94
0.89
0.39
-0.31
-1.00
-1.59
-2.17
-2.93
-3.93
-5.15
-6.41
-7.52
-8.39
-9.06
-9.57
-9.88
-9.77
-8.89
-7.08
-4.43
-1.36
1.60
4.01
5.73
6.90
7.78
8.56
9.24
9.71
9.84
9.66
9.33
9.03
8.79
8.47
7.87
6.87
5.62
4.45
3.67
3.39
3.40
3.21
2.32
0.48
-2.13
-4.97
-7.34
-8.74
-9.05
-8.56
-7.77
-7.16
-6.94
-7.07
-7.31
-7.44
-7.38
-7.15
-6.78
-6.28
-5.54
-4.47
-3.08
-1.50
0.07
1.50
2.75
3.84
4.78
5.55
6.13
6.49
6.73
6.95
7.18
7.37
7.41
7.17
6.72
6.25
6.04
6.26
6.89
7.64
8.16
8.16
7.56
6.52
5.34
4.30
3.55
3.04
2.58
2.01
1.23
0.25
-0.83
-1.87
-2.74
-3.34
-3.64
-3.72
-3.74
-3.96
-4.66
-5.99
-7.92
-10.21
-12.45
-14.15
-14.82
-14.10
-11.87
-8.31
-3.81
1.11
5.97
10.51
14.71
18.62
22.33
25.81
29.01
31.85
34.34
36.52
38.46
40.24
41.88
43.35
44.61
45.57
46.11
46.03
45.10
43.09
39.89
35.45
29.85
23.28
15.96
8.19
0.33
-7.20
-13.97
-19.59
-23.75
-26.33
-27.43
-27.38
-26.60
-25.53
-24.48
-23.58
-22.74
-21.73
-20.29
-18.27
-15.69
-12.76
-9.79
-6.99
-4.46
-2.12
0.16
2.42
4.56
6.38
7.70
8.44
8.67
8.45
7.80
6.62
4.79
2.28
-0.76
-4.05
-7.20
-9.91
-12.05
-13.64
-14.71
-15.30
-15.37
-14.93
-14.04
-12.83
-11.45
-10.05
-8.69
-7.44
-6.37
-5.54
-5.10
-5.11
-5.51
-6.16
-6.79
-7.16
-7.12
-6.64
-5.83
-4.91
-4.14
-3.73
-3.78
-4.23
-4.90
-5.55
-6.02
-6.22
-6.22
-6.11
-5.94
-5.72
-5.40
-4.99
-4.57
-4.25
-4.13
-4.18
-4.30
-4.33
-4.17
-3.81
-3.37
-2.96
-2.69
-2.57
-2.57
-2.64
-2.72
-2.83
-2.94
-3.10
-3.36
-3.73
-4.23
-4.81
-5.42
-5.99
-6.50
-6.94
-7.32
-7.66
-7.91
-8.05
-8.04
-7.85
-7.47
-6.85
-5.92
-4.61
-2.96
-1.07
0.84
2.47
3.60
4.09
4.00
3.52
2.96
2.62
2.74
3.39
4.47
5.75
6.90
7.64
7.81
7.40
6.55
5.54
4.64
4.00
3.64
3.39
3.09
2.61
2.02
1.45
1.07
0.99
1.20
1.65
2.28
3.08
4.02
5.05
6.00
6.66
6.91
6.78
6.48
6.26
6.32
6.68
7.21
7.71
8.04
8.13
8.03
7.84
7.60
7.33
7.09
6.91
6.87
6.96
7.09
7.06
6.72
6.03
5.09
4.12
3.28
2.63
2.17
1.79
1.46
1.18
0.99
0.86
0.71
0.48
0.11
-0.37
-0.92
-1.55
-2.27
-3.08
-3.86
-4.42
-4.52
-4.01
-2.93
-1.57
-0.22
0.86
1.55
1.89
1.92
1.72
1.32
0.82
0.29
-0.14
-0.42
-0.61
-0.84
-1.28
-1.90
-2.62
-3.12
-3.20
-2.72
-1.76
-0.61
0.41
1.03
1.16
0.86
0.35
-0.14
-0.44
-0.51
-0.39
-0.19
-0.01
0.14
0.22
0.24
0.14
-0.14
-0.61
-1.21
-1.72
-1.90
-1.61
-0.83
0.23
1.30
2.09
2.50
2.56
2.40
2.19
2.03
1.94
1.91
2.00
2.22
2.59
3.04
3.43
3.59
3.43
2.99
2.38
1.80
1.38
1.17
1.13
1.17
1.22
1.31
1.50
1.86
2.32
2.71
2.80
2.48
1.86
1.16
0.62
0.33
0.13
-0.24
-1.02
-2.19
-3.54
-4.71
-5.43
-5.61
-5.29
-4.64
-3.79
-2.87
-1.99
-1.25
-0.76
-0.56
-0.58
-0.70
-0.79
-0.84
-0.95
-1.30
-1.96
-2.88
-3.81
-4.43
-4.47
-3.84
-2.67
-1.26
0.04
0.97
1.32
1.09
0.36
-0.69
-1.82
-2.84
-3.65
-4.22
-4.60
-4.87
-5.11
-5.31
-5.42
-5.38
-5.16
-4.79
-4.40
-4.09
-3.94
-3.88
-3.74
-3.38
-2.71
-1.87
-1.09
-0.60
-0.51
-0.72
-1.01
-1.14
-0.99
-0.54
0.10
0.77
1.29
1.53
1.42
0.96
0.28
-0.40
-0.81
-0.77
-0.27
0.54
1.43
2.20
2.69
2.91
2.84
2.54
2.06
1.51
1.07
0.94
1.27
2.03
3.01
3.86
4.32
4.30
3.99
3.72
3.80
4.37
5.32
6.42
7.38
8.06
8.45
8.69
8.84
8.93
8.90
8.67
8.30
7.89
7.59
7.45
7.35
7.09
6.46
5.43
4.15
2.88
1.91
1.38
1.30
1.58
2.12
2.80
3.54
4.21
4.74
5.09
5.26
5.34
5.40
5.39
5.17
4.67
3.78
2.66
1.49
0.48
-0.26
-0.76
-1.17
-1.64
-2.23
-2.92
-3.64
-4.30
-4.87
-5.38
-5.94
-6.66
-7.60
-8.74
-9.96
-11.12
-12.09
-12.80
-13.19
-13.27
-13.08
-12.67
-12.05
-11.31
-10.50
-9.73
-9.11
-8.72
-8.63
-8.86
-9.36
-9.99
-10.56
-10.87
-10.80
-10.30
-9.44
-8.35
-7.15
-5.96
-4.85
-3.89
-3.09
-2.50
-2.10
-1.87
-1.79
-1.80
-1.87
-2.01
-2.18
-2.30
-2.22
-1.80
-0.96
0.25
1.65
3.00
4.10
4.85
5.32
5.65
5.96
6.33
6.74
7.16
7.50
7.70
7.69
7.49
7.09
6.60
6.12
5.74
5.45
5.17
4.81
4.29
3.61
2.81
1.95
0.99
-0.11
-1.44
-2.94
-4.42
-5.60
-6.21
-6.16
-5.59
-4.78
-4.10
-3.75
-3.81
-4.08
-4.38
-4.48
-4.31
-3.89
-3.31
-2.71
-2.18
-1.83
-1.67
-1.69
-1.79
-1.91
-1.96
-1.87
-1.63
-1.22
-0.66
-0.07
0.42
0.69
0.64
0.32
-0.11
-0.45
-0.47
-0.06
0.74
1.74
2.70
3.38
3.62
3.45
2.99
2.47
2.02
1.65
1.25
0.69
-0.06
-0.86
-1.54
-1.91
-1.94
-1.69
-1.34
-0.97
-0.66
-0.39
-0.10
0.16
0.35
0.37
0.16
-0.25
-0.80
-1.37
-1.85
-2.11
-2.08
-1.78
-1.30
-0.83
-0.50
-0.42
-0.55
-0.80
-1.08
-1.36
-1.69
-2.18
-2.89
-3.75
-4.61
-5.28
-5.65
-5.70
-5.59
-5.50
-5.55
-5.74
-5.94
-5.97
-5.68
-5.03
-4.08
-2.96
-1.77
-0.59
0.53
1.50
2.24
2.71
2.92
2.97
3.00
3.15
3.42
3.72
3.94
4.04
4.04
4.00
3.98
4.00
4.04
4.08
4.13
4.25
4.45
4.71
4.88
4.88
4.68
4.37
4.06
3.82
3.63
3.40
3.07
2.65
2.21
1.82
1.53
1.26
0.94
0.51
0.04
-0.34
-0.47
-0.27
0.19
0.77
1.31
1.71
1.94
2.04
2.11
2.19
2.31
2.40
2.35
2.07
1.53
0.78
-0.07
-0.87
-1.48
-1.83
-1.93
-1.86
-1.74
-1.67
-1.73
-1.91
-2.18
-2.43
-2.54
-2.44
-2.13
-1.62
-0.99
-0.31
0.38
1.03
1.63
2.19
2.68
3.05
3.24
3.19
2.97
2.71
2.52
2.51
2.67
2.93
3.19
3.38
3.55
3.72
3.94
4.14
4.23
4.09
3.73
3.27
2.91
2.84
3.12
3.71
4.41
5.03
5.40
5.44
5.18
4.67
3.99
3.21
2.41
1.73
1.30
1.19
1.39
1.76
2.10
2.24
2.16
1.97
1.88
2.04
2.46
2.99
3.46
3.64
3.46
2.90
2.10
1.24
0.48
-0.02
-0.25
-0.29
-0.33
-0.58
-1.18
-2.10
-3.13
-4.00
-4.45
-4.42
-3.98
-3.36
-2.75
-2.30
-2.01
-1.85
-1.75
-1.68
-1.62
-1.57
-1.50
-1.35
-1.13
-0.86
-0.64
-0.56
-0.71
-1.08
-1.65
-2.29
-2.96
-3.57
-4.04
-4.37
-4.55
-4.59
-4.53
-4.43
-4.29
-4.16
-4.06
-4.06
-4.26
-4.70
-5.36
-6.11
-6.80
-7.31
-7.66
-7.88
-8.10
-8.40
-8.81
-9.32
-9.90
-10.43
-10.74
-10.68
-10.14
-9.14
-7.83
-6.45
-5.22
-4.26
-3.57
-3.09
-2.70
-2.32
-1.82
-1.14
-0.24
0.82
1.97
3.14
4.22
5.19
6.04
6.70
7.11
7.23
7.01
6.51
5.86
5.18
4.62
4.27
4.16
4.26
4.46
4.59
4.49
4.02
3.16
2.03
0.85
-0.13
-0.74
-0.92
-0.82
-0.66
-0.70
-1.08
-1.73
-2.42
-2.83
-2.76
-2.26
-1.58
-1.05
-0.86
-1.01
-1.24
-1.25
-0.85
-0.10
0.78
1.45
1.67
1.37
0.62
-0.39
-1.43
-2.35
-3.00
-3.32
-3.33
-3.12
-2.85
-2.68
-2.74
-3.01
-3.38
-3.67
-3.76
-3.59
-3.20
-2.64
-1.95
-1.09
-0.03
1.23
2.62
3.98
5.13
5.93
6.32
6.32
6.03
5.53
4.87
4.05
3.07
1.93
0.70
-0.47
-1.45
-2.14
-2.54
-2.78
-3.02
-3.39
-3.93
-4.57
-5.16
-5.57
-5.72
-5.62
-5.38
-5.13
-4.95
-4.85
-4.73
-4.47
-3.97
-3.19
-2.24
-1.21
-0.22
0.69
1.48
2.14
2.63
2.90
2.98
2.95
2.93
3.07
3.40
3.88
4.37
4.74
4.87
4.75
4.40
3.89
3.30
2.71
2.15
1.65
1.18
0.72
0.28
-0.12
-0.46
-0.77
-1.11
-1.60
-2.32
-3.29
-4.39
-5.39
-6.02
-6.07
-5.47
-4.35
-2.99
-1.72
-0.75
-0.12
0.27
0.63
1.06
1.58
2.15
2.70
3.29
4.05
5.07
6.29
7.49
8.31
8.41
7.65
6.15
4.27
2.48
1.12
0.40
0.25
0.52
0.95
1.36
1.62
1.71
1.60
1.28
0.79
0.24
-0.27
-0.65
-0.81
-0.79
-0.65
-0.43
-0.16
0.16
0.52
0.87
1.15
1.33
1.40
1.35
1.20
0.97
0.70
0.47
0.40
0.56
0.91
1.34
1.67
1.78
1.64
1.29
0.79
0.15
-0.61
-1.50
-2.47
-3.44
-4.27
-4.89
-5.28
-5.45
-5.48
-5.40
-5.22
-4.87
-4.23
-3.17
-1.63
0.33
2.43
4.35
5.80
6.66
7.01
7.06
6.99
6.89
6.73
6.41
5.95
5.46
5.18
5.35
6.07
7.13
8.14
8.65
8.31
7.13
5.39
3.54
1.95
0.77
-0.13
-0.96
-1.82
-2.64
-3.18
-3.28
-2.96
-2.49
-2.28
-2.58
-3.34
-4.27
-4.92
-4.98
-4.34
-3.22
-1.95
-0.83
-0.04
0.41
0.59
0.59
0.48
0.35
0.24
0.25
0.47
0.89
1.42
1.94
2.33
2.53
2.59
2.55
2.49
2.49
2.56
2.70
2.89
3.09
3.21
3.19
3.00
2.70
2.40
2.15
2.00
1.87
1.69
1.39
0.99
0.53
0.07
-0.36
-0.71
-0.93
-0.89
-0.48
0.32
1.47
2.77
4.00
4.97
5.64
6.06
6.35
6.59
6.77
6.83
6.70
6.37
5.93
5.53
5.30
5.26
5.29
5.27
5.02
4.53
3.89
3.24
2.70
2.25
1.75
1.00
-0.03
-1.31
-2.65
-3.85
-4.84
-5.66
-6.43
-7.26
-8.11
-8.79
-9.16
-9.11
-8.71
-8.16
-7.61
-7.16
-6.82
-6.56
-6.35
-6.23
-6.16
-6.03
-5.64
-4.84
-3.60
-2.13
-0.79
0.15
0.53
0.45
0.17
-0.17
-0.50
-0.91
-1.50
-2.28
-3.09
-3.72
-4.04
-4.12
-4.18
-4.45
-5.01
-5.72
-6.34
-6.65
-6.58
-6.24
-5.79
-5.35
-4.90
-4.35
-3.66
-2.86
-2.10
-1.49
-1.06
-0.70
-0.27
0.34
1.09
1.82
2.33
2.45
2.16
1.59
1.00
0.58
0.46
0.60
0.87
1.12
1.27
1.30
1.32
1.40
1.58
1.80
1.95
1.92
1.65
1.18
0.58
0.02
-0.34
-0.39
-0.11
0.46
1.18
1.92
2.59
3.16
3.67
4.12
4.52
4.84
4.99
4.95
4.74
4.44
4.12
3.83
3.53
3.22
2.88
2.50
2.16
1.90
1.75
1.60
1.38
0.97
0.38
-0.29
-0.88
-1.19
-1.17
-0.89
-0.58
-0.47
-0.72
-1.29
-1.94
-2.37
-2.39
-2.01
-1.39
-0.76
-0.25
0.19
0.68
1.39
2.29
3.21
3.85
3.99
3.60
2.90
2.19
1.71
1.58
1.66
1.79
1.85
1.84
1.91
2.18
2.69
3.31
3.81
3.98
3.76
3.27
2.69
2.18
1.82
1.54
1.17
0.61
-0.20
-1.15
-2.08
-2.84
-3.31
-3.50
-3.44
-3.19
-2.73
-2.02
-1.02
0.23
1.54
2.68
3.37
3.49
3.06
2.34
1.66
1.26
1.23
1.43
1.63
1.65
1.38
0.87
0.25
-0.38
-0.92
-1.33
-1.55
-1.54
-1.22
-0.59
0.27
1.19
1.89
2.12
1.75
0.81
-0.49
-1.86
-2.94
-3.50
-3.43
-2.78
-1.69
-0.32
1.20
2.72
4.14
5.36
6.30
6.95
7.32
7.44
7.35
7.10
6.70
6.21
5.68
5.16
4.66
4.12
3.47
2.69
1.88
1.15
0.61
0.29
0.11
-0.09
-0.36
-0.73
-1.14
-1.53
-1.89
-2.36
-3.06
-4.10
-5.43
-6.81
-7.91
-8.42
-8.14
-7.09
-5.47
-3.62
-1.89
-0.53
0.40
0.99
1.38
1.72
2.04
2.31
2.49
2.52
2.44
2.33
2.24
2.13
1.96
1.62
1.13
0.56
0.04
-0.34
-0.58
-0.78
-1.08
-1.57
-2.24
-2.94
-3.51
-3.83
-3.88
-3.83
-3.88
-4.22
-4.88
-5.71
-6.39
-6.60
-6.13
-4.99
-3.44
-1.81
-0.40
0.62
1.27
1.64
1.83
1.86
1.73
1.40
0.93
0.44
0.03
-0.22
-0.35
-0.43
-0.52
-0.64
-0.78
-0.87
-0.88
-0.79
-0.57
-0.25
0.12
0.46
0.60
0.38
-0.27
-1.33
-2.63
-3.89
-4.82
-5.22
-4.98
-4.18
-2.97
-1.49
0.04
1.48
2.65
3.41
3.65
3.34
2.60
1.62
0.63
-0.18
-0.73
-1.03
-1.14
-1.09
-0.89
-0.57
-0.25
-0.06
-0.16
-0.61
-1.34
-2.15
-2.79
-3.11
-3.11
-3.02
-3.02
-3.30
-3.78
-4.25
-4.43
-4.18
-3.59
-2.91
-2.42
-2.28
-2.41
-2.57
-2.46
-1.94
-1.14
-0.31
0.20
0.20
-0.33
-1.15
-1.90
-2.24
-2.03
-1.35
-0.54
0.02
-0.01
-0.68
-1.77
-2.89
-3.60
-3.63
-2.95
-1.76
-0.42
0.73
1.47
1.72
1.54
1.05
0.39
-0.30
-0.90
-1.26
-1.29
-0.96
-0.38
0.26
0.70
0.81
0.53
-0.02
-0.66
-1.26
-1.70
-1.96
-2.02
-1.88
-1.57
-1.15
-0.69
-0.27
0.06
0.30
0.48
0.63
0.75
0.80
0.72
0.49
0.14
-0.21
-0.45
-0.47
-0.25
0.19
0.79
1.44
2.07
2.60
3.00
3.28
3.48
3.66
3.91
4.24
4.61
4.93
5.08
4.97
4.59
3.97
3.22
2.42
1.62
0.88
0.23
-0.33
-0.76
-1.07
-1.33
-1.61
-1.96
-2.42
-2.92
-3.38
-3.72
-3.91
-3.92
-3.74
-3.37
-2.82
-2.15
-1.45
-0.85
-0.49
-0.40
-0.52
-0.73
-0.90
-0.98
-1.01
-0.98
-0.94
-0.87
-0.79
-0.69
-0.56
-0.40
-0.14
0.22
0.72
1.28
1.79
2.15
2.32
2.32
2.23
2.17
2.17
2.24
2.23
2.00
1.48
0.71
-0.14
-0.81
-1.05
-0.78
-0.12
0.72
1.47
1.98
2.25
2.34
2.37
2.38
2.37
2.30
2.17
2.04
2.02
2.15
2.35
2.53
2.49
2.13
1.43
0.55
-0.33
-0.97
-1.22
-1.08
-0.63
-0.06
0.43
0.73
0.80
0.71
0.57
0.49
0.49
0.50
0.38
0.09
-0.29
-0.57
-0.54
-0.12
0.61
1.41
2.04
2.39
2.53
2.65
2.85
3.16
3.45
3.57
3.43
3.06
2.51
1.87
1.15
0.36
-0.47
-1.23
-1.77
-1.95
-1.72
-1.20
-0.62
-0.21
-0.18
-0.62
-1.51
-2.71
-4.02
-5.19
-6.06
-6.49
-6.42
-5.94
-5.15
-4.14
-2.99
-1.75
-0.46
0.76
1.77
2.40
2.55
2.28
1.77
1.23
0.85
0.72
0.78
0.92
1.00
0.91
0.63
0.18
-0.35
-0.85
-1.18
-1.26
-1.11
-0.83
-0.62
-0.62
-0.87
-1.33
-1.86
-2.27
-2.51
-2.55
-2.42
-2.11
-1.57
-0.75
0.30
1.45
2.43
3.04
3.20
3.06
2.89
2.94
3.25
3.71
4.06
4.12
3.87
3.45
3.05
2.74
2.49
2.17
1.62
0.85
0.02
-0.60
-0.77
-0.44
0.23
0.93
1.34
1.23
0.60
-0.40
-1.47
-2.36
-2.89
-3.02
-2.79
-2.34
-1.79
-1.24
-0.76
-0.39
-0.16
-0.06
-0.11
-0.26
-0.43
-0.49
-0.36
-0.08
0.21
0.32
0.11
-0.38
-0.99
-1.49
-1.73
-1.75
-1.67
-1.65
-1.79
-2.07
-2.37
-2.62
-2.75
-2.81
-2.89
-3.06
-3.35
-3.74
-4.15
-4.51
-4.72
-4.68
-4.32
-3.66
-2.78
-1.82
-0.95
-0.26
0.21
0.52
0.70
0.77
0.67
0.37
-0.07
-0.46
-0.55
-0.20
0.62
1.69
2.70
3.33
3.40
2.99
2.30
1.62
1.09
0.70
0.29
-0.29
-1.09
-2.01
-2.85
-3.49
-3.84
-3.97
-3.97
-3.84
-3.50
-2.80
-1.74
-0.45
0.76
1.56
1.81
1.58
1.19
1.02
1.32
2.07
3.04
3.85
4.27
4.25
3.91
3.48
3.10
2.80
2.53
2.23
1.92
1.66
1.45
1.26
0.97
0.51
-0.16
-0.98
-1.82
-2.55
-3.07
-3.35
-3.37
-3.15
-2.72
-2.12
-1.47
-0.91
-0.54
-0.41
-0.51
-0.74
-1.01
-1.26
-1.44
-1.55
-1.58
-1.62
-1.71
-1.92
-2.28
-2.75
-3.24
-3.57
-3.64
-3.39
-2.92
-2.42
-2.09
-2.07
-2.41
-3.00
-3.69
-4.32
-4.78
-5.01
-5.02
-4.89
-4.65
-4.34
-3.90
-3.28
-2.42
-1.33
-0.12
1.10
2.21
3.16
3.87
4.30
4.44
4.26
3.81
3.23
2.71
2.42
2.38
2.47
2.46
2.22
1.75
1.18
0.76
0.69
0.99
1.56
2.14
2.50
2.49
2.06
1.30
0.30
-0.86
-2.09
-3.26
-4.20
-4.73
-4.69
-4.01
-2.81
-1.30
0.16
1.25
1.79
1.76
1.27
0.55
-0.18
-0.73
-0.97
-0.82
-0.25
0.70
1.90
3.10
3.99
4.34
4.03
3.22
2.18
1.26
0.70
0.56
0.67
0.74
0.50
-0.19
-1.26
-2.50
-3.60
-4.32
-4.55
-4.31
-3.71
-2.90
-2.04
-1.23
-0.52
0.06
0.52
0.91
1.25
1.60
1.90
2.10
2.11
1.94
1.65
1.38
1.24
1.21
1.17
0.95
0.49
-0.11
-0.67
-1.03
-1.10
-0.97
-0.82
-0.80
-0.92
-1.07
-1.07
-0.82
-0.37
0.16
0.62
0.95
1.28
1.73
2.40
3.25
4.09
4.67
4.82
4.62
4.21
3.83
3.58
3.41
3.17
2.73
2.08
1.29
0.55
-0.01
-0.34
-0.44
-0.39
-0.25
-0.13
-0.08
-0.16
-0.31
-0.50
-0.70
-0.95
-1.33
-1.84
-2.42
-2.83
-2.89
-2.48
-1.69
-0.78
-0.04
0.38
0.59
0.81
1.29
2.04
2.90
3.60
3.90
3.74
3.23
2.63
2.17
1.99
2.07
2.25
2.33
2.16
1.69
0.98
0.15
-0.67
-1.39
-2.01
-2.57
-3.06
-3.50
-3.77
-3.85
-3.77
-3.63
-3.54
-3.55
-3.59
-3.47
-3.05
-2.21
-1.01
0.32
1.48
2.23
2.47
2.30
1.95
1.66
1.61
1.86
2.39
3.08
3.85
4.55
5.06
5.26
5.08
4.57
3.78
2.84
1.91
1.09
0.46
0.13
0.12
0.34
0.56
0.49
-0.12
-1.26
-2.66
-3.94
-4.68
-4.67
-4.02
-2.94
-1.69
-0.43
0.81
2.02
3.08
3.84
4.16
3.96
3.42
2.76
2.22
1.91
1.78
1.70
1.55
1.37
1.17
1.05
0.97
0.84
0.61
0.34
0.18
0.26
0.61
1.08
1.38
1.23
0.47
-0.84
-2.45
-3.97
-5.09
-5.55
-5.25
-4.24
-2.71
-0.95
0.72
2.03
2.84
3.18
3.17
2.93
2.55
2.10
1.60
1.13
0.78
0.57
0.46
0.36
0.11
-0.35
-0.97
-1.58
-1.97
-2.00
-1.68
-1.20
-0.79
-0.65
-0.91
-1.58
-2.56
-3.71
-4.80
-5.57
-5.79
-5.31
-4.13
-2.45
-0.55
1.22
2.60
3.51
3.97
4.09
3.99
3.75
3.42
3.05
2.63
2.15
1.56
0.84
-0.01
-0.90
-1.67
-2.19
-2.33
-2.14
-1.68
-1.12
-0.62
-0.35
-0.39
-0.77
-1.45
-2.31
-3.24
-4.08
-4.68
-4.96
-4.87
-4.42
-3.70
-2.85
-1.99
-1.24
-0.67
-0.33
-0.27
-0.45
-0.83
-1.28
-1.69
-1.87
-1.75
-1.37
-0.80
-0.19
0.36
0.82
1.23
1.59
1.93
2.21
2.34
2.25
1.88
1.23
0.30
-0.86
-2.22
-3.66
-5.08
-6.34
-7.33
-7.97
-8.20
-8.02
-7.47
-6.59
-5.47
-4.25
-3.08
-2.11
-1.41
-1.01
-0.88
-0.93
-1.07
-1.19
-1.24
-1.19
-1.05
-0.86
-0.64
-0.40
-0.13
0.18
0.46
0.62
0.57
0.27
-0.26
-0.92
-1.59
-2.15
-2.56
-2.79
-2.85
-2.67
-2.19
-1.34
-0.11
1.40
2.99
4.37
5.36
5.90
6.08
6.06
5.98
5.84
5.58
5.09
4.40
3.60
2.85
2.29
1.94
1.78
1.74
1.80
1.93
2.06
2.06
1.80
1.15
0.12
-1.22
-2.67
-4.08
-5.23
-5.99
-6.24
-5.92
-5.03
-3.66
-1.92
-0.04
1.73
3.12
3.94
4.10
3.72
3.01
2.22
1.52
0.98
0.57
0.30
0.16
0.19
0.39
0.66
0.85
0.82
0.56
0.16
-0.19
-0.37
-0.44
-0.54
-0.90
-1.64
-2.69
-3.79
-4.65
-5.07
-4.99
-4.54
-3.86
-3.03
-2.07
-0.91
0.45
1.89
3.20
4.17
4.66
4.69
4.43
4.09
3.82
3.73
3.79
3.95
4.21
4.52
4.81
4.99
4.95
4.66
4.16
3.54
2.85
2.08
1.16
0.06
-1.13
-2.15
-2.66
-2.44
-1.44
0.16
1.98
3.61
4.82
5.53
5.87
6.06
6.25
6.43
6.51
6.34
5.83
5.09
4.29
3.62
3.12
2.74
2.33
1.85
1.35
1.03
1.03
1.34
1.78
2.04
1.85
1.12
-0.09
-1.53
-2.88
-3.91
-4.50
-4.67
-4.50
-4.10
-3.55
-2.91
-2.21
-1.43
-0.56
0.36
1.28
2.08
2.62
2.79
2.58
2.10
1.53
1.08
0.85
0.87
1.02
1.21
1.39
1.58
1.77
1.93
1.97
1.79
1.40
0.87
0.32
-0.20
-0.75
-1.51
-2.56
-3.82
-4.98
-5.61
-5.41
-4.35
-2.70
-0.93
0.52
1.42
1.81
1.89
1.91
2.01
2.27
2.68
3.21
3.78
4.32
4.68
4.73
4.41
3.74
2.82
1.79
0.82
-0.02
-0.65
-1.04
-1.21
-1.19
-1.11
-1.15
-1.43
-1.98
-2.70
-3.45
-4.11
-4.60
-4.87
-4.85
-4.45
-3.58
-2.26
-0.61
1.08
2.45
3.26
3.39
2.95
2.15
1.31
0.64
0.26
0.12
0.08
0.02
-0.12
-0.29
-0.41
-0.38
-0.24
-0.10
-0.13
-0.47
-1.09
-1.82
-2.48
-2.92
-3.16
-3.34
-3.59
-3.98
-4.43
-4.76
-4.77
-4.35
-3.49
-2.28
-0.86
0.71
2.37
4.07
5.66
6.88
7.46
7.26
6.31
4.86
3.25
1.88
0.93
0.43
0.25
0.18
0.13
0.10
0.15
0.37
0.73
1.08
1.19
0.84
0.02
-1.15
-2.40
-3.51
-4.34
-4.90
-5.28
-5.54
-5.75
-5.82
-5.70
-5.30
-4.57
-3.49
-2.10
-0.49
1.20
2.72
3.84
4.37
4.26
3.64
2.76
1.86
1.16
0.72
0.51
0.45
0.43
0.39
0.34
0.28
0.25
0.28
0.31
0.29
0.13
-0.23
-0.82
-1.59
-2.42
-3.18
-3.68
-3.79
-3.38
-2.42
-0.99
0.68
2.32
3.60
4.37
4.56
4.31
3.79
3.15
2.51
1.91
1.42
1.11
1.06
1.23
1.51
1.73
1.72
1.43
0.95
0.38
-0.20
-0.77
-1.34
-1.94
-2.58
-3.24
-3.91
-4.59
-5.30
-6.02
-6.69
-7.16
-7.33
-7.11
-6.43
-5.24
-3.58
-1.58
0.53
2.40
3.75
4.45
4.55
4.28
3.88
3.50
3.17
2.92
2.72
2.58
2.50
2.47
2.35
2.02
1.46
0.68
-0.18
-1.09
-2.03
-3.07
-4.24
-5.49
-6.70
-7.73
-8.48
-8.93
-9.12
-9.05
-8.66
-7.90
-6.76
-5.38
-3.96
-2.71
-1.71
-0.92
-0.19
0.60
1.41
2.09
2.41
2.32
1.91
1.43
1.12
1.02
1.08
1.12
0.99
0.64
0.17
-0.35
-0.83
-1.25
-1.67
-2.11
-2.59
-3.13
-3.70
-4.30
-4.86
-5.24
-5.29
-4.86
-3.94
-2.62
-1.09
0.48
1.86
2.97
3.65
3.90
3.75
3.31
2.75
2.22
1.88
1.79
1.93
2.21
2.50
2.67
2.59
2.20
1.58
0.86
0.23
-0.13
-0.14
0.07
0.26
0.11
-0.55
-1.72
-3.14
-4.41
-5.10
-4.93
-3.92
-2.28
-0.40
1.38
2.77
3.67
4.05
3.98
3.58
2.99
2.45
2.12
2.10
2.32
2.62
2.83
2.83
2.64
2.37
2.12
1.92
1.63
1.11
0.31
-0.72
-1.78
-2.67
-3.28
-3.60
-3.73
-3.76
-3.74
-3.66
-3.44
-3.03
-2.44
-1.68
-0.75
0.38
1.71
3.22
4.67
5.77
6.30
6.19
5.62
4.89
4.32
4.03
3.96
3.88
3.60
3.09
2.49
2.00
1.78
1.77
1.80
1.69
1.37
0.90
0.43
0.04
-0.34
-0.88
-1.71
-2.82
-3.93
-4.68
-4.69
-3.83
-2.30
-0.47
1.19
2.40
3.10
3.40
3.47
3.41
3.21
2.80
2.18
1.52
1.06
1.03
1.46
2.15
2.79
3.11
3.03
2.65
2.22
1.91
1.73
1.54
1.13
0.37
-0.70
-1.91
-3.01
-3.78
-4.14
-4.08
-3.65
-2.95
-2.00
-0.86
0.41
1.69
2.85
3.74
4.28
4.51
4.53
4.50
4.54
4.66
4.78
4.82
4.74
4.60
4.49
4.40
4.31
4.11
3.73
3.18
2.51
1.77
0.94
0.01
-1.07
-2.26
-3.45
-4.47
-5.23
-5.71
-5.96
-6.03
-5.94
-5.60
-4.91
-3.77
-2.21
-0.41
1.35
2.79
3.72
4.08
3.98
3.57
3.04
2.49
2.00
1.61
1.36
1.27
1.34
1.54
1.79
1.99
2.01
1.74
1.12
0.24
-0.76
-1.66
-2.33
-2.76
-3.05
-3.40
-3.92
-4.59
-5.29
-5.86
-6.17
-6.18
-5.93
-5.44
-4.72
-3.71
-2.39
-0.80
0.86
2.34
3.30
3.54
3.05
2.03
0.85
-0.08
-0.51
-0.38
0.15
0.76
1.10
0.97
0.33
-0.63
-1.62
-2.33
-2.60
-2.48
-2.20
-2.10
-2.34
-2.95
-3.75
-4.51
-5.07
-5.40
-5.55
-5.55
-5.35
-4.81
-3.81
-2.37
-0.64
1.11
2.64
3.78
4.50
4.86
4.98
4.97
4.93
4.89
4.83
4.73
4.57
4.36
4.13
3.91
3.70
3.47
3.19
2.81
2.38
1.98
1.64
1.35
0.92
0.16
-1.07
-2.72
-4.58
-6.31
-7.60
-8.22
-8.13
-7.42
-6.27
-4.84
-3.28
-1.72
-0.24
1.05
2.05
2.71
3.01
3.01
2.80
2.52
2.25
2.00
1.74
1.41
1.02
0.61
0.27
0.14
0.23
0.51
0.87
1.22
1.46
1.53
1.40
1.03
0.41
-0.44
-1.41
-2.39
-3.19
-3.72
-3.91
-3.82
-3.56
-3.21
-2.78
-2.25
-1.57
-0.75
0.06
0.69
0.99
0.93
0.64
0.36
0.28
0.45
0.74
0.91
0.78
0.32
-0.34
-1.02
-1.57
-1.97
-2.31
-2.68
-3.11
-3.55
-3.94
-4.20
-4.36
-4.47
-4.61
-4.80
-4.99
-5.11
-5.07
-4.83
-4.36
-3.73
-2.92
-2.04
-1.20
-0.51
-0.13
-0.12
-0.39
-0.76
-0.99
-0.91
-0.50
0.14
0.87
1.56
2.14
2.64
3.06
3.30
3.28
2.91
2.19
1.28
0.37
-0.42
-1.06
-1.60
-2.13
-2.66
-3.14
-3.46
-3.46
-3.06
-2.28
-1.23
-0.13
0.84
1.55
2.03
2.39
2.76
3.17
3.54
3.71
3.58
3.16
2.61
2.14
1.87
1.80
1.78
1.67
1.40
1.02
0.64
0.35
0.17
-0.01
-0.31
-0.88
-1.81
-3.14
-4.80
-6.63
-8.40
-9.87
-10.77
-10.94
-10.27
-8.81
-6.77
-4.43
-2.18
-0.33
0.99
1.76
2.17
2.39
2.55
2.65
2.60
2.34
1.88
1.38
0.99
0.83
0.85
0.99
1.12
1.22
1.33
1.51
1.77
2.00
2.07
1.87
1.33
0.46
-0.66
-1.89
-3.03
-3.79
-4.01
-3.55
-2.50
-1.08
0.49
2.05
3.52
4.85
5.98
6.80
7.24
7.33
7.17
6.92
6.66
6.38
5.97
5.43
4.82
4.30
4.01
3.94
4.00
4.01
3.86
3.56
3.18
2.79
2.34
1.69
0.75
-0.49
-1.88
-3.16
-4.11
-4.64
-4.81
-4.73
-4.51
-4.17
-3.64
-2.89
-1.93
-0.86
0.17
1.09
1.90
2.66
3.45
4.29
5.13
5.86
6.40
6.67
6.64
6.29
5.63
4.69
3.53
2.26
1.02
-0.01
-0.73
-1.11
-1.28
-1.39
-1.64
-2.13
-2.82
-3.60
-4.31
-4.88
-5.31
-5.65
-5.89
-5.89
-5.48
-4.46
-2.81
-0.69
1.59
3.73
5.53
6.93
8.01
8.89
9.67
10.38
10.98
11.42
11.67
11.67
11.35
10.61
9.38
7.67
5.58
3.29
0.97
-1.21
-3.15
-4.80
-6.18
-7.35
-8.40
-9.45
-10.58
-11.79
-13.03
-14.17
-15.08
-15.63
-15.76
-15.40
-14.55
-13.20
-11.41
-9.35
-7.23
-5.25
-3.52
-2.05
-0.76
0.42
1.54
2.58
3.45
4.10
4.52
4.74
4.80
4.78
4.71
4.63
4.58
4.57
4.57
4.54
4.37
3.99
3.37
2.56
1.66
0.80
0.04
-0.68
-1.51
-2.61
-4.06
-5.76
-7.46
-8.83
-9.54
-9.44
-8.55
-7.02
-5.12
-3.06
-1.03
0.86
2.59
4.20
5.73
7.19
8.52
9.52
10.02
9.83
8.97
7.62
6.07
4.61
3.39
2.39
1.45
0.40
-0.91
-2.53
-4.39
-6.31
-8.04
-9.40
-10.30
-10.84
-11.15
-11.36
-11.50
-11.42
-10.93
-9.86
-8.24
-6.21
-4.07
-2.04
-0.29
1.11
2.25
3.19
4.02
4.75
5.32
5.61
5.56
5.18
4.63
4.15
3.92
3.98
4.22
4.46
4.50
4.26
3.76
3.07
2.30
1.46
0.59
-0.28
-1.09
-1.79
-2.33
-2.73
-2.98
-3.07
-2.95
-2.56
-1.87
-0.96
0.06
1.10
2.14
3.24
4.48
5.89
7.43
8.91
10.08
10.77
10.88
10.41
9.51
8.34
7.07
5.83
4.75
3.88
3.29
2.93
2.72
2.55
2.28
1.85
1.24
0.55
-0.12
-0.63
-0.97
-1.21
-1.49
-1.92
-2.52
-3.17
-3.72
-3.98
-3.84
-3.25
-2.24
-0.87
0.77
2.56
4.38
6.05
7.42
8.38
8.95
9.22
9.38
9.55
9.78
9.99
10.01
9.71
9.02
8.02
6.82
5.55
4.21
2.77
1.14
-0.70
-2.74
-4.93
-7.17
-9.41
-11.59
-13.62
-15.37
-16.68
-17.46
-17.60
-17.08
-15.85
-13.86
-11.11
-7.76
-4.09
-0.54
2.48
4.74
6.21
6.98
7.18
6.81
5.71
3.67
0.67
-3.04
-6.89
-10.17
-12.32
-13.09
-12.69
-11.66
-10.63
-10.14
-10.38
-11.20
-12.21
-12.84
-12.38
-9.94
-4.62
4.22
16.30
30.17
43.24
52.58
55.95
52.71
43.93
31.89
18.96
6.79
-4.09
-13.84
-22.73
-30.59
-36.85
-40.86
-42.40
-41.81
-39.87
-37.38
-34.92
-32.65
-30.47
-28.21
-25.87
-23.61
-21.73
-20.52
-20.19
-20.74
-21.96
-23.43
-24.66
-25.17
-24.71
-23.35
-21.37
-19.02
-16.28
-12.70
-7.66
-0.70
8.17
18.53
29.59
40.63
51.18
61.06
70.22
78.50
85.58
90.97
94.25
95.08
93.46
89.58
83.84
76.71
68.55
59.56
49.70
38.91
27.35
15.67
4.88
-3.85
-9.77
-12.89
-13.99
-14.32
-15.08
-16.90
-19.74
-23.05
-26.23
-28.83
-30.74
-32.02
-32.70
-32.63
-31.59
-29.42
-26.23
-22.45
-18.61
-15.23
-12.47
-10.20
-8.01
-5.51
-2.50
0.95
4.51
7.80
10.46
12.22
12.88
12.27
10.35
7.26
3.38
-0.68
-4.23
-6.80
-8.21
-8.64
-8.49
-8.15
-7.81
-7.48
-7.00
-6.21
-5.00
-3.42
-1.58
0.32
2.09
3.60
4.73
5.49
5.93
6.20
6.43
6.77
7.31
8.06
8.92
9.69
10.15
10.25
10.12
10.13
10.75
12.28
14.78
17.95
21.24
24.10
26.13
27.28
27.78
27.99
28.32
28.98
29.97
31.06
31.89
32.14
31.61
30.26
28.13
25.33
21.97
18.25
14.38
10.64
7.24
4.22
1.48
-1.27
-4.34
-7.93
-12.09
-16.73
-21.64
-26.62
-31.45
-35.89
-39.71
-42.67
-44.64
-45.52
-45.28
-43.91
-41.41
-37.83
-33.26
-27.93
-22.14
-16.23
-10.46
-4.98
0.16
4.97
9.42
13.45
16.99
20.05
22.62
24.72
26.31
27.28
27.52
26.96
25.61
23.56
20.87
17.55
13.49
8.48
2.33
-5.02
-13.39
-22.36
-31.30
-39.54
-46.50
-51.78
-55.28
-57.21
-57.91
-57.77
-57.14
-56.26
-55.25
-54.17
-53.03
-51.79
-50.48
-49.15
-47.89
-46.85
-46.02
-45.25
-44.20
-42.40
-39.54
-35.64
-31.08
-26.53
-22.64
-19.83
-18.25
-17.87
-18.64
-20.63
-23.91
-28.23
-32.96
-37.08
-39.48
-39.46
-36.98
-32.65
-27.46
-22.40
-18.00
-14.26
-10.84
-7.23
-3.11
1.61
6.84
12.26
17.50
22.16
25.98
28.83
30.89
32.48
33.96
35.60
37.42
39.36
41.36
43.60
46.31
49.73
53.73
57.76
61.07
63.10
63.94
64.32
65.35
67.91
72.29
78.06
84.30
90.05
94.65
97.78
99.39
99.59
98.68
97.37
96.77
98.10
102.24
109.10
117.40
124.86
128.92
127.61
120.26
107.72
91.93
75.23
59.53
46.02
35.22
27.45
23.14
22.78
26.58
33.92
43.23
52.30
58.85
61.23
58.54
50.54
37.27
19.04
-3.38
-28.37
-53.50
-75.90
-93.07
-103.58
-107.39
-105.73
-100.68
-94.70
-90.24
-89.44
-93.83
-103.86
-118.68
-136.19
-153.50
-167.73
-176.87
-180.14
-177.99
-171.67
-162.52
-151.69
-139.89
-127.58
-115.15
-103.12
-92.01
-82.26
-73.98
-66.98
-60.92
-55.43
-50.35
-45.60
-41.19
-37.05
-33.03
-28.90
-24.26
-18.65
-11.66
-3.23
6.20
15.51
23.35
28.55
30.63
29.97
27.59
24.72
22.37
21.34
22.21
25.63
32.26
42.40
55.60
70.49
85.04
97.08
104.96
107.94
106.19
100.51
91.94
81.37
69.41
56.55
43.23
30.05
17.74
7.11
-1.29
-7.35
-11.49
-14.55
-17.43
-20.79
-24.74
-28.88
-32.40
-34.42
-34.39
-32.26
-28.53
-24.08
-19.88
-16.57
-14.34
-12.91
-11.71
-10.22
-8.20
-5.75
-3.09
-0.37
2.63
6.37
11.22
17.23
23.85
30.06
34.72
37.07
36.98
34.98
31.98
28.85
26.16
24.06
22.45
21.06
19.53
17.41
14.05
8.90
1.64
-7.44
-17.40
-26.87
-34.41
-39.04
-40.48
-39.10
-35.74
-31.40
-26.97
-23.11
-20.14
-18.05
-16.65
-15.66
-14.83
-14.06
-13.34
-12.70
-12.13
-11.58
-11.04
-10.60
-10.31
-10.19
-10.04
-9.57
-8.49
-6.76
-4.69
-2.86
-1.93
-2.35
-4.16
-6.93
-9.87
-12.15
-13.18
-12.84
-11.42
-9.54
-7.89
-6.95
-6.89
-7.55
-8.56
-9.60
-10.39
-10.79
-10.73
-10.16
-9.00
-7.19
-4.68
-1.63
1.66
4.71
7.05
8.28
8.23
6.99
4.85
2.15
-0.77
-3.61
-6.19
-8.34
-10.03
-11.26
-12.12
-12.76
-13.28
-13.72
-13.98
-13.93
-13.43
-12.40
-10.83
-8.74
-6.29
-3.70
-1.31
0.51
1.50
1.63
1.06
0.19
-0.70
-1.48
-2.27
-3.34
-4.83
-6.70
-8.68
-10.42
-11.70
-12.53
-13.08
-13.56
-14.15
-14.91
-15.82
-16.79
-17.74
-18.59
-19.26
-19.76
-20.14
-20.59
-21.32
-22.41
-23.77
-25.05
-25.79
-25.62
-24.47
-22.62
-20.58
-18.82
-17.58
-16.71
-15.79
-14.29
-11.79
-8.23
-3.79
1.11
5.94
10.18
13.36
15.16
15.55
14.83
13.57
12.41
11.83
11.95
12.51
13.08
13.22
12.67
11.41
9.60
7.49
5.36
3.51
2.17
1.48
1.38
1.62
1.88
1.94
1.81
1.72
1.95
2.68
3.87
5.31
6.76
8.08
9.30
10.54
11.88
13.35
14.84
16.25
17.54
18.83
20.31
22.11
24.21
26.34
28.17
29.36
29.74
29.37
28.44
27.15
25.60
23.73
21.47
18.87
16.14
13.60
11.52
9.97
8.80
7.71
6.49
5.10
3.69
2.52
1.74
1.36
1.21
1.13
0.99
0.82
0.80
1.21
2.34
4.39
7.44
11.26
15.50
19.67
23.38
26.52
29.15
31.46
33.48
35.11
36.07
36.15
35.27
33.50
31.03
28.00
24.58
20.94
17.44
14.48
12.49
11.71
12.05
13.21
14.76
16.33
17.73
18.95
20.04
20.95
21.47
21.26
20.06
17.86
15.04
12.27
10.17
9.08
8.83
8.86
8.55
7.50
5.73
3.60
1.56
-0.11
-1.40
-2.46
-3.46
-4.56
-5.85
-7.45
-9.48
-11.99
-14.92
-18.02
-20.94
-23.38
-25.25
-26.65
-27.89
-29.31
-31.11
-33.35
-35.92
-38.57
-41.02
-42.99
-44.18
-44.37
-43.35
-40.96
-37.09
-31.65
-24.60
-15.88
-5.54
6.22
18.75
30.89
40.94
46.97
47.45
41.83
30.90
16.70
1.93
-10.97
-20.50
-26.42
-29.53
-30.95
-31.65
-32.17
-32.56
-32.73
-32.66
-32.43
-32.16
-31.85
-31.27
-30.07
-27.95
-24.80
-20.86
-16.65
-12.88
-10.22
-9.09
-9.51
-11.06
-13.00
-14.45
-14.73
-13.56
-11.16
-8.22
-5.61
-4.16
-4.32
-6.08
-8.99
-12.38
-15.56
-18.06
-19.78
-20.81
-21.35
-21.53
-21.38
-20.73
-19.43
-17.38
-14.62
-11.37
-8.03
-5.20
-3.52
-3.51
-5.34
-8.55
-12.02
-14.14
-13.30
-8.53
-0.01
10.75
21.25
28.61
30.53
25.91
15.20
0.21
-16.49
-32.30
-45.37
-54.86
-61.07
-64.99
-67.83
-70.39
-72.73
-74.08
-73.14
-68.60
-59.67
-46.52
-30.19
-12.37
5.13
20.80
33.61
43.03
48.85
51.09
49.89
45.70
39.38
32.13
25.44
20.68
18.88
20.42
25.02
31.83
39.72
47.58
54.57
60.09
63.73
65.18
64.11
60.33
53.92
45.38
35.54
25.46
16.03
7.82
0.97
-4.67
-9.42
-13.43
-16.64
-18.79
-19.61
-18.92
-16.82
-13.58
-9.53
-5.00
-0.16
4.84
9.83
14.43
18.21
20.77
21.94
21.91
21.20
20.46
20.23
20.74
21.91
23.43
24.91
26.07
26.84
27.21
27.19
26.59
25.06
22.12
17.43
10.82
2.49
-7.08
-17.25
-27.30
-36.57
-44.51
-50.72
-54.98
-57.25
-57.68
-56.46
-53.79
-49.78
-44.49
-38.00
-30.54
-22.51
-14.40
-6.67
0.32
6.42
11.66
16.18
20.25
24.22
28.47
33.23
38.38
43.23
46.56
47.03
43.60
36.20
25.92
14.72
4.90
-1.82
-4.71
-4.28
-1.80
1.23
3.75
5.21
5.52
4.74
2.84
-0.25
-4.43
-9.12
-13.35
-15.87
-15.72
-12.66
-7.27
-0.85
5.06
9.19
10.90
10.29
8.09
5.29
2.74
0.86
-0.34
-1.19
-2.00
-2.83
-3.36
-3.05
-1.31
2.26
7.71
14.71
22.59
30.48
37.34
42.27
44.58
44.09
41.09
36.31
30.63
24.78
19.24
14.17
9.59
5.42
1.61
-1.87
-5.06
-8.02
-10.83
-13.50
-15.95
-17.98
-19.36
-19.86
-19.42
-18.19
-16.47
-14.67
-13.16
-12.19
-11.85
-12.09
-12.78
-13.73
-14.73
-15.49
-15.70
-15.06
-13.41
-10.79
-7.44
-3.65
0.30
4.19
7.84
11.11
13.77
15.65
16.64
16.79
16.27
15.35
14.22
13.01
11.74
10.40
8.99
7.53
6.13
4.84
3.74
2.86
2.25
1.97
2.00
2.29
2.68
2.92
2.79
2.16
1.06
-0.33
-1.74
-2.90
-3.64
-3.85
-3.53
-2.73
-1.53
-0.07
1.49
2.93
4.05
4.73
4.95
4.76
4.27
3.59
2.78
1.85
0.79
-0.40
-1.69
-3.03
-4.35
-5.57
-6.55
-7.21
-7.43
-7.17
-6.42
-5.26
-3.85
-2.38
-1.04
0.04
0.82
1.43
2.00
2.66
3.38
4.04
4.42
4.40
3.97
3.22
2.31
1.41
0.60
-0.08
-0.62
-1.04
-1.33
-1.58
-1.92
-2.54
-3.61
-5.25
-7.43
-9.95
-12.53
-14.79
-16.37
-17.05
-16.75
-15.53
-13.61
-11.27
-8.78
-6.35
-4.11
-2.15
-0.50
0.81
1.78
2.44
2.83
2.98
2.89
2.53
1.89
1.03
0.09
-0.80
-1.56
-2.26
-3.03
-4.02
-5.29
-6.81
-8.40
-9.95
-11.33
-12.39
-12.91
-12.59
-11.23
-8.85
-5.75
-2.40
0.65
3.08
4.83
6.00
6.82
7.43
7.90
8.27
8.56
8.80
8.97
9.04
8.88
8.47
7.83
7.07
6.32
5.67
5.18
4.75
4.28
3.63
2.69
1.40
-0.15
-1.82
-3.38
-4.56
-5.15
-4.99
-4.05
-2.35
-0.08
2.53
5.16
7.48
9.23
10.29
10.71
10.68
10.40
10.02
9.50
8.76
7.72
6.41
4.99
3.66
2.58
1.70
0.86
-0.15
-1.44
-2.96
-4.49
-5.81
-6.74
-7.33
-7.69
-7.92
-7.98
-7.65
-6.69
-4.94
-2.58
0.03
2.41
4.24
5.43
6.12
6.58
6.95
7.21
7.19
6.72
5.77
4.55
3.39
2.61
2.32
2.43
2.68
2.79
2.60
2.12
1.48
0.76
-0.05
-1.02
-2.25
-3.74
-5.28
-6.63
-7.53
-7.84
-7.60
-6.94
-5.93
-4.58
-2.78
-0.48
2.20
4.91
7.13
8.35
8.32
7.15
5.24
3.12
1.29
0.03
-0.53
-0.39
0.32
1.37
2.41
3.02
2.96
2.23
1.00
-0.40
-1.81
-3.25
-4.90
-6.85
-8.98
-10.94
-12.26
-12.69
-12.15
-10.81
-8.88
-6.51
-3.79
-0.77
2.41
5.47
8.07
9.92
10.87
11.02
10.61
9.95
9.25
8.65
8.14
7.66
7.12
6.45
5.56
4.46
3.17
1.82
0.55
-0.51
-1.33
-2.00
-2.75
-3.84
-5.44
-7.63
-10.22
-12.82
-14.81
-15.56
-14.61
-11.93
-7.97
-3.58
0.35
3.19
4.77
5.37
5.45
5.38
5.25
4.97
4.40
3.58
2.79
2.40
2.69
3.64
4.90
5.93
6.16
5.23
3.09
0.09
-3.25
-6.32
-8.61
-9.86
-10.07
-9.45
-8.32
-7.04
-5.93
-5.17
-4.89
-5.07
-5.58
-6.17
-6.51
-6.25
-5.26
-3.52
-1.24
1.35
4.06
6.78
9.39
11.71
13.49
14.42
14.29
13.09
11.07
8.69
6.44
4.74
3.79
3.55
3.84
4.34
4.70
4.59
3.83
2.36
0.31
-2.03
-4.33
-6.28
-7.69
-8.47
-8.72
-8.56
-8.14
-7.59
-6.94
-6.21
-5.39
-4.45
-3.34
-2.07
-0.67
0.77
2.12
3.21
3.91
4.12
3.85
3.20
2.35
1.49
0.73
0.03
-0.68
-1.50
-2.49
-3.58
-4.75
-5.98
-7.30
-8.72
-10.23
-11.68
-12.91
-13.84
-14.51
-15.01
-15.45
-15.77
-15.77
-15.25
-14.04
-12.17
-9.92
-7.61
-5.62
-4.19
-3.44
-3.33
-3.63
-4.04
-4.24
-3.99
-3.11
-1.65
0.27
2.42
4.53
6.36
7.74
8.61
9.01
9.06
8.85
8.38
7.53
6.09
3.82
0.65
-3.28
-7.63
-11.92
-15.70
-18.60
-20.39
-21.01
-20.49
-19.02
-16.81
-14.17
-11.44
-8.93
-6.93
-5.55
-4.75
-4.31
-3.92
-3.25
-2.08
-0.43
1.39
2.93
3.76
3.66
2.82
1.69
0.83
0.61
1.03
1.76
2.30
2.20
1.27
-0.41
-2.56
-4.81
-6.78
-8.10
-8.45
-7.63
-5.57
-2.42
1.57
5.99
10.37
14.23
17.17
18.98
19.72
19.70
19.40
19.20
19.24
19.38
19.31
18.78
17.79
16.54
15.29
14.20
13.21
12.14
10.84
9.28
7.51
5.57
3.41
0.86
-2.17
-5.56
-8.94
-11.78
-13.53
-13.89
-12.87
-10.77
-8.08
-5.29
-2.70
-0.45
1.55
3.48
5.54
7.73
9.97
12.08
13.92
15.47
16.86
18.20
19.53
20.70
21.47
21.60
21.03
19.88
18.42
16.91
15.53
14.28
13.03
11.60
9.84
7.66
5.17
2.62
0.35
-1.21
-1.81
-1.35
0.07
2.14
4.53
6.96
9.24
11.20
12.71
13.66
14.07
14.13
14.13
14.37
15.01
15.91
16.69
16.88
16.14
14.39
11.88
8.99
6.15
3.64
1.53
-0.39
-2.43
-4.85
-7.65
-10.52
-12.92
-14.23
-14.07
-12.43
-9.69
-6.48
-3.39
-0.75
1.39
3.28
5.21
7.35
9.62
11.73
13.28
13.90
13.44
11.99
9.82
7.30
4.75
2.43
0.54
-0.85
-1.83
-2.68
-3.82
-5.75
-8.69
-12.63
-17.18
-21.77
-25.82
-28.87
-30.50
-30.33
-28.06
-23.44
-16.56
-7.93
1.55
10.72
18.42
23.79
26.44
26.48
24.52
21.34
17.74
14.25
11.09
8.19
5.43
2.74
0.23
-1.87
-3.43
-4.48
-5.26
-6.15
-7.49
-9.48
-12.16
-15.29
-18.37
-20.70
-21.48
-20.02
-16.02
-9.79
-2.11
5.92
13.24
19.09
23.06
25.08
25.27
23.87
21.24
17.79
13.97
10.15
6.61
3.46
0.78
-1.39
-2.94
-3.80
-3.94
-3.50
-2.76
-1.98
-1.41
-1.17
-1.23
-1.52
-2.03
-2.76
-3.72
-4.79
-5.69
-6.08
-5.59
-4.12
-1.80
0.92
3.52
5.54
6.74
7.13
6.83
6.07
5.03
3.88
2.71
1.62
0.64
-0.19
-0.86
-1.40
-1.85
-2.24
-2.66
-3.18
-3.87
-4.80
-5.94
-7.20
-8.37
-9.18
-9.33
-8.61
-7.04
-4.81
-2.31
0.08
2.10
3.67
4.85
5.73
6.34
6.66
6.66
6.35
5.84
5.26
4.69
4.08
3.25
2.00
0.22
-2.01
-4.46
-6.78
-8.71
-10.12
-11.10
-11.93
-12.87
-14.17
-15.87
-17.86
-19.94
-21.80
-23.18
-23.86
-23.74
-22.84
-21.38
-19.77
-18.42
-17.76
-17.96
-19.01
-20.66
-22.64
-24.83
-27.25
-30.07
-33.51
-37.65
-42.47
-47.81
-53.50
-59.46
-65.65
-72.01
-78.53
-85.16
-91.93
-98.92
-106.27
-114.10
-122.45
-131.28
-140.47
-149.95
-159.74
-169.97
-180.71
-191.73
-202.26
-210.88
-215.54
-213.93
-204.03
-184.63
-155.88
-119.42
-78.23
-36.03
3.49
37.49
64.57
84.81
99.45
110.08
118.02
123.80
127.36
128.39
126.87
123.27
118.40
112.97
107.18
100.73
93.10
84.16
74.40
64.91
56.94
51.27
47.91
46.05
44.41
41.73
37.37
31.48
24.97
19.21
15.71
15.86
20.66
30.46
44.76
62.03
79.96
95.86
107.45
113.55
114.44
111.58
107.04
102.69
99.60
98.05
97.79
98.44
99.71
101.43
103.37
105.23
106.71
107.56
107.73
107.21
105.93
103.66
100.09
95.10
88.84
81.72
74.05
65.95
57.19
47.47
36.71
25.27
13.94
3.67
-4.78
-11.06
-15.17
-17.36
-17.88
-16.94
-14.76
-11.64
-8.07
-4.71
-2.26
-1.28
-2.10
-4.68
-8.55
-12.98
-17.16
-20.48
-22.74
-24.12
-25.08
-26.08
-27.37
-28.91
-30.45
-31.71
-32.51
-32.84
-32.82
-32.53
-31.87
-30.59
-28.33
-24.89
-20.32
-15.03
-9.66
-4.89
-1.23
1.10
2.24
2.50
2.28
1.96
1.86
2.18
2.98
4.21
5.74
7.36
8.89
10.15
11.01
11.31
10.91
9.69
7.72
5.24
2.68
0.43
-1.27
-2.39
-3.07
-3.48
-3.66
-3.48
-2.81
-1.57
0.12
2.05
4.02
5.88
7.59
9.12
10.43
11.38
11.84
11.71
10.99
9.82
8.37
6.78
5.11
3.40
1.64
-0.08
-1.65
-2.95
-3.90
-4.59
-5.18
-5.91
-6.97
-8.44
-10.21
-12.05
-13.66
-14.71
-15.00
-14.47
-13.22
-11.47
-9.48
-7.46
-5.53
-3.71
-1.96
-0.27
1.31
2.72
3.80
4.37
4.38
3.86
2.98
2.00
1.15
0.61
0.35
0.28
0.25
0.21
0.13
0.00
-0.22
-0.70
-1.54
-2.80
-4.35
-5.96
-7.36
-8.34
-8.81
-8.71
-8.07
-6.95
-5.49
-3.92
-2.43
-1.20
-0.21
0.62
1.44
2.30
3.11
3.78
4.24
4.54
4.82
5.23
5.74
6.24
6.53
6.49
6.10
5.47
4.73
3.96
3.17
2.30
1.33
0.26
-0.84
-1.85
-2.65
-3.09
-2.98
-2.16
-0.57
1.71
4.43
7.27
9.91
12.14
13.96
15.54
17.13
18.91
20.90
22.93
24.73
26.07
26.81
26.89
26.27
24.92
22.80
19.90
16.37
12.38
8.20
3.92
-0.37
-4.68
-8.90
-12.78
-16.04
-18.44
-19.99
-20.92
-21.62
-22.45
-23.69
-25.31
-27.07
-28.55
-29.32
-29.12
-27.94
-26.02
-23.71
-21.34
-19.05
-16.84
-14.67
-12.60
-10.90
-9.88
-9.72
-10.36
-11.46
-12.57
-13.32
-13.60
-13.53
-13.39
-13.40
-13.67
-14.11
-14.51
-14.71
-14.65
-14.36
-13.93
-13.38
-12.63
-11.48
-9.74
-7.30
-4.23
-0.73
2.91
6.42
9.55
12.11
13.95
15.10
15.69
15.95
16.17
16.49
17.00
17.64
18.32
18.91
19.29
19.28
18.77
17.77
16.48
15.33
14.70
14.81
15.55
16.53
17.32
17.71
17.83
18.05
18.67
19.71
20.81
21.53
21.61
21.17
20.71
20.75
21.54
22.86
24.14
24.81
24.67
23.98
23.40
23.57
24.89
27.29
30.32
33.29
35.50
36.47
36.12
34.92
33.80
33.90
36.04
40.35
45.99
51.50
55.39
56.86
56.34
55.34
55.79
59.04
64.95
71.63
75.74
73.63
62.54
41.82
13.48
-17.85
-45.80
-63.70
-66.40
-51.77
-21.69
18.04
59.06
92.45
110.90
110.35
90.31
53.12
2.63
-57.23
-123.43
-193.96
-267.10
-340.12
-408.29
-464.82
-502.32
-515.04
-501.17
-463.64
-409.04
-345.12
-278.00
-210.96
-145.03
-81.06
-21.50
29.36
67.00
89.13
97.26
96.40
92.90
91.66
94.33
99.21
102.84
102.43
97.54
90.26
84.02
81.75
84.49
91.11
99.08
105.71
109.20
108.97
105.30
98.93
90.89
82.56
75.67
71.88
72.11
75.82
81.08
85.31
86.59
84.63
80.82
77.34
75.95
77.37
81.43
87.79
96.47
107.80
121.69
136.86
150.69
159.87
161.64
154.85
140.39
120.73
98.92
77.69
58.77
42.88
29.89
19.21
10.07
1.75
-6.38
-14.74
-23.49
-32.65
-42.26
-52.70
-64.84
-79.88
-98.62
-120.74
-144.39
-166.55
-184.08
-194.87
-198.59
-196.56
-190.95
-183.73
-176.03
-168.09
-159.42
-149.03
-135.50
-117.02
-91.90
-59.26
-19.94
23.27
66.04
103.61
131.96
148.67
153.09
146.11
129.53
105.54
76.41
44.39
11.65
-19.73
-47.78
-70.76
-87.47
-97.39
-100.95
-99.31
-94.15
-87.16
-79.64
-72.34
-65.56
-59.36
-53.80
-49.05
-45.31
-42.76
-41.43
-41.22
-41.92
-43.33
-45.40
-48.16
-51.63
-55.69
-59.91
-63.59
-65.88
-66.07
-63.84
-59.37
-53.26
-46.30
-39.21
-32.48
-26.27
-20.59
-15.46
-10.88
-6.93
-3.58
-0.70
1.86
4.17
6.10
7.31
7.50
6.53
4.63
2.39
0.50
-0.44
-0.15
1.27
3.55
6.39
9.71
13.60
18.27
23.76
29.86
36.12
41.95
46.85
50.49
52.71
53.45
52.65
50.24
46.25
40.93
34.75
28.36
22.36
17.14
12.87
9.49
6.87
4.90
3.47
2.47
1.78
1.26
0.79
0.30
-0.16
-0.48
-0.56
-0.36
0.03
0.45
0.70
0.64
0.21
-0.50
-1.34
-2.17
-2.90
-3.56
-4.22
-4.97
-5.85
-6.85
-7.96
-9.11
-10.23
-11.17
-11.71
-11.63
-10.78
-9.12
-6.74
-3.86
-0.68
2.57
5.66
8.35
10.42
11.67
12.09
11.70
10.58
8.72
6.13
2.89
-0.71
-4.10
-6.66
-7.89
-7.68
-6.26
-4.16
-1.87
0.20
1.86
3.06
3.79
4.11
4.18
4.21
4.44
4.99
5.79
6.57
7.02
6.87
6.07
4.74
3.08
1.33
-0.37
-1.93
-3.29
-4.30
-4.75
-4.32
-2.67
0.55
5.62
12.64
21.39
31.32
41.50
50.86
58.40
63.42
65.63
65.15
62.30
57.48
51.13
43.73
35.82
27.94
20.50
13.63
7.23
1.08
-4.85
-10.42
-15.23
-18.88
-21.11
-21.91
-21.46
-19.99
-17.72
-14.86
-11.56
-7.92
-3.99
0.23
4.68
9.17
13.31
16.62
18.69
19.34
18.72
17.15
15.04
12.73
10.41
8.14
6.02
4.12
2.47
1.03
-0.42
-2.19
-4.50
-7.40
-10.70
-14.05
-17.01
-19.19
-20.36
-20.36
-19.10
-16.50
-12.49
-7.22
-1.06
5.37
11.28
16.02
19.14
20.52
20.28
18.66
15.97
12.58
8.90
5.40
2.54
0.61
-0.33
-0.52
-0.33
-0.05
0.17
0.39
0.80
1.53
2.57
3.71
4.63
5.00
4.69
3.72
2.28
0.62
-0.98
-2.26
-2.98
-2.91
-1.95
-0.18
2.06
4.25
5.78
6.22
5.53
4.00
2.20
0.63
-0.38
-0.76
-0.62
-0.05
0.94
2.44
4.46
6.90
9.44
11.70
13.36
14.22
14.28
13.64
12.40
10.63
8.41
5.84
3.05
0.22
-2.48
-4.91
-6.95
-8.50
-9.44
-9.67
-9.20
-8.19
-6.94
-5.83
-5.13
-4.90
-4.97
-4.99
-4.70
-3.95
-2.77
-1.34
0.17
1.68
3.12
4.42
5.43
5.95
5.81
4.88
3.20
0.89
-1.88
-4.85
-7.82
-10.47
-12.53
-13.69
-13.70
-12.45
-10.03
-6.75
-3.07
0.48
3.47
5.58
6.73
6.96
6.44
5.36
4.00
2.69
1.78
1.54
2.02
2.99
4.04
4.77
4.87
4.27
3.08
1.46
-0.50
-2.73
-5.28
-8.12
-11.00
-13.55
-15.31
-15.89
-15.12
-13.07
-10.06
-6.45
-2.63
1.18
4.80
8.05
10.68
12.42
13.07
12.67
11.45
9.81
8.12
6.63
5.40
4.37
3.43
2.58
1.83
1.25
0.87
0.66
0.53
0.33
-0.11
-0.96
-2.29
-4.01
-5.82
-7.32
-8.09
-7.93
-6.90
-5.20
-3.15
-0.91
1.44
3.89
6.37
8.72
10.64
11.90
12.40
12.17
11.37
10.18
8.74
7.17
5.58
4.09
2.83
1.87
1.18
0.75
0.46
0.19
-0.16
-0.70
-1.46
-2.37
-3.26
-3.90
-4.11
-3.84
-3.15
-2.13
-0.92
0.43
1.88
3.39
4.91
6.36
7.53
8.22
8.29
7.71
6.62
5.26
3.87
2.59
1.42
0.24
-1.02
-2.32
-3.53
-4.45
-5.01
-5.31
-5.60
-6.07
-6.81
-7.67
-8.34
-8.48
-7.84
-6.42
-4.40
-2.07
0.31
2.54
4.51
6.13
7.37
8.16
8.49
8.40
7.96
7.27
6.43
5.49
4.58
3.81
3.35
3.27
3.57
4.14
4.82
5.51
6.16
6.72
7.08
7.06
6.48
5.33
3.78
2.27
1.22
1.00
1.70
3.13
4.97
6.94
8.86
10.65
12.29
13.68
14.67
15.09
14.84
13.98
12.71
11.34
10.13
9.26
8.75
8.52
8.42
8.34
8.21
8.02
7.78
7.45
6.89
5.93
4.42
2.38
0.01
-2.26
-3.96
-4.68
-4.20
-2.58
-0.05
2.96
6.01
8.68
10.72
11.98
12.41
12.11
11.27
10.19
9.19
8.51
8.22
8.17
8.02
7.46
6.32
4.64
2.64
0.51
-1.71
-4.16
-7.02
-10.34
-13.89
-17.27
-19.95
-21.58
-22.02
-21.37
-19.82
-17.60
-14.90
-11.92
-8.86
-5.93
-3.32
-1.14
0.52
1.60
2.05
1.84
1.00
-0.40
-2.18
-4.19
-6.20
-8.07
-9.65
-10.85
-11.63
-12.02
-12.18
-12.29
-12.58
-13.13
-13.88
-14.64
-15.08
-14.97
-14.18
-12.80
-11.02
-9.05
-7.01
-4.96
-2.88
-0.71
1.56
3.89
6.18
8.23
9.79
10.60
10.51
9.53
7.93
6.11
4.53
3.48
3.06
3.17
3.59
4.07
4.35
4.18
3.40
1.98
0.05
-2.07
-3.95
-5.25
-5.81
-5.70
-5.18
-4.55
-4.04
-3.75
-3.63
-3.59
-3.46
-3.14
-2.51
-1.54
-0.26
1.30
3.06
4.86
6.55
7.90
8.75
8.98
8.59
7.69
6.48
5.17
3.88
2.62
1.32
-0.07
-1.53
-2.90
-3.87
-4.09
-3.32
-1.51
1.14
4.21
7.24
9.84
11.77
12.99
13.51
13.42
12.76
11.63
10.15
8.50
6.87
5.36
4.05
2.91
1.89
0.95
0.11
-0.66
-1.35
-1.97
-2.56
-3.09
-3.56
-3.87
-3.92
-3.63
-2.95
-1.87
-0.45
1.17
2.79
4.26
5.46
6.41
7.13
7.71
8.15
8.38
8.37
8.09
7.61
7.02
6.37
5.54
4.39
2.80
0.79
-1.42
-3.53
-5.33
-6.77
-7.98
-9.15
-10.33
-11.37
-12.05
-12.06
-11.31
-9.88
-8.07
-6.17
-4.36
-2.71
-1.09
0.57
2.20
3.59
4.47
4.68
4.26
3.41
2.40
1.34
0.18
-1.21
-2.89
-4.67
-6.20
-7.16
-7.42
-7.15
-6.66
-6.19
-5.68
-4.86
-3.46
-1.37
1.24
4.05
6.80
9.47
12.20
15.20
18.52
21.96
25.20
27.91
29.80
30.70
30.50
29.21
27.00
24.24
21.42
18.96
17.07
15.57
14.13
12.39
10.25
7.89
5.60
3.57
1.71
-0.28
-2.78
-5.91
-9.57
-13.35
-16.77
-19.43
-21.15
-21.92
-21.83
-21.05
-19.71
-17.95
-15.96
-14.01
-12.36
-11.18
-10.43
-9.87
-9.15
-8.02
-6.43
-4.60
-2.88
-1.57
-0.81
-0.50
-0.45
-0.53
-0.69
-1.01
-1.59
-2.47
-3.62
-4.96
-6.45
-7.95
-9.38
-10.56
-11.35
-11.62
-11.29
-10.38
-9.01
-7.32
-5.44
-3.52
-1.67
-0.02
1.33
2.26
2.68
2.54
1.84
0.74
-0.52
-1.61
-2.19
-2.12
-1.41
-0.34
0.73
1.50
1.84
1.86
1.79
1.85
2.00
2.02
1.57
0.37
-1.66
-4.35
-7.35
-10.26
-12.72
-14.46
-15.29
-15.17
-14.20
-12.58
-10.61
-8.51
-6.46
-4.49
-2.57
-0.64
1.30
3.26
5.22
7.21
9.26
11.34
13.37
15.17
16.52
17.20
17.10
16.18
14.59
12.59
10.48
8.55
6.91
5.48
3.99
2.19
-0.05
-2.65
-5.28
-7.55
-9.16
-9.98
-10.04
-9.45
-8.32
-6.76
-4.92
-2.95
-1.11
0.42
1.48
2.03
2.13
1.88
1.40
0.83
0.33
0.06
0.19
0.72
1.58
2.63
3.68
4.64
5.45
6.07
6.46
6.59
6.49
6.22
5.90
5.55
5.05
4.19
2.79
0.87
-1.36
-3.49
-5.09
-5.86
-5.70
-4.70
-3.07
-1.08
0.99
2.93
4.51
5.56
5.97
5.70
4.89
3.81
2.82
2.27
2.35
3.00
3.93
4.71
4.94
4.45
3.26
1.55
-0.46
-2.66
-5.03
-7.56
-10.22
-12.95
-15.62
-18.16
-20.55
-22.77
-24.70
-26.10
-26.62
-25.95
-23.94
-20.71
-16.72
-12.54
-8.70
-5.49
-2.95
-0.89
0.91
2.53
3.91
4.84
5.08
4.54
3.27
1.47
-0.61
-2.72
-4.65
-6.23
-7.32
-7.87
-7.89
-7.52
-6.93
-6.33
-5.99
-6.17
-7.08
-8.83
-11.38
-14.52
-17.96
-21.41
-24.66
-27.52
-29.80
-31.17
-31.26
-29.75
-26.49
-21.64
-15.65
-9.08
-2.42
3.94
9.89
15.32
20.22
24.52
28.11
30.90
32.82
33.83
33.95
33.22
31.73
29.68
27.29
24.75
22.24
19.86
17.65
15.67
13.99
12.63
11.58
10.72
9.87
8.91
7.78
6.54
5.28
4.12
3.12
2.34
1.87
1.83
2.39
3.59
5.29
7.14
8.69
9.58
9.67
9.07
8.04
6.89
5.77
4.72
3.72
2.80
2.08
1.71
1.79
2.27
2.97
3.65
4.17
4.50
4.70
4.82
4.79
4.49
3.84
2.93
2.00
1.38
1.28
1.65
2.15
2.31
1.79
0.55
-1.02
-2.36
-2.87
-2.30
-0.79
1.18
3.02
4.19
4.45
3.72
2.13
-0.09
-2.61
-5.03
-6.90
-7.81
-7.57
-6.28
-4.44
-2.60
-1.25
-0.62
-0.62
-0.97
-1.42
-1.73
-1.76
-1.44
-0.65
0.62
2.34
4.39
6.59
8.80
10.97
13.11
15.26
17.37
19.23
20.59
21.19
20.88
19.73
17.98
15.97
14.06
12.51
11.38
10.58
9.88
8.98
7.70
5.95
3.72
1.13
-1.68
-4.56
-7.31
-9.71
-11.57
-12.76
-13.25
-13.21
-12.80
-12.20
-11.38
-10.23
-8.54
-6.22
-3.30
-0.06
3.13
5.92
8.06
9.39
9.85
9.44
8.27
6.62
4.86
3.45
2.69
2.62
3.05
3.58
3.87
3.71
3.11
2.22
1.25
0.44
-0.05
-0.18
-0.02
0.20
0.22
-0.17
-1.03
-2.16
-3.27
-4.10
-4.57
-4.75
-4.83
-4.92
-5.08
-5.26
-5.45
-5.67
-5.98
-6.38
-6.87
-7.32
-7.65
-7.84
-7.84
-7.66
-7.29
-6.74
-6.07
-5.41
-4.96
-4.84
-5.15
-5.86
-6.93
-8.29
-9.89
-11.69
-13.57
-15.36
-16.81
-17.69
-17.84
-17.23
-15.92
-14.07
-11.90
-9.62
-7.47
-5.65
-4.31
-3.52
-3.27
-3.48
-4.02
-4.75
-5.52
-6.25
-6.89
-7.47
-8.05
-8.70
-9.49
-10.43
-11.53
-12.82
-14.32
-16.09
-18.12
-20.26
-22.22
-23.57
-23.90
-22.90
-20.34
-16.12
-10.15
-2.46
6.72
16.93
27.52
37.75
47.03
54.96
61.46
66.64
70.79
74.31
77.63
81.25
85.57
90.76
96.69
102.88
108.74
113.74
117.71
120.80
123.51
126.35
129.65
133.32
136.76
139.02
138.93
135.43
127.79
116.04
101.14
84.86
69.42
56.72
47.62
41.56
36.82
31.24
23.16
12.05
-1.63
-16.86
-32.81
-49.21
-66.29
-84.37
-103.31
-122.31
-140.09
-155.14
-166.15
-172.23
-173.10
-169.13
-161.31
-151.17
-140.56
-131.50
-125.75
-124.44
-127.61
-133.96
-140.90
-145.05
-143.32
-133.86
-116.88
-94.63
-70.69
-48.68
-31.23
-19.28
-12.32
-9.00
-7.89
-7.95
-8.55
-9.33
-10.00
-10.27
-9.92
-9.03
-7.88
-6.87
-6.27
-6.01
-5.79
-5.11
-3.65
-1.42
1.13
3.34
4.59
4.48
3.12
0.96
-1.31
-3.02
-3.77
-3.50
-2.44
-0.91
0.73
2.22
3.41
4.21
4.53
4.25
3.29
1.65
-0.53
-2.95
-5.18
-6.79
-7.38
-6.76
-4.94
-2.18
1.10
4.41
7.31
9.56
11.04
11.77
11.82
11.15
9.76
7.69
5.14
2.47
0.13
-1.59
-2.58
-2.92
-2.78
-2.18
-0.99
0.93
3.63
6.87
10.13
12.86
14.64
15.32
14.99
13.90
12.28
10.36
8.34
6.40
4.71
3.30
2.11
1.00
-0.12
-1.27
-2.38
-3.41
-4.39
-5.48
-6.80
-8.34
-9.92
-11.21
-11.85
-11.60
-10.37
-8.27
-5.55
-2.60
0.24
2.67
4.59
6.04
7.27
8.52
10.00
11.73
13.55
15.18
16.37
17.00
17.09
16.78
16.18
15.32
14.16
12.71
11.03
9.29
7.62
6.13
4.79
3.51
2.17
0.76
-0.58
-1.61
-2.12
-1.95
-1.06
0.48
2.53
4.84
7.17
9.20
10.70
11.44
11.26
10.08
7.96
5.16
2.08
-0.73
-2.74
-3.66
-3.52
-2.65
-1.52
-0.50
0.22
0.69
0.99
1.15
1.05
0.50
-0.67
-2.44
-4.65
-6.93
-8.94
-10.35
-11.02
-10.90
-10.05
-8.53
-6.46
-3.96
-1.15
1.81
4.73
7.39
9.53
10.92
11.45
11.14
10.21
8.95
7.65
6.45
5.38
4.42
3.57
2.99
2.82
3.15
3.88
4.73
5.37
5.52
4.98
3.76
1.91
-0.38
-2.86
-5.19
-7.08
-8.29
-8.75
-8.56
-7.79
-6.53
-4.80
-2.65
-0.21
2.22
4.37
6.02
7.14
7.85
8.34
8.75
9.07
9.25
9.15
8.70
7.88
6.72
5.23
3.48
1.47
-0.77
-3.20
-5.80
-8.57
-11.48
-14.45
-17.26
-19.59
-21.07
-21.34
-20.22
-17.77
-14.23
-9.91
-5.22
-0.48
4.00
7.90
10.91
12.78
13.40
12.83
11.36
9.38
7.28
5.38
3.86
2.77
2.14
1.92
2.09
2.53
3.07
3.57
3.88
3.94
3.71
3.18
2.25
0.82
-1.15
-3.53
-5.99
-8.04
-9.29
-9.48
-8.66
-7.13
-5.31
-3.60
-2.29
-1.54
-1.37
-1.76
-2.60
-3.70
-4.87
-5.91
-6.74
-7.36
-7.81
-8.19
-8.57
-8.94
-9.26
-9.48
-9.60
-9.69
-9.91
-10.42
-11.35
-12.76
-14.65
-16.96
-19.59
-22.43
-25.37
-28.32
-31.16
-33.76
-35.98
-37.68
-38.79
-39.37
-39.46
-39.20
-38.76
-38.26
-37.84
-37.51
-37.14
-36.43
-34.88
-31.91
-27.03
-20.01
-10.99
-0.45
10.97
22.62
33.97
44.50
53.67
60.95
65.82
68.11
67.96
65.86
62.43
58.15
53.30
47.99
42.29
36.37
30.58
25.32
20.99
17.90
16.19
15.90
16.87
18.78
21.13
23.37
25.03
25.83
25.70
24.78
23.29
21.43
19.39
17.33
15.50
14.06
13.10
12.47
11.82
10.70
8.73
5.88
2.42
-1.12
-4.19
-6.42
-7.72
-8.33
-8.61
-8.88
-9.27
-9.67
-9.80
-9.32
-8.04
-5.91
-3.13
0.08
3.50
6.99
10.35
13.32
15.60
16.88
17.06
16.35
15.19
14.12
13.47
13.27
13.28
13.15
12.66
11.73
10.49
9.04
7.40
5.53
3.44
1.21
-0.94
-2.78
-4.14
-4.91
-5.10
-4.85
-4.31
-3.69
-3.21
-3.01
-3.16
-3.57
-4.04
-4.38
-4.47
-4.31
-4.05
-3.89
-4.07
-4.69
-5.76
-7.12
-8.58
-9.98
-11.33
-12.73
-14.33
-16.11
-17.89
-19.28
-19.87
-19.43
-17.92
-15.56
-12.69
-9.64
-6.71
-4.11
-1.96
-0.24
1.14
2.36
3.58
4.85
6.12
7.29
8.26
8.97
9.34
9.32
8.76
7.57
5.72
3.40
0.92
-1.37
-3.23
-4.66
-5.87
-7.05
-8.27
-9.37
-10.00
-9.79
-8.51
-6.25
-3.40
-0.49
2.02
3.88
5.16
6.05
6.79
7.44
7.97
8.23
8.21
8.00
7.76
7.62
7.53
7.29
6.66
5.59
4.28
3.06
2.21
1.76
1.50
1.03
0.01
-1.62
-3.68
-5.77
-7.44
-8.40
-8.48
-7.68
-6.13
-3.99
-1.54
0.93
3.08
4.68
5.62
5.93
5.75
5.22
4.40
3.25
1.74
-0.14
-2.20
-4.11
-5.55
-6.34
-6.48
-6.18
-5.70
-5.28
-5.00
-4.82
-4.69
-4.57
-4.54
-4.74
-5.28
-6.17
-7.31
-8.55
-9.67
-10.50
-10.89
-10.67
-9.71
-7.90
-5.15
-1.50
2.81
7.39
11.68
15.13
17.40
18.32
18.08
17.03
15.56
13.95
12.32
10.69
9.04
7.43
5.88
4.44
3.03
1.50
-0.30
-2.41
-4.77
-7.20
-9.48
-11.48
-13.06
-14.12
-14.60
-14.37
-13.33
-11.47
-8.79
-5.35
-1.27
3.28
7.98
12.38
16.07
18.72
20.20
20.55
19.95
18.53
16.30
13.30
9.63
5.68
2.00
-0.87
-2.70
-3.66
-4.31
-5.24
-6.82
-9.01
-11.38
-13.44
-14.89
-15.80
-16.60
-17.88
-20.05
-23.21
-27.17
-31.48
-35.68
-39.36
-42.20
-43.95
-44.42
-43.55
-41.51
-38.70
-35.64
-32.84
-30.56
-28.76
-27.19
-25.47
-23.30
-20.43
-16.73
-12.15
-6.81
-1.10
4.37
8.85
11.70
12.56
11.52
9.02
5.69
2.15
-1.24
-4.36
-7.28
-10.23
-13.41
-16.92
-20.80
-24.88
-28.83
-32.28
-34.91
-36.57
-37.36
-37.54
-37.39
-37.10
-36.67
-35.86
-34.28
-31.28
-26.04
-17.66
-5.52
10.40
29.15
48.83
66.97
80.91
88.39
87.73
77.94
58.88
31.56
-1.45
-35.99
-66.79
-88.59
-97.54
-92.36
-74.61
-48.14
-17.93
11.32
36.11
54.60
66.40
72.18
73.06
70.27
65.01
58.45
51.71
45.78
41.30
38.41
36.65
35.25
33.50
31.07
28.15
25.34
23.21
22.20
22.44
23.83
26.24
29.51
33.46
37.73
41.85
45.32
47.74
48.95
49.03
48.25
46.91
45.32
43.73
42.41
41.59
41.49
42.21
43.58
45.19
46.36
46.37
44.64
41.03
35.81
29.61
23.04
16.50
10.06
3.55
-3.15
-9.91
-16.41
-22.28
-27.32
-31.59
-35.43
-39.15
-42.98
-46.83
-50.50
-53.64
-55.85
-56.83
-56.34
-54.41
-51.39
-47.97
-44.85
-42.59
-41.26
-40.49
-39.68
-38.35
-36.38
-34.00
-31.63
-29.57
-27.87
-26.37
-24.85
-23.16
-21.34
-19.48
-17.65
-15.82
-13.83
-11.54
-8.89
-5.99
-3.03
-0.25
2.19
4.19
5.68
6.64
6.99
6.68
5.67
4.07
2.15
0.27
-1.18
-2.01
-2.23
-2.01
-1.53
-0.87
-0.03
1.02
2.23
3.39
4.24
4.58
4.38
3.80
3.09
2.44
1.98
1.80
1.99
2.61
3.72
5.17
6.68
7.87
8.40
8.18
7.28
5.99
4.56
3.21
1.99
0.87
-0.19
-1.21
-2.23
-3.24
-4.30
-5.45
-6.69
-7.94
-8.97
-9.54
-9.48
-8.76
-7.57
-6.18
-4.82
-3.60
-2.49
-1.40
-0.28
0.75
1.51
1.78
1.48
0.74
-0.20
-1.04
-1.59
-1.80
-1.78
-1.68
-1.65
-1.74
-1.92
-2.16
-2.52
-3.06
-3.84
-4.86
-5.99
-7.06
-7.90
-8.42
-8.63
-8.63
-8.49
-8.17
-7.52
-6.40
-4.72
-2.55
-0.07
2.51
5.03
7.47
9.82
12.06
14.03
15.56
16.51
16.95
17.14
17.40
18.04
19.07
20.31
21.45
22.17
22.32
21.95
21.21
20.31
19.38
18.44
17.41
16.22
14.83
13.35
12.00
11.02
10.60
10.79
11.53
12.63
13.96
15.35
16.69
17.88
18.81
19.39
19.56
19.32
18.74
17.87
16.83
15.68
14.46
13.09
11.50
9.54
7.11
4.19
0.92
-2.42
-5.49
-7.94
-9.62
-10.49
-10.69
-10.39
-9.70
-8.63
-7.14
-5.16
-2.74
-0.08
2.51
4.68
6.16
6.87
6.94
6.68
6.41
6.27
6.19
5.94
5.23
4.02
2.52
1.19
0.45
0.47
1.11
2.01
2.82
3.36
3.64
3.78
3.77
3.42
2.51
0.87
-1.34
-3.75
-5.87
-7.33
-8.01
-8.04
-7.65
-7.06
-6.38
-5.70
-5.07
-4.63
-4.44
-4.52
-4.80
-5.10
-5.28
-5.21
-4.87
-4.26
-3.47
-2.60
-1.78
-1.09
-0.61
-0.33
-0.24
-0.31
-0.53
-0.96
-1.66
-2.64
-3.80
-4.96
-5.83
-6.14
-5.68
-4.37
-2.29
0.34
3.21
6.02
8.55
10.71
12.47
13.91
15.05
15.89
16.39
16.50
16.22
15.65
14.88
14.00
12.98
11.71
10.06
8.03
5.79
3.60
1.75
0.33
-0.74
-1.71
-2.74
-3.84
-4.81
-5.38
-5.38
-4.75
-3.61
-2.08
-0.26
1.75
3.83
5.78
7.40
8.58
9.29
9.50
9.11
7.87
5.54
2.04
-2.35
-7.06
-11.36
-14.64
-16.66
-17.64
-18.19
-19.13
-21.24
-25.07
-30.68
-37.58
-44.78
-51.10
-55.47
-57.31
-56.60
-53.72
-49.24
-43.62
-37.04
-29.48
-20.85
-11.20
-0.92
9.18
18.12
24.93
29.11
30.81
30.82
30.23
29.99
30.52
31.67
32.98
33.94
33.92
32.10
27.54
19.67
9.02
-2.45
-11.79
-16.31
-14.98
-9.16
-1.94
3.41
5.04
3.29
0.10
-2.46
-3.38
-3.18
-3.14
-4.27
-6.53
-8.93
-10.23
-9.71
-7.53
-4.58
-1.94
-0.36
0.16
0.17
0.33
1.15
2.68
4.63
6.59
8.27
9.59
10.62
11.51
12.30
13.02
13.57
13.79
13.54
12.64
11.01
8.71
5.98
3.22
0.86
-0.82
-1.79
-2.21
-2.36
-2.42
-2.34
-1.87
-0.76
1.13
3.67
6.44
8.98
10.83
11.71
11.57
10.46
8.54
6.03
3.20
0.37
-2.18
-4.28
-5.88
-7.04
-7.85
-8.34
-8.44
-8.03
-7.02
-5.42
-3.44
-1.39
0.39
1.64
2.26
2.31
1.96
1.37
0.73
0.13
-0.38
-0.81
-1.16
-1.45
-1.70
-1.93
-2.21
-2.61
-3.14
-3.78
-4.41
-4.88
-5.06
-4.87
-4.40
-3.83
-3.37
-3.13
-3.04
-2.86
-2.32
-1.25
0.29
2.07
3.71
4.95
5.72
6.13
6.35
6.47
6.41
6.06
5.35
4.36
3.30
2.41
1.84
1.56
1.41
1.24
0.97
0.58
0.14
-0.37
-1.00
-1.85
-2.98
-4.31
-5.67
-6.84
-7.64
-7.95
-7.77
-7.16
-6.27
-5.23
-4.18
-3.28
-2.63
-2.33
-2.36
-2.67
-3.09
-3.50
-3.73
-3.71
-3.39
-2.78
-1.91
-0.85
0.31
1.42
2.30
2.81
2.85
2.41
1.61
0.60
-0.44
-1.34
-1.99
-2.32
-2.31
-2.03
-1.56
-0.97
-0.35
0.28
0.93
1.59
2.23
2.86
3.44
3.94
4.30
4.41
4.25
3.84
3.29
2.72
2.22
1.78
1.38
0.92
0.40
-0.16
-0.73
-1.32
-2.00
-2.81
-3.68
-4.41
-4.76
-4.67
-4.24
-3.79
-3.63
-3.85
-4.32
-4.72
-4.77
-4.40
-3.78
-3.16
-2.71
-2.39
-2.02
-1.50
-0.84
-0.24
0.10
0.02
-0.41
-1.01
-1.57
-1.96
-2.18
-2.31
-2.43
-2.58
-2.75
-2.89
-2.97
-2.98
-2.99
-3.07
-3.26
-3.59
-3.97
-4.32
-4.54
-4.63
-4.67
-4.74
-4.95
-5.31
-5.78
-6.27
-6.67
-6.88
-6.83
-6.43
-5.55
-4.02
-1.72
1.37
5.01
8.80
12.22
14.74
16.08
16.20
15.32
13.76
11.83
9.71
7.46
5.11
2.78
0.63
-1.15
-2.43
-3.14
-3.25
-2.68
-1.39
0.58
2.98
5.36
7.21
8.19
8.24
7.61
6.67
5.70
4.72
3.59
2.16
0.43
-1.39
-3.05
-4.38
-5.44
-6.42
-7.52
-8.80
-10.12
-11.20
-11.77
-11.67
-10.84
-9.31
-7.13
-4.33
-0.96
2.85
6.85
10.68
13.92
16.22
17.41
17.51
16.72
15.29
13.50
11.50
9.40
7.30
5.36
3.79
2.73
2.16
1.85
1.43
0.55
-1.00
-3.17
-5.79
-8.58
-11.27
-13.54
-15.06
-15.50
-14.67
-12.65
-9.81
-6.82
-4.33
-2.75
-2.05
-1.89
-1.80
-1.50
-1.08
-0.92
-1.44
-2.78
-4.63
-6.34
-7.30
-7.26
-6.46
-5.45
-4.69
-4.31
-4.05
-3.51
-2.54
-1.26
-0.04
0.92
1.76
2.95
4.97
7.93
11.36
14.37
16.00
15.73
13.63
10.27
6.47
2.82
-0.44
-3.42
-6.42
-9.67
-13.10
-16.30
-18.52
-18.86
-16.62
-11.66
-4.59
3.22
10.08
14.65
16.40
15.86
14.20
12.64
11.79
11.48
11.09
10.02
8.19
6.03
4.17
2.98
2.34
1.69
0.33
-2.25
-6.13
-10.98
-16.23
-21.15
-24.97
-27.09
-27.06
-24.82
-20.66
-15.16
-8.97
-2.68
3.31
8.73
13.32
16.81
18.95
19.67
19.11
17.61
15.58
13.28
10.87
8.40
5.96
3.77
2.08
1.11
0.87
1.23
1.91
2.71
3.53
4.32
5.06
5.71
6.17
6.37
6.29
6.00
5.56
5.07
4.51
3.83
2.93
1.76
0.33
-1.26
-2.93
-4.63
-6.31
-7.91
-9.29
-10.21
-10.49
-10.06
-8.99
-7.57
-6.15
-5.04
-4.33
-3.89
-3.43
-2.61
-1.21
0.75
2.99
5.12
6.66
7.28
6.80
5.15
2.33
-1.57
-6.34
-11.46
-16.17
-19.55
-20.84
-19.73
-16.52
-11.99
-7.12
-2.69
0.93
3.84
6.35
8.69
10.78
12.23
12.51
11.20
8.27
4.06
-0.83
-5.69
-9.89
-12.96
-14.66
-14.92
-13.91
-11.96
-9.50
-7.00
-4.77
-2.99
-1.58
-0.33
1.05
2.79
4.98
7.50
10.01
12.09
13.43
14.02
14.21
14.56
15.61
17.57
20.21
22.97
25.25
26.67
27.26
27.35
27.38
27.64
28.12
28.60
28.77
28.42
27.51
26.27
24.95
23.83
23.00
22.30
21.37
19.74
16.99
12.84
7.23
0.25
-7.77
-16.21
-24.10
-30.25
-33.66
-34.00
-31.96
-29.15
-27.50
-28.42
-32.20
-37.92
-44.00
-49.01
-52.29
-54.03
-54.80
-55.08
-54.84
-53.61
-50.99
-46.91
-41.92
-36.91
-32.75
-29.87
-28.16
-27.11
-26.10
-24.63
-22.35
-19.05
-14.59
-8.97
-2.47
4.29
10.57
15.76
19.68
22.62
25.11
27.57
29.96
31.86
32.75
32.39
31.05
29.32
27.80
26.70
25.71
24.24
21.79
18.38
14.54
11.18
9.09
8.55
9.15
9.93
9.85
8.20
4.88
0.32
-4.81
-9.91
-14.68
-18.98
-22.56
-24.84
-25.09
-22.87
-18.46
-12.90
-7.56
-3.45
-0.64
1.62
4.31
7.85
11.62
14.26
14.41
11.58
6.51
0.85
-3.66
-5.91
-5.82
-4.20
-2.19
-0.68
0.02
0.11
0.10
0.33
0.83
1.33
1.58
1.63
1.87
2.83
4.78
7.49
10.27
12.31
13.22
13.24
13.10
13.58
15.05
17.22
19.37
20.69
20.71
19.37
17.03
14.09
10.91
7.67
4.52
1.65
-0.72
-2.40
-3.40
-3.99
-4.58
-5.64
-7.38
-9.77
-12.53
-15.38
-18.12
-20.81
-23.54
-26.36
-29.05
-31.04
-31.66
-30.36
-27.04
-21.99
-15.86
-9.32
-2.83
3.34
9.04
13.90
17.35
18.74
17.68
14.25
9.14
3.38
-1.95
-6.09
-8.68
-9.72
-9.35
-7.71
-4.91
-1.18
3.11
7.35
10.96
13.46
14.72
15.02
14.84
14.67
14.75
14.96
14.95
14.41
13.24
11.68
10.22
9.41
9.61
11.01
13.53
17.00
21.17
25.70
30.15
34.00
36.68
37.76
37.08
34.78
31.22
26.85
22.04
16.99
11.76
6.37
0.83
-4.71
-10.05
-14.90
-18.97
-21.95
-23.62
-23.83
-22.62
-20.12
-16.54
-12.15
-7.18
-2.00
2.86
6.64
8.56
8.08
5.19
0.59
-4.48
-8.68
-11.06
-11.36
-10.03
-7.91
-5.82
-4.31
-3.54
-3.34
-3.44
-3.52
-3.31
-2.59
-1.28
0.51
2.46
4.14
5.21
5.58
5.40
4.92
4.39
3.80
3.00
1.74
-0.21
-3.08
-7.00
-12.01
-17.93
-24.30
-30.45
-35.61
-39.20
-40.93
-40.88
-39.37
-36.81
-33.66
-30.35
-27.22
-24.45
-21.92
-19.24
-16.01
-12.01
-7.45
-2.95
0.77
3.13
3.97
3.54
2.30
0.69
-1.07
-2.94
-4.96
-6.96
-8.62
-9.40
-8.88
-6.87
-3.40
1.43
7.70
15.52
24.79
34.68
43.58
49.47
50.75
47.16
40.01
31.70
24.66
20.26
18.36
17.66
16.55
13.98
9.91
4.92
-0.19
-4.93
-9.28
-13.47
-17.56
-21.33
-24.27
-25.85
-25.84
-24.48
-22.45
-20.55
-19.43
-19.34
-20.09
-21.23
-22.22
-22.66
-22.46
-21.72
-20.78
-20.01
-19.67
-19.76
-20.05
-20.09
-19.48
-18.04
-15.87
-13.35
-10.90
-8.90
-7.48
-6.49
-5.59
-4.30
-2.23
0.88
5.06
10.02
15.23
19.97
23.51
25.25
24.93
22.58
18.59
13.53
8.08
2.91
-1.44
-4.59
-6.37
-6.82
-6.15
-4.63
-2.57
-0.13
2.61
5.69
9.07
12.63
16.03
18.85
20.75
21.57
21.41
20.52
19.23
17.80
16.39
15.11
14.04
13.25
12.77
12.55
12.43
12.21
11.71
10.82
9.54
7.91
5.99
3.83
1.52
-0.88
-3.31
-5.74
-8.18
-10.60
-12.92
-14.97
-16.55
-17.54
-17.94
-17.92
-17.68
-17.39
-17.02
-16.31
-14.91
-12.52
-9.15
-5.08
-0.85
2.94
5.88
7.83
8.85
9.08
8.72
7.97
7.06
6.30
5.96
6.15
6.72
7.27
7.35
6.81
5.89
5.21
5.41
6.83
9.28
12.10
14.51
15.90
16.19
15.67
14.96
14.63
15.07
16.34
18.17
20.08
21.53
22.10
21.62
20.26
18.38
16.43
14.77
13.53
12.70
12.13
11.71
11.42
11.33
11.56
12.24
13.45
15.05
16.76
18.02
18.21
16.85
13.81
9.41
4.39
-0.32
-3.93
-5.91
-6.17
-5.01
-3.04
-1.04
0.27
0.44
-0.54
-2.27
-4.06
-5.25
-5.55
-5.07
-4.32
-4.18
-5.58
-9.12
-14.61
-20.79
-25.33
-25.55
-19.48
-7.07
9.41
25.88
38.02
42.91
40.10
31.45
20.07
8.92
-0.15
-6.52
-10.42
-12.27
-12.45
-11.34
-9.52
-7.78
-7.04
-8.05
-11.01
-15.53
-20.85
-26.09
-30.54
-33.87
-36.14
-37.63
-38.59
-39.10
-39.06
-38.22
-36.50
-34.09
-31.40
-28.95
-27.07
-25.78
-24.90
-24.24
-23.76
-23.61
-23.90
-24.57
-25.33
-25.75
-25.47
-24.38
-22.60
-20.39
-17.92
-15.17
-12.03
-8.48
-4.66
-0.97
2.14
4.42
5.96
7.25
8.92
11.36
14.47
17.61
19.83
20.40
19.20
16.82
14.30
12.69
12.56
13.86
16.04
18.37
20.25
21.38
21.66
21.11
19.66
17.24
13.82
9.57
4.86
0.25
-3.76
-6.87
-9.11
-10.80
-12.36
-14.10
-16.07
-18.10
-19.92
-21.35
-22.41
-23.24
-23.99
-24.70
-25.25
-25.50
-25.43
-25.10
-24.62
-23.91
-22.79
-20.93
-18.08
-14.22
-9.53
-4.38
0.83
5.77
10.07
13.41
15.46
16.04
15.25
13.59
11.82
10.70
10.78
12.14
14.52
17.48
20.59
23.52
26.04
27.97
29.10
29.36
28.82
27.77
26.62
25.66
24.92
24.23
23.37
22.32
21.35
20.87
21.12
21.96
22.86
23.15
22.34
20.42
17.72
14.72
11.71
8.67
5.41
1.72
-2.33
-6.35
-9.82
-12.29
-13.60
-13.96
-13.77
-13.50
-13.48
-13.85
-14.61
-15.70
-17.16
-19.15
-21.97
-25.88
-30.94
-36.86
-43.10
-48.93
-53.56
-56.36
-56.95
-55.35
-51.96
-47.46
-42.62
-38.11
-34.27
-31.16
-28.64
-26.49
-24.56
-22.83
-21.21
-19.54
-17.57
-15.10
-12.15
-8.95
-5.83
-2.99
-0.45
2.01
4.60
7.48
10.61
13.89
17.18
20.44
23.68
26.88
29.91
32.48
34.26
34.90
34.22
32.23
29.14
25.33
21.24
17.25
13.63
10.40
7.43
4.51
1.46
-1.63
-4.48
-6.68
-7.86
-7.91
-7.03
-5.74
-4.68
-4.42
-5.24
-7.15
-9.90
-13.16
-16.58
-19.90
-22.87
-25.19
-26.53
-26.66
-25.45
-22.92
-19.24
-14.52
-8.86
-2.38
4.63
11.55
17.49
21.57
23.17
22.15
18.89
14.17
8.96
4.21
0.63
-1.35
-1.63
-0.38
2.06
5.31
9.07
13.15
17.49
22.03
26.82
31.82
36.82
41.48
45.33
47.97
49.19
49.21
48.43
47.19
45.58
43.34
40.12
35.80
30.67
25.32
20.42
16.26
12.65
9.06
4.93
0.03
-5.36
-10.59
-14.92
-17.81
-19.19
-19.46
-19.27
-19.20
-19.55
-20.34
-21.50
-23.09
-25.28
-28.20
-31.63
-34.97
-37.50
-38.83
-39.25
-39.59
-40.76
-43.10
-46.08
-48.52
-49.26
-47.79
-44.54
-40.53
-36.73
-33.55
-30.71
-27.63
-23.82
-19.25
-14.37
-9.81
-6.03
-3.13
-0.84
1.25
3.38
5.62
7.86
9.98
11.95
13.90
16.05
18.58
21.54
24.84
28.19
31.13
33.22
34.02
33.30
31.03
27.42
22.88
17.92
13.08
8.81
5.43
3.10
1.77
1.18
0.90
0.49
-0.29
-1.38
-2.43
-3.01
-2.83
-2.00
-0.94
-0.32
-0.64
-2.16
-4.82
-8.39
-12.60
-17.09
-21.31
-24.37
-25.21
-23.03
-17.79
-10.35
-2.02
6.08
13.71
21.49
30.22
39.90
49.09
55.20
55.68
49.35
37.25
22.35
8.18
-2.57
-9.08
-12.21
-13.64
-14.70
-15.72
-16.13
-15.08
-12.25
-8.14
-3.80
-0.28
2.05
3.58
5.21
7.79
11.75
16.90
22.72
28.67
34.48
40.15
45.72
51.04
55.66
59.01
60.64
60.36
58.21
54.33
48.79
41.62
32.96
23.20
12.99
3.05
-6.05
-14.14
-21.46
-28.42
-35.37
-42.35
-49.06
-54.99
-59.78
-63.33
-65.96
-68.27
-70.84
-74.01
-77.82
-81.98
-85.92
-88.95
-90.23
-88.92
-84.16
-75.40
-62.69
-47.05
-30.25
-14.23
-0.24
11.60
22.16
32.51
43.08
53.20
61.49
66.85
69.18
69.64
70.00
71.59
74.45
77.37
78.42
76.00
69.56
59.71
47.77
35.30
23.47
12.88
3.60
-4.55
-11.63
-17.38
-21.37
-23.23
-22.90
-20.79
-17.73
-14.58
-11.89
-9.67
-7.42
-4.54
-0.60
4.41
10.09
15.90
21.39
26.28
30.41
33.60
35.53
35.85
34.34
31.05
26.34
20.88
15.43
10.64
6.85
4.04
1.89
-0.03
-1.98
-3.98
-5.81
-7.17
-7.85
-7.83
-7.24
-6.31
-5.26
-4.32
-3.76
-3.90
-4.95
-7.07
-10.28
-14.62
-20.18
-27.13
-35.48
-44.91
-54.65
-63.58
-70.67
-75.25
-77.11
-76.39
-73.35
-68.14
-60.79
-51.35
-40.18
-27.90
-15.38
-3.44
7.39
16.93
25.27
32.63
39.14
44.82
49.60
53.34
56.03
57.68
58.41
58.26
57.24
55.21
52.05
47.78
42.59
36.89
31.20
25.93
21.30
17.23
13.41
9.41
4.92
-0.17
-5.68
-11.20
-16.23
-20.31
-23.21
-24.98
-25.85
-26.14
-26.12
-25.85
-25.27
-24.23
-22.68
-20.62
-18.13
-15.23
-11.87
-7.92
-3.30
1.90
7.35
12.49
16.78
19.79
21.38
21.70
21.01
19.59
17.60
15.07
11.97
8.39
4.48
0.50
-3.26
-6.52
-9.09
-10.87
-11.89
-12.30
-12.33
-12.22
-12.11
-11.94
-11.52
-10.66
-9.33
-7.72
-6.24
-5.33
-5.32
-6.28
-8.04
-10.35
-13.00
-15.92
-19.14
-22.76
-26.74
-30.93
-34.99
-38.52
-41.22
-43.01
-44.01
-44.56
-44.98
-45.43
-45.86
-46.01
-45.54
-44.21
-41.96
-38.88
-35.20
-31.06
-26.50
-21.42
-15.73
-9.31
-2.21
5.41
13.27
21.04
28.45
35.21
41.01
45.57
48.68
50.30
50.60
49.93
48.68
47.17
45.60
44.04
42.60
41.36
40.42
39.77
39.23
38.46
37.17
35.23
32.71
29.89
27.09
24.66
22.82
21.69
21.21
21.19
21.34
21.35
20.98
20.16
18.96
17.50
15.87
14.11
12.22
10.29
8.51
7.11
6.30
6.09
6.35
6.85
7.39
7.90
8.36
8.76
8.99
8.83
8.09
6.61
4.42
1.64
-1.50
-4.79
-8.03
-11.02
-13.50
-15.20
-15.97
-15.80
-14.95
-13.79
-12.74
-12.06
-11.84
-11.98
-12.28
-12.58
-12.71
-12.60
-12.19
-11.45
-10.42
-9.20
-7.95
-6.88
-6.13
-5.76
-5.75
-5.99
-6.34
-6.68
-6.89
-6.94
-6.89
-6.82
-6.85
-7.09
-7.54
-8.05
-8.40
-8.41
-8.04
-7.39
-6.68
-6.03
-5.42
-4.69
-3.63
-2.11
-0.25
1.62
3.15
4.10
4.46
4.39
4.15
3.88
3.63
3.35
3.03
2.79
2.76
3.06
3.64
4.25
4.53
4.17
2.99
1.07
-1.31
-3.78
-5.97
-7.62
-8.63
-9.04
-9.02
-8.74
-8.38
-8.02
-7.67
-7.28
-6.74
-6.06
-5.30
-4.64
-4.26
-4.29
-4.70
-5.31
-5.85
-6.12
-6.04
-5.73
-5.36
-5.11
-5.01
-5.01
-5.02
-5.03
-5.12
-5.43
-6.07
-7.01
-8.10
-9.10
-9.81
-10.19
-10.30
-10.26
-10.19
-10.15
-10.11
-10.07
-10.08
-10.22
-10.55
-11.07
-11.65
-12.08
-12.18
-11.85
-11.07
-9.94
-8.54
-6.91
-5.02
-2.87
-0.42
2.25
5.00
7.64
10.00
12.00
13.73
15.36
17.09
19.10
21.41
23.99
26.76
29.69
32.84
36.31
40.17
44.34
48.55
52.33
55.17
56.58
56.18
53.80
49.49
43.45
36.05
27.78
19.19
10.96
3.72
-2.13
-6.51
-9.74
-12.32
-14.75
-17.20
-19.56
-21.53
-22.94
-23.88
-24.61
-25.43
-26.42
-27.44
-28.17
-28.37
-27.92
-26.88
-25.40
-23.61
-21.56
-19.33
-16.95
-14.49
-11.99
-9.41
-6.67
-3.73
-0.59
2.64
5.75
8.48
10.57
11.82
12.15
11.63
10.43
8.87
7.22
5.71
4.41
3.28
2.22
1.16
0.14
-0.77
-1.44
-1.80
-1.82
-1.54
-1.07
-0.54
0.00
0.54
1.12
1.81
2.66
3.63
4.63
5.56
6.38
7.16
8.02
9.04
10.20
11.37
12.36
13.09
13.58
13.90
14.09
14.01
13.45
12.16
10.07
7.32
4.27
1.37
-1.11
-3.06
-4.60
-5.89
-7.05
-8.19
-9.30
-10.42
-11.59
-12.91
-14.44
-16.20
-18.08
-19.89
-21.41
-22.41
-22.77
-22.47
-21.67
-20.60
-19.56
-18.82
-18.45
-18.38
-18.38
-18.18
-17.52
-16.23
-14.20
-11.49
-8.34
-5.16
-2.52
-0.90
-0.62
-1.61
-3.52
-5.83
-8.07
-9.89
-11.11
-11.57
-11.14
-9.74
-7.48
-4.71
-2.01
0.10
1.33
1.83
2.02
2.34
3.03
3.98
4.83
5.22
4.91
3.85
2.09
-0.34
-3.43
-7.10
-11.08
-14.94
-18.19
-20.50
-21.90
-22.71
-23.33
-24.06
-24.93
-25.74
-26.18
-25.93
-24.74
-22.46
-19.02
-14.42
-8.87
-2.69
3.60
9.56
14.87
19.43
23.25
26.43
29.05
31.13
32.72
33.80
34.40
34.46
33.93
32.78
31.04
28.84
26.29
23.39
20.01
15.97
11.19
5.82
0.23
-5.12
-9.87
-13.90
-17.31
-20.32
-23.07
-25.55
-27.60
-29.00
-29.64
-29.50
-28.67
-27.32
-25.70
-24.05
-22.64
-21.68
-21.34
-21.68
-22.67
-24.11
-25.65
-26.88
-27.37
-26.84
-25.19
-22.55
-19.24
-15.65
-12.03
-8.45
-4.71
-0.52
4.37
9.95
15.93
21.72
26.75
30.57
33.09
34.48
35.07
35.16
34.98
34.67
34.27
33.79
33.15
32.17
30.66
28.49
25.64
22.30
18.72
15.14
11.70
8.44
5.32
2.30
-0.63
-3.51
-6.27
-8.74
-10.68
-11.77
-11.81
-10.83
-9.08
-6.97
-4.92
-3.14
-1.58
-0.14
1.37
2.94
4.46
5.76
6.68
7.14
7.19
6.93
6.51
6.12
5.88
5.84
5.92
5.93
5.65
5.00
4.09
3.27
2.91
3.21
4.08
5.12
5.80
5.71
4.67
2.83
0.50
-1.93
-4.12
-5.91
-7.16
-7.86
-8.09
-7.97
-7.68
-7.34
-7.03
-6.73
-6.44
-6.18
-6.01
-5.95
-5.92
-5.68
-4.96
-3.54
-1.51
0.75
2.72
3.92
4.21
3.79
3.07
2.43
2.07
1.96
1.95
1.95
1.98
2.15
2.51
3.05
3.67
4.36
5.20
6.32
7.73
9.28
10.64
11.54
11.99
12.33
13.08
14.62
16.89
19.31
21.00
21.15
19.36
15.67
10.54
4.60
-1.48
-7.13
-11.81
-15.14
-16.93
-17.21
-16.27
-14.55
-12.48
-10.42
-8.53
-6.78
-5.02
-3.04
-0.73
1.87
4.50
6.78
8.32
8.81
8.29
6.99
5.39
4.00
3.18
3.16
3.91
5.21
6.74
8.19
9.32
10.05
10.51
10.87
11.35
12.03
12.84
13.62
14.15
14.24
13.78
12.79
11.26
9.27
6.87
4.18
1.40
-1.19
-3.40
-5.08
-6.26
-7.10
-7.73
-8.19
-8.46
-8.40
-7.97
-7.19
-6.23
-5.27
-4.52
-4.13
-4.16
-4.58
-5.25
-6.02
-6.73
-7.27
-7.62
-7.83
-7.96
-8.05
-8.10
-8.04
-7.81
-7.37
-6.69
-5.79
-4.70
-3.44
-2.08
-0.75
0.45
1.38
2.02
2.42
2.68
2.85
2.86
2.54
1.70
0.32
-1.40
-3.12
-4.53
-5.51
-6.12
-6.60
-7.17
-7.89
-8.71
-9.52
-10.27
-11.02
-11.79
-12.52
-13.00
-12.97
-12.27
-10.95
-9.28
-7.58
-6.04
-4.70
-3.38
-1.86
-0.02
2.07
4.19
6.09
7.63
8.83
9.78
10.60
11.24
11.59
11.52
11.04
10.36
9.81
9.60
9.76
10.08
10.29
10.23
10.02
9.93
10.21
10.91
11.82
12.56
12.76
12.22
10.94
9.06
6.84
4.46
2.12
-0.02
-1.83
-3.24
-4.20
-4.69
-4.70
-4.23
-3.37
-2.27
-1.14
-0.18
0.54
1.06
1.50
1.94
2.37
2.67
2.70
2.47
2.16
2.03
2.38
3.36
4.97
7.14
9.80
12.95
16.54
20.43
24.29
27.66
30.03
31.07
30.70
29.07
26.50
23.34
19.90
16.45
13.25
10.51
8.43
7.11
6.51
6.44
6.59
6.62
6.30
5.57
4.54
3.49
2.65
2.13
1.82
1.47
0.80
-0.46
-2.44
-5.22
-8.80
-13.08
-17.87
-22.78
-27.35
-31.18
-34.06
-36.04
-37.35
-38.21
-38.64
-38.49
-37.56
-35.80
-33.37
-30.70
-28.24
-26.33
-25.07
-24.30
-23.75
-23.13
-22.21
-20.84
-18.97
-16.67
-14.09
-11.56
-9.45
-8.07
-7.48
-7.42
-7.29
-6.44
-4.45
-1.29
2.50
6.12
8.84
10.25
10.46
9.98
9.51
9.66
10.75
12.74
15.27
17.80
19.85
21.16
21.85
22.29
22.96
24.17
25.89
27.79
29.34
30.06
29.65
28.00
25.26
21.83
18.38
15.75
14.86
16.35
20.35
26.39
33.59
40.98
47.75
53.42
57.73
60.54
61.70
61.18
59.15
56.08
52.66
49.50
46.86
44.54
41.93
38.35
33.36
27.02
19.97
13.25
7.95
4.85
4.09
5.04
6.48
6.88
4.93
-0.07
-7.83
-16.92
-25.05
-29.58
-28.47
-20.98
-8.07
7.86
23.87
37.39
46.84
51.78
52.62
50.29
45.86
40.48
35.03
29.79
24.13
16.71
6.18
-7.81
-23.85
-39.05
-50.23
-55.41
-54.65
-49.84
-43.70
-38.66
-36.29
-37.39
-42.34
-51.14
-63.13
-76.59
-88.83
-96.87
-98.45
-92.90
-81.31
-65.90
-49.14
-33.05
-18.98
-7.67
0.43
5.12
6.61
5.66
3.51
1.92
2.70
7.23
16.12
28.94
44.31
60.22
74.56
85.51
91.93
93.36
90.08
82.96
73.40
63.04
53.44
45.63
39.82
35.44
31.41
26.68
20.60
13.05
4.21
-5.67
-16.54
-28.42
-41.23
-54.60
-67.85
-80.13
-90.79
-99.54
-106.47
-111.87
-115.99
-118.89
-120.37
-120.15
-117.99
-113.94
-108.26
-101.50
-94.20
-86.80
-79.64
-72.85
-66.58
-60.88
-55.81
-51.34
-47.35
-43.63
-39.79
-35.24
-29.25
-21.21
-10.95
1.11
13.91
26.12
36.66
45.16
52.04
58.20
64.52
71.45
78.77
85.76
91.41
94.61
94.26
89.45
79.81
65.78
48.86
31.42
16.09
5.03
-0.66
-1.20
2.21
7.88
14.17
19.85
24.18
26.99
28.62
29.89
31.72
34.79
39.22
44.44
49.44
53.18
55.04
54.98
53.42
51.07
48.74
47.22
47.23
49.27
53.52
59.75
67.45
75.93
84.53
92.64
99.75
105.43
109.50
112.17
114.24
116.92
121.43
128.52
138.11
149.37
161.02
171.89
181.31
189.27
196.44
203.92
212.99
224.76
239.88
258.17
278.27
297.51
312.13
318.00
311.54
290.78
255.85
208.87
153.27
92.90
31.29
-28.57
-84.02
-132.67
-172.43
-202.10
-221.92
-233.90
-241.37
-248.14
-257.23
-270.25
-287.39
-307.97
-331.34
-357.39
-386.73
-420.28
-459.05
-503.91
-555.25
-612.21
-671.66
-727.59
-771.84
-796.17
-795.20
-768.55
-721.12
-661.21
-597.36
-535.58
-478.37
-425.61
-376.34
-330.12
-287.23
-247.88
-211.38
-176.01
-139.80
-101.58
-61.53
-21.16
17.45
52.74
84.37
113.42
142.00
172.46
206.41
243.87
282.93
320.07
351.24
373.20
384.63
386.41
380.89
370.73
357.78
342.64
324.96
304.24
280.60
255.02
229.17
204.76
183.18
165.17
150.83
139.71
130.99
123.66
117.02
110.85
105.36
101.02
98.16
96.71
96.24
96.16
95.82
94.52
91.26
84.65
73.03
55.17
31.18
3.34
-24.02
-45.56
-56.57
-54.56
-40.15
-16.92
9.58
33.12
48.15
50.61
38.82
14.12
-18.75
-52.22
-77.53
-87.25
-77.76
-50.50
-11.28
32.03
72.59
106.62
133.81
155.95
174.94
191.14
203.08
208.30
204.60
191.10
168.38
138.19
102.94
65.38
28.33
-5.52
-33.99
-55.93
-71.52
-82.07
-89.38
-95.02
-99.84
-104.00
-107.28
-109.46
-110.47
-110.26
-108.75
-105.90
-101.89
-97.27
-93.02
-90.13
-89.10
-89.59
-90.40
-89.81
-86.22
-78.72
-67.45
-53.57
-38.79
-24.82
-12.83
-3.31
3.87
8.95
11.96
12.58
10.31
4.95
-3.06
-12.58
-22.18
-30.56
-37.14
-42.07
-46.01
-49.58
-52.99
-55.88
-57.56
-57.21
-54.26
-48.53
-40.33
-30.44
-20.09
-10.66
-3.39
1.12
3.15
3.89
4.89
7.44
12.04
18.27
25.10
31.48
36.69
40.69
43.86
46.71
49.47
51.98
53.75
54.28
53.40
51.40
49.01
47.06
46.19
46.66
48.41
51.18
54.80
59.27
64.60
70.71
77.36
84.09
90.35
95.56
99.09
100.41
99.10
94.99
88.31
79.76
70.31
61.03
52.79
46.17
41.49
39.00
38.94
41.41
46.18
52.51
59.25
65.19
69.47
71.80
72.42
71.77
70.22
67.89
64.77
60.91
56.43
51.43
45.87
39.63
32.63
25.09
17.56
10.80
5.40
1.58
-0.95
-2.71
-4.19
-5.64
-7.05
-8.28
-9.26
-10.06
-10.86
-11.93
-13.50
-15.72
-18.67
-22.32
-26.53
-31.00
-35.41
-39.46
-43.06
-46.34
-49.55
-52.92
-56.52
-60.23
-63.87
-67.46
-71.11
-75.00
-79.07
-82.79
-85.22
-85.38
-82.82
-77.98
-72.16
-66.86
-63.15
-61.05
-59.66
-57.71
-54.23
-49.01
-42.38
-34.88
-26.99
-19.48
-13.94
-12.76
-18.34
-31.54
-50.40
-70.18
-84.97
-90.30
-85.11
-72.13
-56.24
-41.97
-31.40
-23.63
-15.93
-5.62
8.45
25.52
43.57
60.44
74.67
85.69
93.54
98.24
99.47
96.65
89.44
78.27
64.60
50.66
38.72
30.38
26.09
25.05
25.72
26.45
25.98
23.74
19.75
14.37
8.01
0.88
-7.04
-15.90
-25.78
-36.37
-46.81
-55.82
-61.91
-63.82
-60.95
-53.54
-42.62
-29.70
-16.38
-3.85
7.25
16.91
25.50
33.41
40.71
46.95
51.12
51.89
48.09
39.20
25.72
9.23
-8.04
-23.90
-36.97
-47.09
-55.17
-62.67
-70.74
-79.75
-89.01
-97.01
-101.69
-100.93
-92.96
-76.78
-52.61
-22.12
11.69
45.03
74.21
96.54
110.80
117.22
117.00
111.84
103.64
94.31
85.64
79.10
75.50
74.61
75.09
74.73
71.10
62.50
48.66
31.13
12.74
-3.43
-15.23
-22.31
-26.10
-29.15
-34.10
-42.74
-55.71
-72.70
-92.95
-115.67
-140.02
-164.90
-188.68
-209.36
-224.80
-233.09
-232.76
-222.79
-202.47
-171.59
-131.15
-84.11
-35.48
8.71
43.29
65.74
76.82
79.55
77.22
71.76
63.49
52.24
38.92
26.23
17.74
16.03
21.01
29.72
37.67
41.04
38.52
31.62
23.72
18.34
17.70
21.92
29.19
36.80
42.25
44.03
42.05
37.26
31.02
24.37
17.69
10.90
3.82
-3.42
-10.30
-16.03
-19.91
-21.57
-20.98
-18.43
-14.32
-9.01
-2.86
3.68
10.03
15.50
19.45
21.52
21.74
20.63
19.08
18.08
18.47
20.72
24.70
29.82
35.34
40.58
45.13
48.66
50.76
50.84
48.30
42.93
35.48
27.69
21.75
19.48
21.33
26.15
31.68
35.60
36.50
34.28
29.94
24.78
19.82
15.43
11.57
8.13
5.21
3.06
1.95
1.81
2.22
2.54
2.19
0.83
-1.51
-4.42
-7.30
-9.47
-10.47
-10.21
-8.99
-7.37
-5.90
-4.87
-4.20
-3.51
-2.37
-0.60
1.69
4.08
6.16
7.70
8.85
9.97
11.54
13.93
17.21
21.17
25.34
29.19
32.23
34.26
35.41
36.09
36.80
37.89
39.36
40.84
41.69
41.30
39.28
35.58
30.45
24.25
17.30
9.86
2.27
-4.84
-10.56
-13.82
-13.88
-10.73
-5.33
0.70
5.71
8.57
9.15
8.12
6.50
5.11
4.26
3.88
3.77
3.90
4.33
4.95
5.39
5.16
4.15
3.02
3.31
6.75
14.42
25.97
39.52
52.28
61.58
65.73
64.24
57.30
44.86
26.35
0.87
-31.77
-70.08
-110.56
-148.38
-179.05
-200.07
-211.78
-217.13
-220.16
-224.34
-231.27
-240.47
-249.82
-256.70
-258.83
-254.77
-243.94
-226.53
-203.40
-176.03
-146.46
-117.03
-89.89
-66.48
-47.15
-31.01
-16.25
-0.75
17.32
38.86
63.69
90.61
117.81
143.18
164.68
180.67
190.22
193.29
190.73
184.00
174.61
163.75
152.06
139.74
126.81
113.44
99.99
86.91
74.69
63.77
54.68
48.09
44.75
45.15
49.25
56.26
64.69
72.62
78.15
79.78
76.81
69.49
59.05
47.44
36.74
28.49
23.22
20.23
18.15
15.63
11.89
7.04
1.72
-3.49
-8.44
-13.53
-19.34
-26.21
-33.90
-41.73
-48.78
-54.42
-58.41
-60.89
-62.12
-62.23
-61.02
-58.10
-53.20
-46.45
-38.58
-30.73
-24.00
-19.03
-15.73
-13.42
-11.21
-8.64
-5.78
-3.12
-1.19
-0.05
0.73
1.57
2.37
2.37
0.65
-3.10
-8.23
-13.15
-15.93
-15.09
-9.93
-0.55
12.34
27.69
44.09
59.88
73.32
83.26
89.68
94.09
99.07
107.05
118.95
133.34
146.58
154.16
152.47
140.04
118.35
91.43
64.52
42.67
29.56
26.88
34.14
48.80
66.89
83.94
96.39
102.60
103.20
100.23
95.41
88.75
78.20
60.90
35.27
2.75
-32.19
-63.50
-85.97
-97.06
-97.10
-88.33
-73.30
-54.01
-31.95
-8.84
12.90
30.48
41.82
47.03
48.94
52.26
61.57
78.97
102.85
128.41
149.70
162.13
164.43
158.84
149.92
142.25
138.25
137.00
134.49
125.19
103.94
67.57
15.59
-49.67
-123.40
-198.65
-267.12
-320.39
-351.82
-358.62
-342.94
-311.47
-273.23
-236.47
-206.36
-184.32
-169.25
-159.49
-154.22
-153.44
-157.04
-163.84
-171.31
-176.48
-176.95
-171.66
-160.93
-145.93
-127.92
-107.80
-86.20
-63.66
-41.06
-19.58
-0.42
15.57
28.14
37.56
44.31
48.63
50.16
47.97
40.76
27.44
7.63
-17.93
-47.29
-77.60
-105.69
-128.71
-144.80
-153.60
-156.26
-155.12
-152.85
-151.51
-151.84
-153.00
-152.92
-149.11
-139.77
-124.49
-104.65
-82.78
-61.71
-43.32
-27.75
-13.35
2.48
21.93
45.60
72.17
99.04
123.40
143.18
157.37
165.56
167.33
162.11
149.54
130.24
106.26
80.82
57.36
38.33
24.56
15.50
10.00
7.37
7.73
11.71
19.78
31.58
45.74
60.17
72.80
82.21
87.94
90.27
89.85
87.31
83.15
77.82
71.90
66.23
61.67
58.91
58.29
59.70
62.71
66.75
71.29
75.92
80.25
83.79
85.74
85.11
80.89
72.53
60.21
44.98
28.58
12.98
-0.11
-9.66
-15.45
-18.02
-18.48
-18.24
-18.69
-20.94
-25.52
-32.25
-40.27
-48.46
-55.93
-62.36
-68.06
-73.67
-79.62
-85.84
-91.64
-96.07
-98.28
-97.93
-95.17
-90.52
-84.56
-77.70
-70.15
-61.97
-53.22
-43.99
-34.46
-24.87
-15.51
-6.79
0.84
6.95
11.28
13.92
15.33
16.32
17.77
20.32
24.19
29.11
34.47
39.49
43.45
45.80
46.44
45.69
44.25
42.72
41.25
39.47
36.79
33.02
28.91
26.01
25.83
28.88
34.03
38.68
40.00
36.24
27.71
16.78
7.29
3.48
8.96
25.63
52.83
86.73
120.71
146.91
158.63
152.64
130.44
97.60
61.72
29.68
5.71
-9.14
-16.32
-18.16
-16.62
-12.49
-5.59
4.63
18.34
34.90
52.49
68.55
80.39
85.89
84.07
75.26
60.95
43.26
24.43
6.43
-9.32
-21.93
-30.85
-35.78
-36.56
-33.23
-26.22
-16.42
-4.99
6.94
18.57
29.38
38.89
46.50
51.44
53.03
51.11
46.30
39.70
32.37
24.78
16.68
7.38
-3.63
-16.24
-29.77
-43.21
-55.65
-66.50
-75.42
-82.06
-86.05
-87.13
-85.40
-81.51
-76.53
-71.52
-67.17
-63.50
-59.94
-55.73
-50.30
-43.55
-35.87
-27.96
-20.46
-13.83
-8.13
-3.16
1.45
6.21
11.60
17.99
25.60
34.40
44.12
54.27
64.13
72.75
79.16
82.54
82.45
79.02
72.92
65.18
56.91
48.98
41.89
35.78
30.52
25.90
21.82
18.37
15.80
14.43
14.28
14.78
14.80
12.71
6.89
-3.86
-19.88
-40.38
-63.31
-85.58
-103.50
-113.49
-113.02
-101.37
-79.93
-51.77
-20.71
9.97
38.31
63.89
87.21
108.67
127.76
142.88
151.93
153.25
146.52
133.01
115.27
96.15
77.71
60.72
44.67
28.52
11.58
-5.79
-22.19
-35.41
-43.08
-43.42
-35.81
-21.12
-1.56
19.83
40.07
56.72
68.19
74.25
76.40
77.64
81.65
91.32
106.87
124.54
137.08
135.96
114.62
71.26
9.87
-61.24
-131.73
-192.32
-236.87
-263.24
-272.75
-268.81
-255.51
-236.58
-215.48
-194.84
-176.84
-163.23
-155.18
-152.72
-154.28
-156.90
-157.06
-152.94
-144.56
-133.97
-123.87
-116.45
-112.54
-111.51
-111.84
-111.87
-111.79
-112.31
-114.07
-117.06
-120.69
-124.59
-129.44
-137.16
-141.82
-139.14
-125.70
-100.25
-64.10
-20.64
25.55
69.71
107.84
137.78
158.48
171.02
177.57
180.28
180.36
177.80
172.01
162.58
149.63
133.20
113.79
91.97
68.32
44.07
21.55
4.11
-5.25
-5.68
0.17
7.76
13.11
15.04
16.62
22.32
35.75
56.88
81.33
102.18
113.75
114.63
108.10
99.90
94.99
95.39
100.01
106.10
111.19
114.19
115.14
114.67
112.99
109.36
102.59
91.64
76.28
57.46
37.01
17.09
-0.44
-14.54
-25.24
-33.37
-40.07
-46.22
-51.99
-56.80
-59.55
-59.14
-55.05
-47.62
-37.96
-27.48
-17.29
-7.71
1.72
11.92
23.76
37.49
52.70
68.56
84.21
99.08
113.05
126.26
139.04
151.76
164.88
178.82
193.63
208.62
221.84
230.32
230.75
220.74
199.95
170.53
136.73
103.46
74.72
52.44
36.19
23.83
12.64
0.39
-14.15
-31.12
-50.33
-71.51
-94.88
-121.03
-150.74
-184.76
-223.86
-269.11
-321.69
-381.94
-447.93
-514.40
-572.96
-614.18
-630.78
-620.39
-586.43
-536.58
-479.71
-422.78
-369.45
-320.48
-275.20
-233.14
-194.18
-158.00
-123.14
-86.90
-46.55
-0.96
47.82
94.61
132.52
155.63
161.46
151.78
131.72
107.44
84.00
64.08
48.22
35.95
26.89
21.27
19.67
22.62
30.16
41.81
56.72
73.67
90.98
106.56
118.22
124.32
124.31
118.98
110.19
100.17
90.92
83.62
78.38
74.53
71.01
66.79
61.19
53.78
44.14
31.82
16.48
-1.64
-21.28
-40.02
-54.72
-62.56
-62.31
-55.10
-44.30
-34.18
-28.16
-27.49
-31.14
-36.70
-41.79
-45.00
-46.09
-45.62
-44.43
-43.39
-43.29
-44.90
-48.48
-53.24
-57.05
-57.04
-50.99
-38.74
-22.83
-7.72
1.98
3.44
-3.25
-15.34
-28.82
-40.03
-46.91
-49.11
-47.25
-41.97
-33.19
-20.40
-3.44
16.71
37.79
57.02
72.23
82.88
90.10
95.81
101.37
106.58
109.75
108.65
101.88
89.87
74.93
60.59
50.16
45.56
46.76
51.95
58.50
63.99
66.98
67.17
65.07
61.41
56.69
51.15
45.05
38.91
33.61
30.02
28.44
28.40
28.82
28.53
26.95
24.39
21.83
20.37
20.67
22.66
25.69
28.89
31.48
32.93
33.05
32.04
30.75
30.58
33.25
40.12
51.42
65.90
81.09
94.10
102.82
106.65
106.60
104.65
102.62
101.25
99.74
96.08
87.97
74.03
54.66
32.18
10.26
-7.18
-17.11
-17.97
-9.47
7.78
32.71
63.81
98.79
134.35
166.35
190.37
202.69
201.30
186.42
160.54
127.64
92.18
57.96
27.56
2.32
-17.28
-31.06
-39.12
-41.89
-40.61
-37.30
-34.36
-33.86
-36.84
-43.14
-51.65
-61.05
-70.08
-77.86
-83.74
-87.28
-88.41
-87.49
-85.37
-83.09
-81.51
-80.99
-81.33
-81.93
-82.04
-80.97
-78.10
-72.98
-65.26
-54.92
-42.30
-28.05
-13.05
1.83
15.87
28.72
40.28
50.68
60.10
68.67
76.37
83.04
88.33
91.77
92.93
91.50
87.41
80.75
71.72
60.56
47.63
33.44
18.71
4.34
-8.76
-19.77
-28.14
-33.55
-36.01
-35.88
-33.92
-31.23
-29.07
-28.50
-30.08
-33.72
-38.84
-44.57
-50.12
-54.89
-58.49
-60.65
-61.16
-59.91
-56.93
-52.48
-47.01
-41.05
-35.08
-29.51
-24.63
-20.76
-18.15
-16.93
-17.09
-18.37
-20.36
-22.56
-24.65
-26.57
-28.60
-31.15
-34.42
-37.93
-40.28
-39.42
-33.42
-21.57
-5.17
12.69
28.21
38.55
43.00
42.94
40.90
39.12
38.82
40.26
43.44
48.54
55.71
64.43
73.08
79.40
81.57
79.29
73.99
68.01
63.12
59.60
56.20
51.14
43.40
33.40
22.84
13.94
8.41
6.91
9.03
13.67
19.67
26.24
32.97
39.53
45.43
49.92
52.31
52.43
50.78
48.13
45.02
41.11
35.38
26.72
14.85
0.71
-13.80
-26.79
-37.26
-45.41
-52.14
-58.25
-63.85
-68.26
-70.67
-70.62
-68.31
-64.47
-59.97
-55.38
-50.93
-46.70
-42.94
-40.18
-38.84
-38.73
-38.55
-36.15
-29.49
-17.83
-2.53
13.36
26.41
34.45
37.30
36.38
33.24
28.49
21.75
12.57
1.65
-8.75
-15.80
-17.88
-15.69
-12.03
-10.46
-13.41
-20.85
-30.33
-37.92
-39.41
-31.67
-13.32
15.17
51.72
93.01
134.98
173.34
204.20
224.38
231.65
224.85
204.02
170.26
125.69
73.47
17.98
-35.03
-79.31
-109.72
-124.19
-124.78
-117.12
-108.32
-104.15
-106.68
-113.52
-119.15
-117.66
-105.15
-81.03
-47.87
-10.55
25.61
53.31
65.62
59.07
35.31
-0.05
-39.82
-77.06
-106.01
-125.82
-136.18
-137.82
-133.05
-125.60
-119.62
-118.25
-122.56
-131.72
-141.03
-146.85
-147.10
-141.67
-132.14
-121.22
-112.00
-107.41
-109.65
-119.63
-136.37
-156.66
-175.54
-187.64
-188.72
-176.82
-152.38
-117.78
-76.44
-32.31
10.72
48.98
79.52
100.72
112.75
117.50
117.62
115.48
112.20
107.70
101.23
92.25
81.16
69.39
59.05
52.15
49.73
51.47
55.94
61.52
67.17
73.02
79.95
88.77
99.35
110.44
120.16
127.00
130.69
132.12
132.72
133.47
134.28
134.09
131.54
125.77
116.89
105.97
94.23
82.70
71.92
62.12
53.49
46.33
40.86
36.94
33.86
30.37
25.15
17.29
6.78
-5.38
-17.59
-28.33
-36.75
-42.91
-47.51
-51.39
-54.85
-57.37
-57.74
-54.84
-48.48
-39.81
-30.88
-23.42
-17.85
-12.76
-5.99
3.89
16.06
27.68
35.39
37.38
34.33
28.72
23.00
17.96
12.53
5.03
-4.98
-16.07
-25.78
-32.27
-35.38
-36.38
-36.93
-38.12
-40.76
-46.28
-57.29
-76.31
-103.30
-133.85
-159.91
-173.43
-170.79
-155.36
-135.77
-121.45
-117.95
-124.50
-135.58
-144.77
-148.34
-146.59
-142.59
-139.70
-139.50
-141.20
-142.45
-140.87
-134.88
-124.32
-110.51
-95.92
-83.77
-76.75
-76.08
-80.89
-88.71
-96.28
-100.83
-100.67
-94.81
-82.82
-64.83
-42.14
-17.82
3.24
15.88
16.63
5.44
-13.81
-34.88
-51.70
-60.37
-59.75
-50.60
-34.13
-11.36
16.53
47.21
76.64
99.94
113.25
115.36
108.39
96.59
84.49
75.12
69.42
66.54
64.94
63.48
61.73
59.94
58.73
58.66
59.96
62.53
65.87
69.37
72.50
74.88
76.42
77.19
77.31
76.92
76.05
74.72
73.01
71.15
69.49
68.37
67.91
67.91
67.91
67.53
66.78
66.12
66.22
67.54
69.99
72.82
74.85
74.99
72.56
67.70
61.27
54.65
49.35
46.47
46.46
48.90
52.81
57.02
60.66
63.46
65.65
67.64
69.63
71.47
72.80
73.40
73.45
73.54
74.39
76.37
79.25
82.15
83.93
83.58
80.60
75.10
67.69
59.26
50.82
43.51
38.48
36.61
37.98
41.36
44.35
44.18
39.17
29.71
18.36
8.61
3.14
2.44
4.80
7.51
8.70
8.60
9.35
13.52
22.23
34.19
45.95
53.35
53.23
44.44
27.72
4.96
-21.92
-51.53
-82.92
-115.15
-146.68
-175.29
-198.31
-213.30
-218.66
-214.14
-200.83
-180.91
-157.19
-132.47
-109.02
-88.29
-70.87
-56.75
-45.58
-36.94
-30.36
-25.27
-20.97
-16.74
-12.05
-6.72
-1.05
4.26
8.34
10.39
9.97
7.23
2.85
-2.14
-6.62
-9.76
-11.32
-11.64
-11.52
-11.78
-12.96
-15.17
-18.17
-21.73
-25.81
-30.59
-36.18
-42.47
-49.10
-55.85
-62.89
-70.83
-80.39
-91.66
-103.82
-115.25
-124.28
-130.11
-133.21
-134.96
-136.74
-138.83
-140.16
-138.72
-132.69
-121.50
-106.24
-89.22
-73.03
-59.47
-49.08
-41.14
-34.19
-26.65
-17.18
-4.84
10.90
30.07
51.99
75.14
97.26
115.95
129.39
137.01
139.63
139.05
137.23
135.43
133.73
131.23
126.56
118.77
107.76
94.39
80.21
66.89
55.69
47.14
40.84
35.51
29.58
21.76
12.02
2.05
-4.90
-5.12
4.04
22.65
47.79
74.27
96.30
109.34
111.46
103.60
88.90
71.51
55.22
42.60
34.57
30.73
29.89
30.81
32.55
34.60
36.55
37.77
37.32
34.13
27.46
17.32
4.87
-7.83
-18.13
-23.58
-22.72
-15.70
-4.37
8.30
19.31
26.63
29.74
29.44
27.11
23.90
20.47
17.22
14.74
14.14
16.77
23.67
34.93
49.48
65.28
79.77
90.56
96.00
95.56
90.03
81.29
71.79
63.83
58.95
57.53
58.92
61.78
64.60
66.11
65.38
61.89
55.54
46.69
36.32
25.90
17.17
11.75
10.58
13.70
20.14
28.21
35.89
41.35
43.17
40.38
32.60
20.06
3.70
-14.81
-33.41
-50.20
-64.12
-75.19
-84.23
-92.18
-99.23
-104.58
-106.80
-104.74
-98.50
-89.59
-80.56
-73.87
-70.95
-71.73
-75.06
-79.39
-83.59
-87.21
-90.20
-92.44
-93.31
-91.68
-86.43
-77.11
-64.47
-50.46
-37.63
-28.16
-22.95
-21.25
-20.93
-19.39
-14.60
-5.93
5.63
17.95
28.57
35.51
37.79
35.52
29.62
21.40
12.24
3.32
-4.50
-10.75
-15.22
-18.02
-19.28
-19.20
-17.89
-15.42
-11.86
-7.41
-2.44
2.55
7.00
10.39
12.43
13.03
12.34
10.65
8.31
5.67
3.07
0.78
-1.05
-2.50
-3.83
-5.43
-7.72
-10.89
-14.79
-18.93
-22.54
-24.84
-25.20
-23.42
-19.77
-15.00
-10.20
-6.55
-5.06
-6.22
-10.03
-15.95
-23.10
-30.33
-36.46
-40.43
-41.43
-39.06
-33.40
-24.95
-14.44
-2.69
9.57
21.60
32.51
41.33
47.10
49.17
47.53
42.85
36.30
29.21
22.68
17.34
13.32
10.44
8.34
6.72
5.40
4.41
3.84
3.72
3.86
3.89
3.32
1.78
-0.71
-3.75
-6.57
-8.29
-8.10
-5.52
-0.50
6.48
14.48
22.35
28.93
33.43
35.52
35.35
33.31
29.82
25.19
19.67
13.61
7.42
1.64
-3.33
-7.36
-10.55
-13.14
-15.30
-16.91
-17.73
-17.57
-16.51
-15.02
-13.83
-13.70
-15.11
-18.15
-22.52
-27.70
-33.08
-38.00
-41.66
-43.27
-42.10
-37.97
-31.36
-23.37
-15.21
-7.72
-1.04
5.23
11.53
17.75
23.07
26.33
26.58
23.73
18.62
12.68
7.30
3.34
0.96
-0.16
-0.44
-0.18
0.53
1.70
3.16
4.57
5.42
5.31
4.19
2.43
0.78
-0.04
0.45
2.16
4.56
6.95
8.73
9.67
9.82
9.49
8.99
8.57
8.26
8.02
7.73
7.35
6.94
6.69
6.84
7.62
9.04
10.87
12.70
14.11
14.85
15.01
14.93
15.01
15.44
16.07
16.46
16.12
14.70
12.19
8.93
5.46
2.38
0.15
-1.01
-1.18
-0.72
-0.12
0.17
-0.03
-0.62
-1.32
-1.92
-2.50
-3.44
-5.30
-8.50
-13.04
-18.33
-23.37
-27.01
-28.38
-27.12
-23.42
-17.89
-11.30
-4.32
2.63
9.31
15.65
21.47
26.50
30.48
33.29
35.00
35.88
36.26
36.32
36.09
35.43
34.16
32.24
29.79
27.13
24.73
22.99
22.13
22.05
22.32
22.16
20.70
17.18
11.33
3.48
-5.46
-14.29
-21.85
-27.41
-30.75
-32.10
-31.96
-30.93
-29.59
-28.50
-28.23
-29.25
-31.89
-36.19
-41.85
-48.22
-54.48
-59.68
-62.97
-63.72
-61.69
-57.12
-50.72
-43.34
-35.79
-28.48
-21.45
-14.54
-7.63
-0.94
5.01
9.61
12.47
13.64
13.65
13.28
13.27
14.15
16.07
18.90
22.30
25.87
29.22
31.98
33.92
34.93
35.05
34.44
33.28
31.83
30.32
28.97
27.89
27.15
26.65
26.20
25.54
24.44
22.68
20.14
16.77
12.63
7.88
2.78
-2.41
-7.43
-12.15
-16.49
-20.41
-23.91
-26.94
-29.39
-31.17
-32.15
-32.20
-31.25
-29.39
-26.84
-24.05
-21.51
-19.65
-18.75
-18.83
-19.71
-21.02
-22.30
-23.04
-22.80
-21.35
-18.74
-15.44
-12.09
-9.37
-7.64
-6.90
-6.75
-6.73
-6.49
-5.92
-5.11
-4.15
-2.96
-1.29
1.11
4.35
8.25
12.43
16.52
20.42
24.36
28.75
33.85
39.54
45.28
50.26
53.72
55.21
54.72
52.59
49.30
45.30
40.91
36.31
31.57
26.61
21.23
15.09
7.83
-0.70
-10.27
-20.10
-29.05
-35.86
-39.63
-40.14
-37.97
-34.28
-30.50
-27.75
-26.62
-27.02
-28.37
-29.90
-30.94
-31.16
-30.60
-29.59
-28.60
-28.09
-28.37
-29.56
-31.62
-34.26
-37.14
-39.82
-41.88
-42.92
-42.65
-40.98
-37.94
-33.68
-28.33
-21.91
-14.37
-5.67
4.05
14.33
24.37
33.24
40.04
44.23
45.73
44.88
42.29
38.71
34.83
31.21
28.24
26.13
24.96
24.68
25.18
26.28
27.70
29.12
30.20
30.73
30.60
29.89
28.72
27.18
25.23
22.78
19.77
16.32
12.73
9.38
6.63
4.64
3.38
2.61
1.98
1.10
-0.34
-2.53
-5.51
-9.10
-13.01
-16.82
-20.20
-22.92
-24.99
-26.58
-27.93
-29.16
-30.19
-30.77
-30.59
-29.41
-27.26
-24.42
-21.36
-18.57
-16.32
-14.63
-13.31
-12.11
-10.87
-9.59
-8.35
-7.21
-6.12
-5.09
-4.19
-3.53
-3.12
-2.66
-1.48
1.31
6.35
13.55
21.93
29.83
35.50
37.86
36.81
33.12
27.98
22.38
16.84
11.39
5.89
0.25
-5.28
-10.26
-14.21
-16.82
-18.13
-18.41
-18.06
-17.37
-16.41
-15.02
-12.96
-10.15
-6.78
-3.39
-0.60
1.02
1.16
-0.23
-2.76
-5.80
-8.50
-9.96
-9.56
-7.05
-2.66
3.02
9.17
15.09
20.17
24.02
26.41
27.21
26.38
24.03
20.42
15.85
10.68
5.23
-0.19
-5.30
-9.83
-13.58
-16.49
-18.66
-20.30
-21.63
-22.81
-23.85
-24.64
-25.08
-25.15
-24.93
-24.64
-24.46
-24.42
-24.42
-24.22
-23.60
-22.47
-20.94
-19.28
-17.82
-16.80
-16.29
-16.16
-16.19
-16.13
-15.89
-15.51
-15.05
-14.43
-13.30
-11.12
-7.44
-2.13
4.50
11.88
19.46
26.97
34.43
41.89
49.15
55.61
60.46
63.00
62.96
60.54
56.33
50.94
44.83
38.30
31.61
25.08
19.10
14.02
9.99
6.85
4.19
1.52
-1.49
-4.89
-8.38
-11.51
-13.86
-15.19
-15.49
-14.97
-13.92
-12.56
-11.00
-9.30
-7.45
-5.44
-3.27
-0.93
1.58
4.25
6.95
9.43
11.37
12.43
12.35
11.10
8.84
5.97
2.97
0.29
-1.79
-3.19
-4.05
-4.63
-5.16
-5.80
-6.55
-7.32
-7.97
-8.40
-8.57
-8.48
-8.29
-8.21
-8.52
-9.50
-11.29
-13.73
-16.37
-18.59
-19.78
-19.56
-17.91
-15.20
-11.96
-8.82
-6.26
-4.54
-3.69
-3.51
-3.62
-3.57
-2.98
-1.67
0.21
2.20
3.67
4.09
3.21
1.18
-1.57
-4.52
-7.23
-9.46
-11.13
-12.20
-12.68
-12.60
-12.06
-11.16
-10.03
-8.75
-7.39
-5.93
-4.42
-2.98
-1.71
-0.73
0.03
0.81
1.99
4.05
7.30
11.70
16.67
21.21
24.16
24.67
22.52
18.28
13.00
7.80
3.47
0.24
-2.03
-3.57
-4.57
-5.08
-5.16
-5.00
-4.87
-5.02
-5.48
-6.11
-6.65
-6.90
-6.84
-6.58
-6.29
-6.16
-6.23
-6.53
-7.00
-7.50
-7.87
-7.93
-7.58
-6.84
-5.88
-4.94
-4.19
-3.65
-3.17
-2.56
-1.71
-0.69
0.27
0.99
1.40
1.58
1.73
1.94
2.17
2.26
2.09
1.61
0.92
0.14
-0.59
-1.22
-1.74
-2.10
-2.20
-1.88
-1.10
0.13
1.63
3.20
4.67
5.96
7.09
