1539087585.00
64.000000
-0.00
-0.00
-0.00
-0.00
-0.00
-0.00
-0.00
-0.00
-0.00
-0.00
0.00
0.01
0.01
-0.00
-0.03
-0.05
-0.05
0.00
0.13
0.36
0.66
1.01
1.37
1.72
2.06
2.40
2.79
3.24
3.80
4.42
5.06
5.66
6.20
6.68
7.15
7.68
8.31
9.15
10.11
11.07
11.94
12.66
13.28
13.96
14.94
16.35
18.42
20.95
23.68
26.32
28.68
30.85
33.12
35.95
39.63
44.56
50.37
56.55
62.52
67.91
72.79
77.64
83.17
89.89
98.35
108.04
118.17
127.86
136.53
144.22
151.54
159.85
167.86
177.81
190.32
205.48
222.10
237.25
246.61
245.52
230.66
201.15
159.39
109.21
54.94
-0.20
-54.64
-108.16
-160.87
-212.44
-261.97
-308.02
-349.64
-386.16
-416.98
-441.26
-457.65
-464.50
-460.12
-443.62
-415.09
-376.16
-329.40
-277.84
-224.39
-171.45
-121.46
-75.66
-34.67
1.39
32.37
58.28
79.30
95.81
108.44
117.98
125.39
131.40
136.52
140.87
144.44
147.10
148.81
149.50
149.23
148.20
146.51
144.17
141.08
137.07
131.96
126.06
119.55
112.62
105.47
98.28
91.13
84.10
77.23
70.57
64.17
57.99
52.02
46.28
40.76
35.46
30.39
25.56
20.96
16.64
12.58
8.77
5.22
1.95
-1.03
-3.71
-6.08
-8.15
-9.91
-11.40
-12.64
-13.66
-14.49
-15.15
-15.67
-16.06
-16.36
-16.56
-16.72
-16.85
-16.98
-17.11
-17.27
-17.43
-17.61
-17.77
-17.93
-18.05
-18.14
-18.17
-18.14
-18.06
-17.90
-17.68
-17.39
-17.04
-16.63
-16.17
-15.68
-15.15
-14.61
-14.06
-13.52
-13.00
-12.51
-12.06
-11.65
-11.29
-10.95
-10.64
-10.34
-10.05
-9.73
-9.39
-9.02
-8.61
-8.15
-7.66
-7.13
-6.56
-5.93
-5.25
-4.50
-3.67
-2.75
-1.77
-0.75
0.33
1.45
2.64
3.94
5.36
6.91
8.55
10.25
11.98
13.73
15.49
17.31
19.23
21.26
23.34
25.34
27.00
28.01
28.05
26.86
24.27
20.20
14.64
7.63
-0.80
-10.56
-21.49
-33.29
-45.44
-57.27
-68.07
-77.23
-84.46
-89.85
-93.82
-96.96
-99.78
-102.55
-105.16
-107.35
-108.82
-109.54
-109.90
-110.58
-112.38
-115.80
-120.91
-127.22
-133.97
-140.43
-146.22
-151.44
-156.60
-162.50
-170.13
-180.52
-194.37
-211.46
-230.08
-246.89
-257.57
-258.16
-246.58
-223.49
-192.01
-156.47
-120.84
-87.61
-57.60
-30.64
-6.38
15.21
33.91
49.64
62.80
74.17
84.49
94.10
102.81
110.01
115.03
117.54
117.74
116.23
113.80
111.20
108.85
106.79
104.78
102.44
99.47
95.79
91.52
86.97
82.48
78.28
74.42
70.75
67.02
63.04
58.76
54.40
50.29
46.76
43.94
41.70
39.77
37.85
35.80
33.58
31.29
29.01
26.76
24.59
22.58
20.85
19.47
18.44
17.57
16.64
15.54
14.36
13.32
12.63
12.30
12.16
11.93
11.41
10.57
9.60
8.76
8.26
8.18
8.45
8.90
9.38
9.77
10.03
10.13
10.06
9.81
9.40
8.86
8.28
7.75
7.33
7.06
6.89
6.76
6.63
6.46
6.27
6.03
5.73
5.33
4.88
4.46
4.21
4.23
4.53
4.99
5.38
5.54
5.39
5.01
4.61
4.37
4.41
4.66
4.95
5.11
5.05
4.83
4.58
4.43
4.41
4.45
4.44
4.28
3.96
3.55
3.16
2.89
2.78
2.82
2.98
3.25
3.61
4.08
4.60
5.09
5.42
5.46
5.15
4.57
3.83
3.17
2.74
2.62
2.73
2.92
3.05
3.02
2.85
2.65
2.53
2.58
2.77
3.00
3.13
3.06
2.79
2.44
2.17
2.09
2.18
2.33
2.38
2.25
1.96
1.64
1.42
1.34
1.38
1.44
1.49
1.57
1.74
2.06
2.52
2.96
3.20
3.11
2.69
2.11
1.56
1.24
1.20
1.41
1.74
2.03
2.18
2.15
1.95
1.62
1.24
0.89
0.68
0.74
1.10
1.70
2.39
2.93
3.13
2.95
2.48
1.97
1.64
1.66
1.99
2.48
2.93
3.19
3.19
2.94
2.53
2.07
1.62
1.23
0.93
0.72
0.59
0.54
0.54
0.57
0.61
0.66
0.72
0.78
0.82
0.82
0.75
0.66
0.59
0.64
0.85
1.18
1.51
1.69
1.61
1.27
0.80
0.36
0.08
0.02
0.11
0.32
0.56
0.77
0.89
0.87
0.72
0.50
0.32
0.23
0.23
0.29
0.37
0.49
0.75
1.18
1.76
2.36
2.77
2.89
2.71
2.34
1.98
1.76
1.65
1.58
1.43
1.13
0.73
0.34
0.08
0.00
0.09
0.24
0.37
0.42
0.39
0.39
0.48
0.71
1.06
1.41
1.69
1.84
1.92
1.99
2.10
2.23
2.29
2.20
1.90
1.44
0.92
0.47
0.15
-0.03
-0.10
-0.14
-0.22
-0.40
-0.67
-1.00
-1.29
-1.44
-1.40
-1.16
-0.79
-0.39
-0.03
0.25
0.48
0.70
0.94
1.24
1.59
1.91
2.13
2.15
1.90
1.44
0.90
0.45
0.19
0.10
0.10
0.08
0.04
0.08
0.28
0.66
1.07
1.33
1.33
1.11
0.89
0.92
1.28
1.86
2.38
2.53
2.16
1.37
0.41
-0.43
-0.93
-1.04
-0.87
-0.58
-0.30
-0.11
0.03
0.16
0.30
0.46
0.57
0.60
0.57
0.51
0.50
0.56
0.66
0.75
0.77
0.65
0.39
0.02
-0.39
-0.73
-0.88
-0.75
-0.33
0.27
0.83
1.14
1.10
0.75
0.33
0.04
-0.01
0.14
0.36
0.52
0.59
0.70
0.97
1.44
2.05
2.57
2.82
2.66
2.14
1.42
0.73
0.23
0.01
0.01
0.13
0.30
0.46
0.61
0.79
0.96
1.03
0.90
0.51
-0.06
-0.64
-1.07
-1.24
-1.14
-0.89
-0.63
-0.41
-0.23
-0.05
0.15
0.35
0.50
0.59
0.64
0.69
0.79
0.93
1.05
1.09
1.00
0.79
0.55
0.42
0.54
0.92
1.46
1.94
2.13
1.84
1.11
0.15
-0.74
-1.25
-1.26
-0.84
-0.19
0.42
0.78
0.80
0.52
0.07
-0.42
-0.78
-0.93
-0.83
-0.52
-0.11
0.27
0.55
0.66
0.59
0.42
0.24
0.15
0.27
0.60
1.11
1.61
1.90
1.82
1.34
0.58
-0.24
-0.85
-1.09
-0.93
-0.48
0.08
0.58
0.95
1.14
1.20
1.18
1.09
0.97
0.85
0.76
0.80
1.03
1.45
1.96
2.38
2.49
2.17
1.45
0.47
-0.56
-1.45
-2.04
-2.27
-2.12
-1.66
-1.03
-0.43
-0.02
0.10
0.00
-0.17
-0.28
-0.22
-0.02
0.26
0.58
0.90
1.22
1.47
1.56
1.43
1.05
0.47
-0.18
-0.70
-0.96
-0.87
-0.42
0.25
0.98
1.50
1.68
1.51
1.12
0.75
0.55
0.56
0.65
0.66
0.52
0.27
0.04
-0.04
0.05
0.21
0.33
0.31
0.15
-0.11
-0.33
-0.40
-0.24
0.12
0.59
1.01
1.21
1.10
0.76
0.32
-0.05
-0.26
-0.30
-0.27
-0.21
-0.18
-0.09
0.09
0.37
0.66
0.86
0.88
0.76
0.63
0.59
0.71
0.93
1.10
1.09
0.83
0.32
-0.29
-0.84
-1.19
-1.31
-1.28
-1.20
-1.14
-1.10
-1.01
-0.80
-0.45
-0.03
0.32
0.45
0.33
0.06
-0.15
-0.06
0.44
1.23
2.05
2.61
2.72
2.42
1.88
1.33
0.93
0.67
0.50
0.31
0.08
-0.12
-0.18
0.01
0.44
0.98
1.42
1.54
1.27
0.69
0.00
-0.55
-0.83
-0.88
-0.83
-0.80
-0.81
-0.77
-0.59
-0.29
0.00
0.08
-0.10
-0.47
-0.77
-0.75
-0.33
0.37
1.07
1.48
1.48
1.13
0.65
0.30
0.23
0.42
0.71
0.93
0.96
0.78
0.48
0.20
0.04
0.04
0.10
0.14
0.07
-0.10
-0.32
-0.49
-0.56
-0.50
-0.34
-0.12
0.16
0.47
0.75
0.96
1.05
1.01
0.89
0.75
0.62
0.47
0.22
-0.14
-0.55
-0.88
-1.00
-0.91
-0.70
-0.56
-0.57
-0.72
-0.88
-0.88
-0.66
-0.25
0.25
0.72
1.12
1.46
1.73
1.88
1.82
1.51
0.98
0.35
-0.18
-0.45
-0.42
-0.12
0.29
0.68
0.89
0.88
0.65
0.30
-0.03
-0.19
-0.02
0.47
1.18
1.90
2.38
2.41
1.99
1.23
0.40
-0.21
-0.42
-0.19
0.38
1.07
1.64
1.90
1.78
1.33
0.74
0.19
-0.16
-0.24
-0.11
0.15
0.37
0.45
0.28
-0.17
-0.86
-1.65
-2.32
-2.66
-2.50
-1.83
-0.77
0.44
1.53
2.34
2.85
3.11
3.20
3.11
2.74
2.01
0.92
-0.34
-1.53
-2.39
-2.79
-2.79
-2.54
-2.22
-1.91
-1.65
-1.40
-1.15
-0.93
-0.77
-0.68
-0.62
-0.51
-0.29
0.05
0.49
0.96
1.39
1.70
1.86
1.87
1.73
1.53
1.38
1.34
1.42
1.51
1.46
1.16
0.66
0.09
-0.30
-0.36
-0.08
0.38
0.78
0.93
0.81
0.53
0.23
0.05
0.02
0.08
0.18
0.31
0.47
0.67
0.86
0.94
0.87
0.61
0.24
-0.12
-0.39
-0.54
-0.61
-0.65
-0.72
-0.82
-0.99
-1.27
-1.65
-2.03
-2.24
-2.07
-1.44
-0.47
0.53
1.19
1.32
0.95
0.40
0.04
0.08
0.47
0.93
1.15
0.98
0.51
-0.01
-0.34
-0.35
-0.12
0.19
0.38
0.38
0.21
0.01
-0.12
-0.12
0.02
0.24
0.48
0.69
0.83
0.86
0.79
0.62
0.36
0.06
-0.26
-0.55
-0.82
-1.08
-1.31
-1.45
-1.40
-1.06
-0.40
0.40
1.07
1.34
1.11
0.54
-0.04
-0.31
-0.13
0.43
1.13
1.71
2.04
2.13
2.03
1.79
1.44
0.97
0.43
-0.05
-0.31
-0.27
0.06
0.49
0.82
0.90
0.73
0.44
0.19
0.12
0.22
0.36
0.43
0.36
0.18
0.01
-0.04
0.05
0.21
0.30
0.20
-0.08
-0.48
-0.80
-0.90
-0.69
-0.22
0.37
0.88
1.15
1.10
0.81
0.41
0.03
-0.27
-0.52
-0.75
-0.91
-0.90
-0.63
-0.10
0.51
0.95
1.01
0.67
0.10
-0.40
-0.64
-0.59
-0.43
-0.32
-0.34
-0.40
-0.37
-0.15
0.18
0.43
0.46
0.24
-0.07
-0.22
-0.04
0.46
1.07
1.52
1.62
1.37
0.93
0.49
0.18
-0.00
-0.13
-0.26
-0.41
-0.57
-0.72
-0.86
-0.96
-0.97
-0.77
-0.25
0.60
1.63
2.57
3.16
3.21
2.74
1.91
0.93
0.02
-0.69
-1.11
-1.24
-1.09
-0.75
-0.34
-0.02
0.10
-0.05
-0.40
-0.84
-1.18
-1.31
-1.20
-0.86
-0.45
-0.10
0.07
0.06
-0.07
-0.19
-0.18
0.03
0.43
0.92
1.35
1.58
1.53
1.20
0.67
0.08
-0.44
-0.80
-0.95
-0.91
-0.72
-0.44
-0.13
0.15
0.36
0.49
0.57
0.64
0.77
0.95
1.13
1.22
1.15
0.92
0.59
0.26
0.01
-0.11
-0.10
0.05
0.35
0.77
1.20
1.48
1.38
0.79
-0.23
-1.45
-2.53
-3.14
-3.16
-2.66
-1.87
-1.06
-0.40
0.06
0.37
0.62
0.81
0.90
0.87
0.74
0.60
0.57
0.72
0.99
1.25
1.36
1.25
0.95
0.55
0.17
-0.10
-0.21
-0.19
-0.07
0.09
0.22
0.26
0.17
-0.02
-0.24
-0.43
-0.52
-0.48
-0.38
-0.29
-0.31
-0.53
-0.96
-1.54
-2.12
-2.50
-2.54
-2.20
-1.57
-0.82
-0.17
0.26
0.44
0.47
0.50
0.64
0.89
1.16
1.33
1.28
1.08
0.90
0.89
1.17
1.63
2.02
2.08
1.66
0.85
-0.10
-0.85
-1.19
-1.06
-0.61
-0.02
0.51
0.87
1.02
0.96
0.76
0.48
0.20
-0.04
-0.20
-0.25
-0.17
0.02
0.34
0.75
1.20
1.61
1.87
1.90
1.64
1.13
0.49
-0.13
-0.55
-0.66
-0.46
-0.06
0.38
0.76
1.03
1.18
1.24
1.20
1.04
0.78
0.52
0.42
0.62
1.11
1.77
2.33
2.57
2.41
1.96
1.40
0.92
0.61
0.41
0.24
0.04
-0.21
-0.45
-0.59
-0.59
-0.47
-0.35
-0.36
-0.63
-1.21
-2.01
-2.82
-3.35
-3.42
-3.03
-2.35
-1.61
-1.00
-0.54
-0.15
0.25
0.63
0.84
0.76
0.34
-0.27
-0.82
-1.11
-1.05
-0.70
-0.25
0.11
0.26
0.16
-0.09
-0.33
-0.40
-0.24
0.13
0.55
0.82
0.85
0.68
0.46
0.37
0.52
0.85
1.20
1.39
1.31
1.02
0.68
0.45
0.44
0.62
0.86
0.98
0.86
0.51
0.06
-0.32
-0.52
-0.49
-0.28
-0.03
0.19
0.31
0.36
0.36
0.34
0.33
0.33
0.33
0.30
0.23
0.14
0.03
-0.10
-0.31
-0.67
-1.18
-1.76
-2.22
-2.30
-1.88
-1.02
-0.03
0.73
0.94
0.58
-0.17
-0.95
-1.41
-1.40
-0.96
-0.27
0.44
1.01
1.41
1.65
1.74
1.75
1.66
1.50
1.33
1.17
1.08
1.07
1.12
1.16
1.18
1.14
1.07
1.00
0.94
0.90
0.84
0.73
0.53
0.30
0.07
-0.10
-0.11
0.06
0.40
0.84
1.21
1.36
1.20
0.75
0.16
-0.33
-0.53
-0.38
-0.01
0.39
0.59
0.49
0.16
-0.26
-0.60
-0.78
-0.78
-0.67
-0.49
-0.33
-0.26
-0.34
-0.62
-1.08
-1.67
-2.25
-2.70
-2.92
-2.86
-2.57
-2.17
-1.85
-1.75
-1.94
-2.35
-2.72
-2.79
-2.39
-1.54
-0.49
0.41
0.95
1.10
1.06
1.06
1.22
1.52
1.83
2.06
2.27
2.55
2.94
3.34
3.52
3.25
2.47
1.36
0.30
-0.30
-0.25
0.36
1.19
1.86
2.10
1.89
1.43
0.98
0.79
0.92
1.25
1.57
1.69
1.52
1.16
0.78
0.51
0.37
0.23
-0.07
-0.62
-1.35
-2.06
-2.51
-2.54
-2.20
-1.65
-1.10
-0.68
-0.43
-0.25
-0.03
0.28
0.65
0.99
1.23
1.30
1.22
1.05
0.80
0.50
0.16
-0.19
-0.51
-0.78
-1.00
-1.20
-1.42
-1.64
-1.82
-1.85
-1.72
-1.51
-1.36
-1.43
-1.72
-2.09
-2.26
-2.00
-1.25
-0.19
0.82
1.41
1.39
0.82
-0.02
-0.76
-1.15
-1.12
-0.84
-0.50
-0.30
-0.23
-0.21
-0.05
0.33
0.90
1.52
2.07
2.45
2.66
2.67
2.49
2.10
1.54
0.96
0.54
0.45
0.71
1.22
1.73
2.02
1.97
1.59
1.01
0.29
-0.45
-1.15
-1.64
-1.77
-1.46
-0.80
-0.03
0.47
0.49
0.00
-0.73
-1.30
-1.35
-0.75
0.37
1.65
2.68
3.13
2.89
2.04
0.81
-0.49
-1.52
-2.04
-1.92
-1.22
-0.18
0.76
1.22
0.98
0.15
-0.85
-1.55
-1.62
-1.10
-0.29
0.35
0.55
0.26
-0.27
-0.74
-0.92
-0.73
-0.28
0.25
0.71
1.04
1.24
1.36
1.44
1.49
1.49
1.41
1.22
0.97
0.72
0.54
0.47
0.50
0.55
0.55
0.43
0.21
-0.07
-0.33
-0.52
-0.61
-0.57
-0.40
-0.09
0.32
0.73
0.99
0.95
0.50
-0.33
-1.37
-2.37
-3.11
-3.46
-3.43
-3.15
-2.74
-2.30
-1.82
-1.28
-0.69
-0.10
0.32
0.43
0.15
-0.45
-1.15
-1.64
-1.72
-1.33
-0.62
0.17
0.80
1.13
1.14
0.87
0.46
0.04
-0.24
-0.24
0.10
0.75
1.57
2.36
2.97
3.38
3.61
3.72
3.66
3.38
2.83
2.12
1.45
1.07
1.06
1.35
1.70
1.84
1.64
1.13
0.41
-0.35
-1.06
-1.65
-2.09
-2.35
-2.39
-2.25
-1.99
-1.75
-1.61
-1.58
-1.61
-1.62
-1.53
-1.34
-1.12
-0.94
-0.84
-0.79
-0.67
-0.36
0.22
1.03
1.90
2.61
2.95
2.84
2.36
1.68
1.00
0.47
0.10
-0.13
-0.29
-0.43
-0.51
-0.53
-0.48
-0.42
-0.40
-0.49
-0.70
-1.04
-1.42
-1.74
-1.89
-1.77
-1.39
-0.88
-0.44
-0.27
-0.44
-0.82
-1.16
-1.20
-0.79
0.00
1.02
2.05
2.95
3.59
3.87
3.62
2.75
1.30
-0.44
-2.08
-3.21
-3.64
-3.42
-2.83
-2.13
-1.47
-0.87
-0.25
0.36
0.87
1.16
1.17
1.00
0.85
0.91
1.25
1.82
2.47
3.06
3.47
3.67
3.60
3.29
2.78
2.17
1.60
1.15
0.76
0.27
-0.47
-1.44
-2.44
-3.12
-3.22
-2.67
-1.71
-0.71
-0.03
0.12
-0.22
-0.86
-1.56
-2.10
-2.30
-2.14
-1.69
-1.09
-0.53
-0.16
-0.01
-0.03
-0.15
-0.26
-0.31
-0.29
-0.24
-0.19
-0.19
-0.25
-0.31
-0.30
-0.10
0.32
0.88
1.38
1.65
1.61
1.35
1.09
0.99
1.06
1.11
0.89
0.31
-0.51
-1.26
-1.62
-1.45
-0.84
-0.04
0.65
1.02
1.00
0.63
-0.00
-0.78
-1.53
-2.02
-2.07
-1.56
-0.60
0.55
1.52
2.01
1.96
1.53
1.02
0.71
0.72
0.97
1.26
1.41
1.32
1.05
0.71
0.49
0.52
0.83
1.31
1.78
2.04
2.02
1.73
1.27
0.75
0.21
-0.33
-0.88
-1.32
-1.49
-1.31
-0.80
-0.21
0.20
0.20
-0.17
-0.70
-1.13
-1.28
-1.22
-1.08
-1.04
-1.12
-1.26
-1.34
-1.26
-1.04
-0.79
-0.58
-0.46
-0.40
-0.33
-0.23
-0.10
0.02
0.09
0.12
0.16
0.22
0.27
0.25
0.11
-0.13
-0.36
-0.44
-0.31
-0.07
0.08
-0.05
-0.46
-0.96
-1.24
-1.13
-0.68
-0.16
0.11
-0.08
-0.60
-1.15
-1.40
-1.23
-0.73
-0.17
0.24
0.46
0.60
0.80
1.16
1.60
1.93
2.01
1.83
1.49
1.21
1.16
1.40
1.81
2.16
2.22
1.91
1.30
0.65
0.18
0.04
0.17
0.39
0.46
0.28
-0.11
-0.56
-0.88
-0.97
-0.89
-0.74
-0.62
-0.60
-0.61
-0.57
-0.44
-0.20
0.08
0.31
0.43
0.42
0.31
0.12
-0.07
-0.22
-0.26
-0.18
-0.04
0.07
0.06
-0.06
-0.14
-0.01
0.43
1.14
1.84
2.31
2.39
2.16
1.85
1.70
1.79
2.10
2.47
2.82
3.16
3.52
3.97
4.49
5.00
5.44
5.76
5.98
6.14
6.28
6.46
6.73
7.11
7.63
8.24
8.90
9.58
10.33
11.16
12.00
12.63
12.75
12.12
10.69
8.68
6.46
4.36
2.56
1.06
-0.31
-1.79
-3.54
-5.64
-8.08
-10.76
-13.52
-16.20
-18.66
-20.79
-22.52
-23.79
-24.60
-24.96
-24.93
-24.61
-24.08
-23.35
-22.42
-21.31
-20.07
-18.82
-17.63
-16.48
-15.26
-13.84
-12.21
-10.44
-8.67
-6.96
-5.27
-3.46
-1.40
0.88
3.22
5.39
7.20
8.66
9.86
10.92
11.88
12.69
13.20
13.37
13.20
12.76
12.16
11.46
10.67
9.86
9.12
8.54
8.17
7.92
7.65
7.17
6.40
5.43
4.41
3.55
2.91
2.50
2.15
1.68
0.87
-0.36
-1.92
-3.50
-4.63
-4.98
-4.49
-3.61
-3.09
-3.67
-5.67
-8.80
-12.24
-15.06
-16.66
-17.04
-16.87
-17.11
-18.67
-22.03
-26.98
-32.71
-37.93
-41.14
-41.00
-36.62
-27.98
-16.10
-2.92
9.09
17.74
21.83
21.69
19.15
16.84
17.27
21.69
29.71
39.45
48.41
54.53
56.85
55.65
51.95
46.84
40.98
34.58
27.72
20.73
14.36
9.49
6.63
5.59
5.46
5.09
3.70
1.20
-1.75
-4.16
-5.32
-5.07
-3.93
-2.73
-2.19
-2.65
-3.97
-5.73
-7.45
-8.79
-9.65
-10.09
-10.22
-10.19
-10.06
-9.88
-9.60
-9.19
-8.56
-7.68
-6.63
-5.58
-4.80
-4.54
-4.88
-5.67
-6.53
-7.00
-6.77
-5.80
-4.36
-2.83
-1.63
-1.00
-0.96
-1.37
-2.01
-2.62
-2.95
-2.85
-2.33
-1.55
-0.78
-0.26
-0.08
-0.19
-0.43
-0.67
-0.88
-1.11
-1.38
-1.63
-1.70
-1.46
-0.91
-0.22
0.33
0.48
0.12
-0.64
-1.51
-2.18
-2.43
-2.19
-1.62
-1.01
-0.59
-0.48
-0.61
-0.81
-0.96
-1.04
-1.14
-1.37
-1.66
-1.79
-1.46
-0.47
1.13
2.95
4.47
5.25
5.16
4.46
3.66
3.28
3.57
4.45
5.53
6.37
6.72
6.65
6.47
6.55
7.09
8.05
9.13
9.96
10.29
10.08
9.52
8.95
8.77
9.27
10.58
12.54
14.74
16.61
17.50
16.93
14.58
10.49
5.01
-1.08
-6.68
-10.64
-12.15
-11.21
-8.69
-6.10
-4.91
-5.88
-8.72
-12.33
-15.45
-17.32
-18.00
-18.14
-18.50
-19.42
-20.78
-22.11
-22.96
-23.13
-22.71
-21.95
-21.08
-20.09
-18.84
-17.11
-14.81
-12.07
-9.26
-6.79
-4.96
-3.81
-3.07
-2.38
-1.43
-0.15
1.26
2.47
3.20
3.37
3.08
2.54
1.93
1.32
0.63
-0.19
-1.19
-2.27
-3.26
-3.96
-4.28
-4.29
-4.11
-3.90
-3.65
-3.24
-2.43
-1.08
0.72
2.71
4.57
6.09
7.28
8.30
9.34
10.47
11.61
12.56
13.18
13.48
13.66
13.96
14.52
15.33
16.21
16.88
17.07
16.67
15.73
14.50
13.25
12.26
11.62
11.22
10.85
10.24
9.29
8.03
6.70
5.56
4.79
4.35
4.07
3.73
3.20
2.57
2.01
1.69
1.59
1.50
1.13
0.22
-1.24
-3.03
-4.79
-6.24
-7.24
-7.84
-8.24
-8.68
-9.37
-10.45
-11.93
-13.72
-15.61
-17.39
-18.89
-20.04
-20.79
-21.19
-21.30
-21.13
-20.70
-19.98
-18.94
-17.48
-15.55
-13.09
-10.03
-6.43
-2.41
1.76
5.74
9.18
11.82
13.66
14.93
16.04
17.36
19.01
20.77
22.18
22.75
22.21
20.64
18.39
15.90
13.54
11.45
9.62
7.99
6.58
5.48
4.79
4.54
4.54
4.48
4.05
3.04
1.53
-0.17
-1.66
-2.62
-2.95
-2.87
-2.73
-2.90
-3.49
-4.38
-5.21
-5.65
-5.50
-4.88
-4.11
-3.56
-3.40
-3.58
-3.82
-3.85
-3.56
-3.05
-2.51
-2.15
-1.94
-1.77
-1.55
-1.25
-1.03
-1.09
-1.55
-2.33
-3.18
-3.74
-3.78
-3.26
-2.37
-1.43
-0.67
-0.21
-0.01
0.04
0.06
0.06
0.04
-0.05
-0.18
-0.26
-0.20
0.03
0.37
0.66
0.74
0.53
0.08
-0.44
-0.80
-0.85
-0.59
-0.14
0.35
0.71
0.85
0.81
0.63
0.38
0.05
-0.38
-0.92
-1.55
-2.14
-2.52
-2.60
-2.35
-1.86
-1.31
-0.86
-0.59
-0.46
-0.39
-0.38
-0.40
-0.55
-0.83
-1.19
-1.47
-1.50
-1.20
-0.63
0.09
0.81
1.42
1.90
2.17
2.17
1.92
1.45
0.96
0.57
0.33
0.19
-0.02
-0.40
-0.94
-1.50
-1.90
-1.99
-1.76
-1.28
-0.67
-0.08
0.39
0.60
0.45
-0.08
-0.86
-1.68
-2.30
-2.51
-2.26
-1.59
-0.62
0.50
1.62
2.59
3.25
3.45
3.15
2.40
1.43
0.55
0.02
-0.05
0.23
0.61
0.86
0.88
0.69
0.46
0.25
0.11
-0.04
-0.23
-0.44
-0.57
-0.55
-0.37
-0.07
0.22
0.43
0.56
0.65
0.73
0.79
0.77
0.61
0.30
-0.16
-0.69
-1.21
-1.67
-1.96
-2.04
-1.91
-1.61
-1.22
-0.81
-0.44
-0.15
0.05
0.17
0.19
0.09
-0.16
-0.50
-0.84
-1.05
-1.06
-0.88
-0.61
-0.35
-0.11
0.16
0.53
1.02
1.50
1.84
1.90
1.72
1.42
1.20
1.16
1.20
1.12
0.75
0.11
-0.59
-1.06
-1.09
-0.67
0.01
0.72
1.27
1.61
1.82
1.93
1.95
1.86
1.61
1.29
0.96
0.70
0.48
0.21
-0.18
-0.64
-1.07
-1.32
-1.35
-1.28
-1.24
-1.35
-1.59
-1.85
-2.00
-1.95
-1.68
-1.25
-0.76
-0.31
0.02
0.17
0.15
0.09
0.16
0.48
1.00
1.53
1.75
1.48
0.74
-0.21
-0.99
-1.34
-1.15
-0.55
0.24
0.95
1.39
1.48
1.21
0.69
0.11
-0.32
-0.44
-0.26
0.06
0.32
0.40
0.31
0.17
0.02
-0.16
-0.47
-0.96
-1.50
-1.79
-1.54
-0.61
0.80
2.26
3.28
3.51
2.90
1.68
0.26
-0.96
-1.66
-1.71
-1.26
-0.60
-0.05
0.13
-0.17
-0.85
-1.69
-2.42
-2.78
-2.59
-1.82
-0.61
0.73
1.79
2.23
1.93
1.02
-0.09
-1.02
-1.45
-1.33
-0.79
-0.03
0.76
1.50
2.07
2.41
2.40
1.98
1.16
0.18
-0.71
-1.22
-1.26
-0.89
-0.32
0.16
0.41
0.33
0.05
-0.33
-0.65
-0.77
-0.61
-0.14
0.53
1.21
1.58
1.43
0.70
-0.39
-1.44
-2.10
-2.18
-1.77
-1.13
-0.52
-0.09
0.18
0.33
0.43
0.41
0.21
-0.17
-0.59
-0.87
-0.82
-0.44
0.12
0.59
0.73
0.49
0.01
-0.47
-0.68
-0.50
0.06
0.82
1.59
2.15
2.39
2.23
1.73
0.98
0.17
-0.54
-1.00
-1.12
-0.93
-0.51
0.00
0.50
0.86
1.04
0.99
0.75
0.37
-0.09
-0.60
-1.11
-1.61
-1.99
-2.15
-1.95
-1.35
-0.44
0.57
1.42
1.93
2.01
1.71
1.20
0.64
0.13
-0.24
-0.45
-0.45
-0.25
0.11
0.57
0.98
1.18
1.05
0.53
-0.35
-1.38
-2.33
-2.93
-3.07
-2.80
-2.28
-1.72
-1.23
-0.86
-0.49
-0.06
0.41
0.78
0.87
0.60
0.07
-0.46
-0.76
-0.68
-0.26
0.33
0.87
1.21
1.32
1.21
1.00
0.75
0.58
0.51
0.55
0.69
0.84
0.98
1.08
1.20
1.34
1.44
1.40
1.11
0.60
-0.00
-0.49
-0.65
-0.42
0.12
0.83
1.51
2.00
2.19
1.99
1.39
0.49
-0.45
-1.13
-1.35
-1.14
-0.76
-0.57
-0.88
-1.65
-2.63
-3.46
-3.86
-3.81
-3.42
-2.89
-2.29
-1.55
-0.60
0.53
1.62
2.33
2.39
1.73
0.56
-0.71
-1.72
-2.18
-2.02
-1.32
-0.26
0.92
1.99
2.72
2.96
2.65
1.92
1.01
0.18
-0.36
-0.60
-0.64
-0.63
-0.63
-0.58
-0.42
-0.07
0.38
0.82
1.13
1.25
1.20
1.07
0.91
0.71
0.47
0.18
-0.09
-0.29
-0.39
-0.44
-0.50
-0.61
-0.77
-0.90
-0.92
-0.80
-0.55
-0.21
0.20
0.63
1.08
1.46
1.67
1.62
1.31
0.85
0.42
0.20
0.24
0.48
0.71
0.83
0.75
0.50
0.18
-0.19
-0.58
-0.93
-1.16
-1.16
-0.90
-0.51
-0.23
-0.26
-0.68
-1.35
-1.97
-2.29
-2.21
-1.77
-1.15
-0.50
0.10
0.60
1.02
1.30
1.39
1.27
1.02
0.75
0.58
0.54
0.56
0.52
0.28
-0.23
-0.93
-1.64
-2.15
-2.24
-1.84
-1.00
0.14
1.38
2.52
3.33
3.57
3.13
2.04
0.58
-0.80
-1.66
-1.75
-1.14
-0.19
0.66
1.09
1.04
0.68
0.23
-0.12
-0.35
-0.45
-0.39
-0.10
0.45
1.20
1.89
2.19
1.90
0.98
-0.33
-1.63
-2.52
-2.75
-2.29
-1.32
-0.11
1.01
1.79
2.06
1.81
1.15
0.33
-0.37
-0.78
-0.83
-0.64
-0.40
-0.31
-0.42
-0.75
-1.14
-1.43
-1.57
-1.55
-1.46
-1.36
-1.22
-0.95
-0.49
0.14
0.80
1.24
1.29
0.91
0.26
-0.40
-0.81
-0.85
-0.54
-0.01
0.59
1.17
1.64
1.99
2.11
1.93
1.42
0.68
-0.06
-0.54
-0.56
-0.15
0.46
0.90
0.91
0.42
-0.39
-1.19
-1.66
-1.64
-1.22
-0.61
-0.07
0.29
0.48
0.61
0.80
1.07
1.33
1.44
1.28
0.80
0.12
-0.60
-1.17
-1.40
-1.25
-0.75
-0.04
0.68
1.24
1.56
1.63
1.53
1.38
1.24
1.15
1.04
0.85
0.56
0.21
-0.12
-0.34
-0.43
-0.46
-0.54
-0.81
-1.32
-2.01
-2.81
-3.56
-4.17
-4.53
-4.55
-4.14
-3.30
-2.16
-0.97
-0.03
0.49
0.62
0.61
0.76
1.24
1.92
2.43
2.40
1.69
0.53
-0.58
-1.12
-0.82
0.19
1.45
2.52
3.12
3.20
2.89
2.29
1.41
0.24
-1.14
-2.46
-3.35
-3.52
-3.00
-2.11
-1.27
-0.79
-0.70
-0.80
-0.80
-0.55
-0.04
0.58
1.18
1.62
1.77
1.57
1.00
0.17
-0.69
-1.27
-1.30
-0.68
0.43
1.66
2.62
3.04
2.83
2.12
1.14
0.15
-0.61
-1.01
-1.01
-0.64
0.02
0.81
1.53
1.97
2.03
1.71
1.22
0.78
0.57
0.61
0.74
0.75
0.53
0.10
-0.38
-0.73
-0.85
-0.79
-0.66
-0.60
-0.67
-0.83
-0.99
-1.06
-1.01
-0.89
-0.79
-0.77
-0.85
-0.98
-1.09
-1.09
-0.94
-0.65
-0.30
-0.02
0.07
-0.10
-0.54
-1.21
-1.95
-2.56
-2.84
-2.66
-2.05
-1.17
-0.25
0.46
0.86
0.91
0.69
0.35
-0.01
-0.28
-0.42
-0.42
-0.28
-0.03
0.31
0.71
1.12
1.44
1.58
1.49
1.17
0.76
0.40
0.13
-0.04
-0.22
-0.46
-0.74
-0.94
-0.86
-0.44
0.26
0.99
1.50
1.60
1.31
0.83
0.38
0.15
0.18
0.40
0.68
0.94
1.12
1.24
1.34
1.42
1.50
1.49
1.36
1.10
0.80
0.58
0.55
0.77
1.10
1.30
1.11
0.41
-0.70
-1.90
-2.81
-3.15
-2.94
-2.40
-1.83
-1.39
-1.05
-0.69
-0.20
0.39
0.89
1.11
1.01
0.70
0.39
0.22
0.19
0.15
-0.04
-0.39
-0.77
-0.95
-0.77
-0.25
0.49
1.22
1.77
2.02
1.91
1.48
0.81
0.04
-0.62
-1.03
-1.11
-0.92
-0.60
-0.28
-0.06
0.01
-0.07
-0.31
-0.69
-1.12
-1.43
-1.48
-1.19
-0.67
-0.15
0.11
-0.04
-0.50
-1.03
-1.32
-1.19
-0.61
0.26
1.17
1.85
2.15
2.01
1.46
0.65
-0.26
-1.11
-1.77
-2.13
-2.13
-1.70
-0.95
-0.08
0.62
0.89
0.65
0.07
-0.51
-0.78
-0.54
0.11
0.88
1.49
1.73
1.63
1.38
1.18
1.15
1.24
1.29
1.13
0.71
0.12
-0.43
-0.77
-0.82
-0.68
-0.54
-0.59
-0.91
-1.44
-1.98
-2.31
-2.30
-1.92
-1.27
-0.52
0.16
0.71
1.11
1.40
1.56
1.54
1.26
0.72
0.03
-0.56
-0.80
-0.58
0.02
0.79
1.48
1.93
2.16
2.21
2.13
1.96
1.72
1.45
1.27
1.25
1.34
1.40
1.29
0.91
0.34
-0.30
-0.85
-1.28
-1.54
-1.63
-1.51
-1.20
-0.76
-0.38
-0.30
-0.62
-1.27
-2.00
-2.49
-2.56
-2.19
-1.59
-1.02
-0.65
-0.46
-0.36
-0.18
0.15
0.58
0.98
1.14
0.96
0.44
-0.24
-0.86
-1.21
-1.22
-0.97
-0.62
-0.34
-0.16
-0.02
0.26
0.77
1.46
2.14
2.50
2.36
1.77
1.02
0.45
0.28
0.51
0.91
1.25
1.36
1.27
1.06
0.80
0.43
-0.15
-0.96
-1.92
-2.81
-3.45
-3.73
-3.67
-3.38
-2.96
-2.47
-1.95
-1.44
-1.01
-0.66
-0.35
0.01
0.51
1.13
1.77
2.25
2.43
2.27
1.84
1.25
0.60
-0.02
-0.55
-0.91
-0.98
-0.68
-0.03
0.79
1.52
1.90
1.81
1.36
0.76
0.27
0.04
0.05
0.18
0.26
0.18
-0.12
-0.56
-0.99
-1.20
-1.01
-0.37
0.59
1.58
2.28
2.48
2.19
1.68
1.25
1.04
0.93
0.65
-0.00
-0.99
-1.94
-2.43
-2.20
-1.37
-0.35
0.39
0.63
0.49
0.28
0.28
0.54
0.90
1.07
0.91
0.45
-0.13
-0.68
-1.10
-1.40
-1.54
-1.45
-1.05
-0.31
0.63
1.48
1.98
1.96
1.47
0.65
-0.27
-1.11
-1.74
-2.13
-2.24
-2.14
-1.87
-1.51
-1.13
-0.73
-0.32
0.14
0.62
0.99
1.15
1.00
0.54
-0.10
-0.71
-1.15
-1.31
-1.19
-0.80
-0.24
0.33
0.74
0.83
0.53
-0.11
-0.92
-1.66
-2.12
-2.16
-1.73
-0.89
0.19
1.29
2.21
2.77
2.92
2.70
2.27
1.81
1.44
1.16
0.91
0.64
0.35
0.14
0.05
0.07
0.08
-0.05
-0.39
-0.83
-1.20
-1.30
-1.03
-0.51
0.05
0.40
0.48
0.31
0.09
-0.01
0.09
0.41
0.82
1.18
1.30
1.05
0.46
-0.30
-0.94
-1.27
-1.23
-1.01
-0.85
-0.92
-1.15
-1.24
-0.85
0.15
1.59
2.98
3.78
3.63
2.57
0.97
-0.60
-1.68
-2.10
-1.99
-1.65
-1.41
-1.44
-1.68
-1.96
-2.07
-1.91
-1.52
-1.02
-0.56
-0.20
0.10
0.45
0.91
1.47
2.05
2.53
2.82
2.86
2.67
2.30
1.80
1.26
0.74
0.31
0.03
-0.09
-0.10
-0.05
-0.01
-0.00
0.00
-0.02
-0.08
-0.25
-0.57
-1.00
-1.47
-1.91
-2.30
-2.63
-2.88
-2.97
-2.76
-2.13
-1.13
-0.06
0.74
0.96
0.62
-0.02
-0.55
-0.67
-0.35
0.18
0.59
0.72
0.60
0.46
0.52
0.86
1.33
1.69
1.66
1.12
0.16
-0.97
-1.93
-2.39
-2.17
-1.32
-0.10
1.07
1.84
2.05
1.77
1.29
0.90
0.77
0.90
1.10
1.16
0.90
0.26
-0.69
-1.77
-2.67
-3.12
-2.96
-2.25
-1.28
-0.48
-0.16
-0.41
-0.98
-1.49
-1.59
-1.18
-0.41
0.41
1.07
1.49
1.73
1.85
1.78
1.38
0.54
-0.64
-1.82
-2.56
-2.54
-1.75
-0.48
0.81
1.73
2.08
1.96
1.59
1.25
1.12
1.26
1.66
2.19
2.73
3.09
3.13
2.78
2.16
1.51
1.09
0.99
1.09
1.11
0.78
0.07
-0.82
-1.53
-1.83
-1.72
-1.38
-1.04
-0.73
-0.32
0.37
1.32
2.20
2.61
2.24
1.14
-0.32
-1.70
-2.69
-3.28
-3.66
-4.01
-4.32
-4.42
-4.09
-3.28
-2.17
-1.08
-0.31
0.05
0.11
0.06
0.07
0.18
0.34
0.40
0.31
0.11
-0.05
-0.03
0.22
0.61
0.98
1.15
1.07
0.81
0.52
0.34
0.32
0.39
0.42
0.29
-0.00
-0.36
-0.61
-0.64
-0.41
-0.01
0.39
0.66
0.74
0.72
0.73
0.83
1.03
1.23
1.37
1.45
1.57
1.77
2.13
2.55
2.89
2.98
2.68
1.94
0.84
-0.45
-1.69
-2.68
-3.26
-3.41
-3.22
-2.85
-2.48
-2.18
-1.94
-1.70
-1.49
-1.36
-1.38
-1.52
-1.66
-1.62
-1.27
-0.65
0.05
0.59
0.80
0.67
0.39
0.19
0.24
0.51
0.87
1.12
1.15
0.98
0.73
0.50
0.36
0.26
0.15
-0.00
-0.16
-0.23
-0.13
0.14
0.55
1.01
1.43
1.71
1.77
1.56
1.09
0.43
-0.32
-0.98
-1.46
-1.70
-1.76
-1.70
-1.56
-1.30
-0.86
-0.25
0.47
1.09
1.39
1.25
0.70
-0.07
-0.81
-1.28
-1.38
-1.11
-0.58
0.04
0.62
1.05
1.26
1.31
1.24
1.18
1.20
1.29
1.42
1.49
1.42
1.20
0.86
0.46
0.07
-0.28
-0.53
-0.68
-0.73
-0.68
-0.59
-0.42
-0.16
0.21
0.65
1.07
1.31
1.21
0.73
-0.02
-0.83
-1.43
-1.67
-1.57
-1.25
-0.90
-0.70
-0.69
-0.87
-1.17
-1.44
-1.62
-1.58
-1.25
-0.61
0.26
1.19
1.97
2.41
2.43
2.07
1.37
0.45
-0.54
-1.40
-1.90
-1.89
-1.37
-0.54
0.24
0.61
0.46
-0.12
-0.77
-1.14
-1.06
-0.67
-0.24
-0.03
-0.13
-0.35
-0.44
-0.17
0.46
1.26
1.90
2.15
1.94
1.42
0.91
0.66
0.73
1.00
1.19
1.04
0.42
-0.53
-1.53
-2.24
-2.41
-2.01
-1.19
-0.26
0.52
0.96
1.03
0.84
0.53
0.27
0.14
0.19
0.35
0.48
0.45
0.21
-0.16
-0.48
-0.54
-0.29
0.16
0.53
0.58
0.24
-0.33
-0.75
-0.76
-0.26
0.51
1.20
1.50
1.35
0.92
0.48
0.26
0.28
0.42
0.51
0.45
0.26
0.02
-0.20
-0.46
-0.79
-1.18
-1.53
-1.71
-1.66
-1.47
-1.33
-1.38
-1.58
-1.75
-1.63
-1.07
-0.23
0.56
0.95
0.80
0.26
-0.28
-0.49
-0.25
0.29
0.82
1.08
1.01
0.71
0.40
0.25
0.29
0.44
0.55
0.48
0.18
-0.32
-0.90
-1.38
-1.58
-1.42
-0.94
-0.31
0.25
0.56
0.63
0.53
0.44
0.45
0.49
0.47
0.29
-0.05
-0.42
-0.66
-0.66
-0.38
0.12
0.74
1.34
1.87
2.26
2.47
2.47
2.20
1.71
1.03
0.29
-0.35
-0.74
-0.78
-0.51
-0.06
0.33
0.47
0.29
-0.14
-0.62
-0.92
-0.95
-0.68
-0.25
0.21
0.53
0.62
0.43
-0.01
-0.64
-1.36
-2.00
-2.40
-2.45
-2.14
-1.53
-0.76
-0.05
0.47
0.69
0.62
0.40
0.17
0.14
0.37
0.78
1.16
1.28
1.00
0.41
-0.27
-0.76
-0.83
-0.44
0.29
1.15
1.93
2.44
2.54
2.13
1.21
-0.08
-1.46
-2.58
-3.12
-2.91
-2.04
-0.80
0.49
1.49
2.05
2.11
1.76
1.16
0.51
-0.06
-0.50
-0.90
-1.36
-1.93
-2.48
-2.83
-2.74
-2.17
-1.30
-0.48
-0.01
-0.06
-0.47
-0.95
-1.23
-1.24
-1.07
-0.85
-0.65
-0.40
-0.01
0.54
1.13
1.58
1.79
1.78
1.75
1.85
2.10
2.31
2.23
1.65
0.61
-0.67
-1.78
-2.41
-2.39
-1.80
-0.84
0.14
0.88
1.21
1.11
0.70
0.20
-0.19
-0.36
-0.30
-0.07
0.25
0.55
0.74
0.79
0.69
0.50
0.35
0.38
0.64
1.05
1.47
1.69
1.63
1.33
0.96
0.69
0.57
0.51
0.38
0.12
-0.25
-0.55
-0.68
-0.64
-0.53
-0.45
-0.44
-0.44
-0.33
-0.10
0.15
0.21
-0.06
-0.67
-1.44
-2.09
-2.43
-2.42
-2.15
-1.80
-1.48
-1.23
-0.94
-0.50
0.18
1.05
1.94
2.65
3.03
3.01
2.64
2.04
1.34
0.69
0.16
-0.17
-0.27
-0.15
0.09
0.36
0.52
0.44
0.11
-0.43
-1.05
-1.62
-2.02
-2.19
-2.09
-1.79
-1.35
-0.77
-0.06
0.80
1.76
2.66
3.27
3.39
2.96
2.10
1.12
0.31
-0.15
-0.30
-0.32
-0.37
-0.54
-0.75
-0.86
-0.81
-0.65
-0.52
-0.52
-0.72
-1.09
-1.54
-1.99
-2.40
-2.73
-2.96
-3.08
-3.07
-2.93
-2.68
-2.29
-1.77
-1.11
-0.34
0.41
1.02
1.37
1.47
1.42
1.31
1.21
1.13
1.03
0.91
0.81
0.78
0.91
1.17
1.46
1.61
1.53
1.18
0.64
0.09
-0.33
-0.52
-0.50
-0.29
0.02
0.38
0.70
0.89
0.84
0.48
-0.19
-1.01
-1.75
-2.17
-2.13
-1.62
-0.77
0.22
1.13
1.80
2.10
2.00
1.59
1.01
0.46
0.10
-0.01
0.13
0.44
0.83
1.20
1.44
1.49
1.29
0.85
0.24
-0.37
-0.79
-0.89
-0.64
-0.17
0.25
0.41
0.20
-0.28
-0.85
-1.28
-1.46
-1.43
-1.29
-1.13
-1.02
-0.91
-0.78
-0.65
-0.54
-0.44
-0.28
0.09
0.69
1.44
2.07
2.31
1.99
1.20
0.15
-0.88
-1.66
-2.13
-2.30
-2.23
-1.97
-1.56
-1.03
-0.40
0.30
0.99
1.59
1.98
2.11
2.01
1.74
1.40
1.09
0.82
0.62
0.47
0.45
0.61
0.95
1.37
1.63
1.53
1.00
0.25
-0.41
-0.66
-0.45
0.06
0.55
0.71
0.40
-0.27
-1.07
-1.71
-2.01
-1.95
-1.62
-1.20
-0.86
-0.69
-0.74
-0.94
-1.18
-1.29
-1.20
-0.89
-0.44
0.03
0.40
0.58
0.53
0.28
-0.09
-0.45
-0.65
-0.58
-0.22
0.29
0.76
0.98
0.83
0.39
-0.14
-0.49
-0.51
-0.20
0.28
0.69
0.88
0.82
0.58
0.32
0.15
0.05
-0.11
-0.46
-1.06
-1.77
-2.34
-2.50
-2.15
-1.41
-0.57
0.08
0.41
0.50
0.57
0.81
1.24
1.70
1.95
1.90
1.59
1.16
0.74
0.38
0.04
-0.31
-0.58
-0.61
-0.33
0.22
0.79
1.04
0.79
0.16
-0.55
-0.97
-0.91
-0.46
0.06
0.39
0.41
0.21
0.04
0.10
0.43
0.91
1.35
1.59
1.63
1.50
1.30
1.04
0.67
0.13
-0.62
-1.45
-2.13
-2.35
-1.96
-1.05
0.06
0.89
1.08
0.55
-0.46
-1.52
-2.18
-2.24
-1.78
-1.11
-0.58
-0.37
-0.43
-0.58
-0.57
-0.26
0.31
1.01
1.66
2.09
2.24
2.10
1.71
1.15
0.50
-0.09
-0.49
-0.55
-0.23
0.38
1.08
1.58
1.67
1.28
0.51
-0.34
-1.01
-1.34
-1.32
-1.09
-0.84
-0.76
-0.92
-1.33
-1.93
-2.62
-3.18
-3.41
-3.13
-2.29
-1.06
0.27
1.33
1.89
1.88
1.38
0.60
-0.23
-0.91
-1.28
-1.25
-0.83
-0.13
0.70
1.52
2.19
2.58
2.57
2.10
1.24
0.14
-0.92
-1.66
-1.90
-1.62
-0.97
-0.12
0.72
1.46
2.00
2.26
2.18
1.76
1.14
0.55
0.20
0.14
0.22
0.18
-0.14
-0.72
-1.37
-1.79
-1.83
-1.53
-1.11
-0.80
-0.70
-0.75
-0.79
-0.75
-0.64
-0.56
-0.64
-0.89
-1.16
-1.23
-0.89
-0.08
1.04
2.17
2.92
3.02
2.43
1.43
0.40
-0.26
-0.36
0.00
0.49
0.80
0.73
0.33
-0.18
-0.60
-0.79
-0.76
-0.57
-0.31
-0.06
0.13
0.26
0.36
0.48
0.68
0.96
1.28
1.49
1.46
1.10
0.50
-0.15
-0.58
-0.64
-0.33
0.18
0.62
0.80
0.60
0.05
-0.70
-1.50
-2.17
-2.53
-2.47
-1.95
-1.07
-0.05
0.83
1.32
1.33
0.92
0.25
-0.45
-0.99
-1.22
-1.05
-0.50
0.29
1.01
1.37
1.15
0.39
-0.61
-1.42
-1.67
-1.28
-0.42
0.49
1.09
1.16
0.76
0.10
-0.56
-1.03
-1.20
-1.04
-0.58
0.12
0.94
1.71
2.23
2.36
2.07
1.44
0.63
-0.19
-0.91
-1.46
-1.77
-1.76
-1.39
-0.70
0.12
0.81
1.20
1.22
1.00
0.75
0.66
0.81
1.15
1.57
1.92
2.09
1.99
1.55
0.76
-0.29
-1.44
-2.45
-3.14
-3.41
-3.28
-2.84
-2.25
-1.66
-1.23
-1.04
-1.08
-1.20
-1.22
-1.02
-0.54
0.10
0.75
1.27
1.63
1.82
1.88
1.76
1.34
0.58
-0.37
-1.17
-1.45
-0.96
0.17
1.52
2.48
2.63
1.87
0.53
-0.86
-1.81
-2.09
-1.78
-1.15
-0.49
0.02
0.35
0.49
0.49
0.35
0.09
-0.23
-0.49
-0.62
-0.60
-0.49
-0.39
-0.35
-0.35
-0.23
0.12
0.77
1.65
2.55
3.18
3.32
2.88
1.97
0.90
0.01
-0.44
-0.40
-0.08
0.21
0.24
-0.01
-0.34
-0.42
-0.10
0.59
1.30
1.64
1.37
0.54
-0.57
-1.55
-2.09
-2.14
-1.85
-1.47
-1.18
-0.98
-0.81
-0.63
-0.45
-0.39
-0.59
-1.07
-1.68
-2.20
-2.39
-2.09
-1.32
-0.26
0.83
1.64
1.97
1.73
0.96
-0.10
-1.14
-1.83
-1.98
-1.54
-0.66
0.48
1.63
2.62
3.31
3.57
3.36
2.67
1.58
0.27
-1.04
-2.03
-2.47
-2.28
-1.58
-0.68
0.03
0.28
0.08
-0.32
-0.57
-0.45
0.04
0.59
0.89
0.74
0.24
-0.31
-0.57
-0.43
-0.05
0.30
0.37
0.15
-0.18
-0.36
-0.23
0.18
0.64
0.90
0.81
0.43
-0.08
-0.53
-0.81
-0.93
-0.93
-0.78
-0.39
0.28
1.16
2.06
2.64
2.64
2.03
1.00
-0.09
-0.92
-1.37
-1.50
-1.46
-1.36
-1.25
-1.15
-1.05
-1.00
-0.97
-0.95
-0.86
-0.62
-0.24
0.22
0.64
0.94
1.08
1.05
0.85
0.46
-0.14
-0.88
-1.59
-2.08
-2.15
-1.72
-0.84
0.28
1.33
2.04
2.22
1.93
1.36
0.76
0.32
0.05
-0.17
-0.44
-0.79
-1.09
-1.12
-0.73
0.05
0.98
1.76
2.10
1.91
1.29
0.47
-0.27
-0.72
-0.82
-0.62
-0.29
-0.02
0.12
0.10
0.02
0.01
0.14
0.40
0.74
1.06
1.24
1.21
0.92
0.40
-0.25
-0.86
-1.30
-1.47
-1.42
-1.24
-1.02
-0.82
-0.59
-0.29
0.04
0.30
0.39
0.27
0.06
-0.02
0.14
0.54
1.04
1.47
1.73
1.85
1.84
1.64
1.15
0.30
-0.78
-1.80
-2.36
-2.22
-1.47
-0.44
0.41
0.80
0.71
0.33
-0.07
-0.31
-0.35
-0.27
-0.16
-0.08
-0.10
-0.22
-0.41
-0.60
-0.70
-0.64
-0.46
-0.24
-0.12
-0.21
-0.54
-0.96
-1.29
-1.39
-1.26
-0.97
-0.65
-0.43
-0.33
-0.29
-0.24
-0.15
-0.03
0.06
0.06
-0.08
-0.37
-0.74
-1.11
-1.36
-1.36
-0.99
-0.24
0.82
1.98
2.98
3.56
3.58
3.04
2.09
1.03
0.18
-0.27
-0.27
0.01
0.30
0.32
-0.03
-0.66
-1.32
-1.78
-1.92
-1.74
-1.39
-1.03
-0.73
-0.48
-0.16
0.33
1.01
1.77
2.38
2.59
2.30
1.54
0.62
-0.08
-0.24
0.18
0.94
1.66
1.95
1.71
1.06
0.24
-0.48
-1.01
-1.35
-1.55
-1.65
-1.60
-1.39
-1.06
-0.78
-0.75
-1.02
-1.50
-1.94
-2.10
-1.85
-1.26
-0.48
0.30
0.97
1.47
1.78
1.86
1.74
1.44
1.05
0.66
0.36
0.18
0.14
0.22
0.33
0.38
0.24
-0.18
-0.83
-1.56
-2.17
-2.49
-2.53
-2.37
-2.13
-1.82
-1.39
-0.77
0.04
0.93
1.72
2.22
2.37
2.23
1.97
1.72
1.56
1.41
1.16
0.70
0.05
-0.67
-1.22
-1.42
-1.16
-0.51
0.34
1.12
1.62
1.79
1.69
1.51
1.39
1.42
1.55
1.62
1.43
0.87
0.01
-0.92
-1.61
-1.87
-1.77
-1.56
-1.55
-1.87
-2.35
-2.63
-2.43
-1.69
-0.69
0.22
0.74
0.86
0.84
0.95
1.29
1.69
1.92
1.77
1.28
0.66
0.09
-0.30
-0.59
-0.86
-1.22
-1.61
-1.96
-2.18
-2.22
-2.13
-1.95
-1.72
-1.44
-1.03
-0.49
0.18
0.91
1.55
1.98
2.10
1.85
1.30
0.58
-0.08
-0.52
-0.69
-0.63
-0.45
-0.22
0.04
0.41
0.95
1.64
2.29
2.67
2.54
1.85
0.79
-0.35
-1.23
-1.65
-1.66
-1.46
-1.27
-1.21
-1.27
-1.26
-1.07
-0.69
-0.26
0.04
0.10
-0.07
-0.34
-0.54
-0.56
-0.38
-0.11
0.17
0.36
0.42
0.30
0.06
-0.28
-0.57
-0.68
-0.54
-0.14
0.41
0.97
1.40
1.64
1.65
1.47
1.13
0.72
0.31
0.00
-0.13
-0.11
-0.01
0.06
0.02
-0.11
-0.23
-0.26
-0.14
0.12
0.42
0.64
0.67
0.49
0.16
-0.22
-0.53
-0.71
-0.71
-0.54
-0.24
0.14
0.53
0.81
0.87
0.65
0.18
-0.40
-0.84
-0.94
-0.62
-0.02
0.60
0.93
0.78
0.19
-0.61
-1.30
-1.63
-1.54
-1.17
-0.77
-0.56
-0.62
-0.79
-0.90
-0.76
-0.38
0.11
0.58
0.97
1.30
1.62
1.89
2.04
1.92
1.59
1.18
0.92
0.91
1.05
1.06
0.69
-0.10
-1.08
-1.86
-2.09
-1.66
-0.77
0.26
1.09
1.54
1.62
1.48
1.21
0.93
0.65
0.41
0.27
0.27
0.43
0.63
0.73
0.61
0.22
-0.36
-0.95
-1.47
-1.86
-2.13
-2.33
-2.43
-2.36
-2.06
-1.61
-1.13
-0.77
-0.58
-0.48
-0.33
-0.02
0.43
0.86
1.12
1.12
0.92
0.62
0.34
0.06
-0.27
-0.72
-1.28
-1.81
-2.09
-1.92
-1.26
-0.25
0.81
1.63
2.06
2.12
2.00
1.92
1.97
2.11
2.19
2.01
1.48
0.65
-0.31
-1.22
-1.92
-2.32
-2.37
-2.05
-1.43
-0.64
0.14
0.74
1.09
1.18
1.07
0.80
0.41
-0.11
-0.68
-1.15
-1.35
-1.22
-0.88
-0.53
-0.36
-0.40
-0.42
-0.17
0.48
1.32
1.95
1.96
1.25
0.10
-1.00
-1.58
-1.55
-1.17
-0.84
-0.85
-1.19
-1.61
-1.82
-1.64
-1.14
-0.48
0.13
0.61
0.90
0.99
0.87
0.62
0.32
0.12
0.13
0.35
0.66
0.85
0.76
0.38
-0.12
-0.46
-0.40
0.07
0.76
1.38
1.68
1.65
1.41
1.20
1.12
1.09
0.90
0.39
-0.45
-1.38
-2.08
-2.31
-2.07
-1.57
-1.05
-0.68
-0.47
-0.33
-0.20
-0.10
-0.05
-0.10
-0.19
-0.19
0.03
0.47
1.06
1.62
2.00
2.08
1.84
1.36
0.74
0.16
-0.24
-0.36
-0.21
0.08
0.32
0.38
0.26
0.07
-0.02
0.05
0.21
0.26
0.02
-0.50
-1.11
-1.55
-1.61
-1.30
-0.78
-0.31
-0.07
-0.11
-0.33
-0.60
-0.75
-0.69
-0.42
0.00
0.50
0.97
1.26
1.29
1.05
0.61
0.13
-0.24
-0.44
-0.51
-0.59
-0.74
-0.94
-1.07
-1.06
-0.90
-0.69
-0.57
-0.62
-0.81
-1.02
-1.10
-0.89
-0.38
0.35
1.16
1.88
2.36
2.48
2.24
1.72
1.09
0.51
0.15
0.06
0.16
0.30
0.31
0.07
-0.42
-1.04
-1.59
-1.84
-1.65
-1.06
-0.25
0.54
1.08
1.23
1.03
0.60
0.15
-0.14
-0.21
-0.09
0.14
0.41
0.71
1.12
1.65
2.25
2.74
2.91
2.66
2.00
1.10
0.19
-0.55
-1.13
-1.60
-2.05
-2.48
-2.75
-2.77
-2.49
-2.01
-1.51
-1.17
-1.02
-0.93
-0.79
-0.48
-0.04
0.37
0.64
0.73
0.71
0.73
0.86
1.07
1.29
1.39
1.27
0.96
0.47
-0.14
-0.82
-1.46
-1.94
-2.10
-1.89
-1.35
-0.66
-0.03
0.38
0.52
0.40
0.11
-0.29
-0.71
-1.10
-1.32
-1.29
-0.99
-0.51
-0.05
0.20
0.20
0.08
0.07
0.35
0.90
1.50
1.86
1.79
1.40
0.93
0.72
0.94
1.46
2.03
2.36
2.35
2.09
1.73
1.42
1.14
0.77
0.21
-0.53
-1.30
-1.88
-2.10
-1.92
-1.52
-1.07
-0.72
-0.45
-0.16
0.28
0.83
1.31
1.46
1.10
0.23
-0.93
-2.07
-2.95
-3.50
-3.79
-3.90
-3.83
-3.45
-2.62
-1.35
0.14
1.49
2.31
2.45
1.94
1.04
0.11
-0.57
-0.81
-0.64
-0.24
0.14
0.27
0.12
-0.17
-0.29
0.01
0.76
1.75
2.60
3.00
2.87
2.37
1.79
1.32
0.98
0.64
0.26
-0.06
-0.09
0.30
1.03
1.75
2.01
1.51
0.36
-1.00
-1.99
-2.17
-1.54
-0.44
0.50
0.80
0.32
-0.70
-1.73
-2.27
-2.09
-1.36
-0.49
0.07
0.08
-0.36
-0.96
-1.41
-1.51
-1.27
-0.87
-0.47
-0.18
0.01
0.16
0.36
0.57
0.78
0.91
0.90
0.78
0.59
0.38
0.26
0.25
0.34
0.45
0.47
0.28
-0.13
-0.67
-1.16
-1.45
-1.48
-1.32
-1.11
-0.97
-0.88
-0.69
-0.29
0.32
0.94
1.30
1.23
0.82
0.32
0.04
0.19
0.69
1.26
1.66
1.70
1.46
1.10
0.84
0.82
1.06
1.46
1.78
1.79
1.35
0.48
-0.64
-1.65
-2.25
-2.25
-1.73
-0.89
-0.01
0.71
1.19
1.43
1.47
1.31
0.91
0.28
-0.49
-1.24
-1.78
-1.97
-1.81
-1.43
-1.05
-0.82
-0.83
-1.01
-1.14
-1.07
-0.72
-0.16
0.42
0.78
0.81
0.44
-0.17
-0.83
-1.37
-1.63
-1.52
-1.05
-0.34
0.40
0.92
1.01
0.63
-0.08
-0.85
-1.36
-1.42
-1.06
-0.43
0.23
0.74
1.03
1.12
1.08
1.00
0.92
0.91
1.01
1.16
1.28
1.22
0.93
0.46
-0.04
-0.38
-0.42
-0.18
0.21
0.55
0.69
0.60
0.33
0.00
-0.28
-0.46
-0.55
-0.62
-0.72
-0.87
-1.02
-1.04
-0.85
-0.37
0.35
1.14
1.83
2.23
2.26
1.99
1.57
1.16
0.86
0.68
0.52
0.32
0.04
-0.29
-0.57
-0.75
-0.86
-0.95
-1.07
-1.19
-1.22
-1.13
-1.01
-1.02
-1.31
-1.84
-2.40
-2.74
-2.65
-2.15
-1.41
-0.70
-0.22
-0.02
-0.01
-0.03
0.05
0.28
0.61
0.92
1.07
1.06
0.92
0.80
0.81
1.00
1.32
1.65
1.86
1.91
1.83
1.68
1.51
1.29
0.99
0.64
0.26
-0.06
-0.26
-0.31
-0.27
-0.17
-0.09
-0.04
-0.03
-0.05
-0.08
-0.11
-0.20
-0.38
-0.67
-0.98
-1.25
-1.35
-1.29
-1.15
-1.07
-1.09
-1.14
-1.07
-0.73
-0.14
0.54
1.08
1.32
1.31
1.26
1.38
1.74
2.22
2.55
2.52
2.13
1.52
0.96
0.60
0.43
0.26
-0.10
-0.68
-1.35
-1.85
-2.00
-1.78
-1.45
-1.31
-1.57
-2.17
-2.79
-3.00
-2.53
-1.46
-0.17
0.85
1.23
0.97
0.36
-0.21
-0.46
-0.33
0.03
0.38
0.59
0.59
0.51
0.49
0.64
0.97
1.35
1.56
1.36
0.63
-0.53
-1.83
-2.87
-3.33
-3.08
-2.25
-1.06
0.25
1.45
2.43
3.01
3.03
2.46
1.42
0.19
-0.81
-1.26
-1.07
-0.40
0.45
1.16
1.54
1.54
1.25
0.82
0.36
-0.04
-0.29
-0.32
-0.09
0.34
0.78
0.98
0.73
0.02
-0.94
-1.79
-2.20
-2.02
-1.43
-0.74
-0.30
-0.24
-0.47
-0.73
-0.80
-0.63
-0.31
-0.04
0.09
0.10
0.10
0.15
0.27
0.35
0.36
0.30
0.29
0.42
0.69
1.00
1.18
1.09
0.71
0.14
-0.50
-1.06
-1.46
-1.62
-1.52
-1.15
-0.57
0.08
0.66
1.02
1.07
0.86
0.53
0.21
0.02
0.02
0.20
0.54
0.99
1.47
1.89
2.13
2.09
1.77
1.29
0.86
0.68
0.78
0.99
1.01
0.58
-0.33
-1.48
-2.48
-3.05
-3.13
-2.92
-2.69
-2.61
-2.61
-2.45
-1.90
-0.93
0.24
1.26
1.78
1.69
1.13
0.40
-0.19
-0.48
-0.48
-0.32
-0.07
0.23
0.58
0.97
1.29
1.41
1.24
0.82
0.27
-0.27
-0.69
-0.99
-1.17
-1.27
-1.32
-1.32
-1.31
-1.30
-1.27
-1.12
-0.79
-0.27
0.34
0.85
1.14
1.21
1.17
1.15
1.18
1.18
1.03
0.70
0.26
-0.16
-0.44
-0.60
-0.73
-0.86
-0.97
-0.95
-0.69
-0.27
0.18
0.44
0.45
0.22
-0.05
-0.22
-0.18
0.05
0.43
0.91
1.40
1.81
2.00
1.88
1.39
0.61
-0.29
-1.08
-1.62
-1.85
-1.86
-1.80
-1.77
-1.83
-1.91
-1.89
-1.65
-1.11
-0.27
0.76
1.80
2.61
3.01
2.95
2.50
1.89
1.38
1.11
1.10
1.20
1.26
1.15
0.90
0.60
0.38
0.24
0.12
-0.09
-0.41
-0.78
-1.05
-1.09
-0.93
-0.64
-0.36
-0.21
-0.16
-0.17
-0.14
-0.05
0.06
0.08
-0.06
-0.35
-0.70
-0.97
-1.11
-1.10
-1.00
-0.83
-0.57
-0.19
0.33
0.88
1.28
1.39
1.12
0.60
0.02
-0.37
-0.46
-0.31
-0.08
0.05
0.06
0.02
0.08
0.26
0.49
0.56
0.34
-0.13
-0.62
-0.85
-0.64
-0.03
0.73
1.32
1.57
1.48
1.23
0.94
0.62
0.13
-0.62
-1.57
-2.44
-2.85
-2.58
-1.64
-0.36
0.83
1.58
1.74
1.42
0.84
0.24
-0.23
-0.47
-0.47
-0.23
0.17
0.59
0.81
0.66
0.12
-0.67
-1.41
-1.82
-1.73
-1.20
-0.50
0.08
0.35
0.33
0.16
0.01
-0.04
-0.06
-0.14
-0.31
-0.49
-0.50
-0.21
0.30
0.81
1.04
0.80
0.20
-0.44
-0.75
-0.54
0.09
0.79
1.22
1.13
0.60
-0.12
-0.71
-0.96
-0.90
-0.66
-0.44
-0.30
-0.19
-0.04
0.24
0.62
0.99
1.17
1.02
0.55
-0.12
-0.74
-1.09
-1.01
-0.57
0.01
0.49
0.67
0.52
0.17
-0.12
-0.14
0.18
0.69
1.12
1.22
0.89
0.23
-0.53
-1.17
-1.56
-1.70
-1.71
-1.70
-1.70
-1.63
-1.40
-1.01
-0.56
-0.22
-0.10
-0.16
-0.28
-0.30
-0.17
0.07
0.26
0.30
0.18
0.02
-0.04
0.10
0.35
0.52
0.47
0.17
-0.20
-0.36
-0.10
0.62
1.60
2.50
3.00
2.99
2.53
1.90
1.34
0.94
0.65
0.31
-0.15
-0.68
-1.06
-1.14
-0.89
-0.48
-0.16
-0.17
-0.51
-0.99
-1.35
-1.40
-1.15
-0.76
-0.43
-0.28
-0.26
-0.28
-0.26
-0.21
-0.21
-0.31
-0.47
-0.57
-0.48
-0.12
0.42
0.95
1.28
1.29
1.07
0.77
0.62
0.70
0.94
1.15
1.16
0.86
0.31
-0.28
-0.68
-0.75
-0.53
-0.19
0.05
0.11
0.05
0.02
0.17
0.50
0.83
0.99
0.92
0.71
0.60
0.76
1.15
1.52
1.57
1.07
0.17
-0.81
-1.48
-1.64
-1.43
-1.11
-0.97
-1.02
-1.13
-1.00
-0.51
0.27
1.06
1.56
1.57
1.11
0.38
-0.34
-0.82
-0.97
-0.85
-0.62
-0.46
-0.52
-0.87
-1.44
-2.08
-2.62
-2.90
-2.81
-2.28
-1.39
-0.30
0.72
1.38
1.48
1.03
0.25
-0.49
-0.87
-0.78
-0.33
0.19
0.55
0.62
0.45
0.19
-0.02
-0.13
-0.19
-0.28
-0.43
-0.63
-0.75
-0.65
-0.21
0.57
1.53
2.44
3.04
3.16
2.82
2.14
1.32
0.57
0.00
-0.38
-0.62
-0.79
-0.86
-0.77
-0.47
0.02
0.56
0.96
1.06
0.80
0.31
-0.25
-0.69
-0.99
-1.19
-1.39
-1.61
-1.77
-1.68
-1.16
-0.21
0.98
2.05
2.65
2.58
1.87
0.79
-0.32
-1.13
-1.51
-1.54
-1.35
-1.13
-0.96
-0.85
-0.74
-0.58
-0.33
-0.01
0.36
0.73
1.02
1.19
1.21
1.12
0.93
0.65
0.23
-0.36
-1.05
-1.68
-2.02
-1.91
-1.41
-0.78
-0.37
-0.39
-0.85
-1.49
-1.96
-2.05
-1.70
-1.06
-0.31
0.41
1.06
1.61
2.05
2.26
2.15
1.72
1.10
0.56
0.37
0.66
1.35
2.13
2.65
2.58
1.84
0.57
-0.90
-2.16
-2.89
-2.99
-2.54
-1.80
-1.01
-0.33
0.16
0.47
0.60
0.57
0.41
0.20
0.09
0.19
0.55
1.10
1.64
2.00
2.08
1.90
1.57
1.17
0.77
0.36
-0.06
-0.49
-0.91
-1.28
-1.53
-1.54
-1.21
-0.53
0.32
1.06
1.39
1.16
0.50
-0.32
-0.94
-1.17
-1.05
-0.81
-0.70
-0.81
-1.05
-1.25
-1.29
-1.19
-1.07
-1.03
-1.07
-1.07
-0.94
-0.59
-0.07
0.50
0.98
1.22
1.19
0.85
0.27
-0.45
-1.19
-1.79
-2.07
-1.93
-1.35
-0.47
0.45
1.15
1.44
1.30
0.87
0.38
-0.00
-0.18
-0.19
-0.11
0.00
0.16
0.41
0.79
1.23
1.61
1.82
1.85
1.75
1.60
1.45
1.29
1.06
0.68
0.11
-0.61
-1.32
-1.80
-1.82
-1.35
-0.57
0.21
0.62
0.55
0.11
-0.41
-0.75
-0.85
-0.82
-0.86
-1.07
-1.33
-1.40
-1.14
-0.59
-0.01
0.33
0.32
0.07
-0.21
-0.29
-0.12
0.21
0.57
0.85
1.01
1.12
1.20
1.29
1.32
1.21
0.89
0.42
-0.04
-0.28
-0.18
0.23
0.68
0.87
0.61
-0.04
-0.74
-1.10
-0.85
-0.06
0.94
1.74
2.11
2.00
1.58
1.05
0.53
0.11
-0.16
-0.20
0.00
0.41
0.84
1.05
0.87
0.31
-0.46
-1.14
-1.54
-1.63
-1.56
-1.50
-1.53
-1.61
-1.59
-1.40
-1.11
-0.92
-1.04
-1.52
-2.17
-2.63
-2.54
-1.83
-0.71
0.40
1.12
1.29
1.06
0.70
0.51
0.57
0.81
1.08
1.27
1.31
1.22
1.06
0.84
0.57
0.25
-0.09
-0.41
-0.61
-0.66
-0.59
-0.48
-0.46
-0.56
-0.75
-0.91
-0.86
-0.48
0.22
1.11
1.97
2.57
2.79
2.60
2.10
1.42
0.71
0.14
-0.19
-0.22
-0.03
0.19
0.24
-0.03
-0.57
-1.17
-1.53
-1.49
-1.12
-0.71
-0.56
-0.81
-1.30
-1.69
-1.67
-1.21
-0.56
-0.09
-0.04
-0.36
-0.70
-0.72
-0.29
0.40
1.01
1.22
0.91
0.25
-0.38
-0.65
-0.39
0.30
1.12
1.71
1.82
1.42
0.69
-0.07
-0.61
-0.80
-0.67
-0.31
0.12
0.52
0.89
1.23
1.55
1.80
1.89
1.78
1.42
0.87
0.22
-0.40
-0.89
-1.22
-1.45
-1.65
-1.88
-2.12
-2.29
-2.29
-2.02
-1.49
-0.81
-0.16
0.23
0.27
0.04
-0.26
-0.31
0.06
0.77
1.50
1.91
1.71
0.90
-0.24
-1.34
-2.08
-2.29
-2.03
-1.47
-0.81
-0.19
0.33
0.74
1.04
1.23
1.30
1.20
0.95
0.64
0.44
0.53
1.02
1.74
2.40
2.61
2.17
1.20
0.11
-0.67
-0.85
-0.50
0.05
0.41
0.36
-0.09
-0.67
-1.09
-1.21
-0.98
-0.57
-0.15
0.10
0.08
-0.16
-0.48
-0.70
-0.67
-0.34
0.17
0.65
0.85
0.69
0.22
-0.31
-0.69
-0.79
-0.65
-0.42
-0.20
0.00
0.24
0.55
0.85
1.02
0.90
0.49
-0.07
-0.56
-0.77
-0.67
-0.37
-0.05
0.16
0.26
0.29
0.31
0.35
0.36
0.29
0.13
-0.05
-0.18
-0.21
-0.15
-0.08
-0.11
-0.29
-0.63
-1.04
-1.42
-1.66
-1.66
-1.38
-0.83
-0.13
0.52
0.88
0.82
0.37
-0.24
-0.68
-0.72
-0.36
0.19
0.61
0.69
0.41
-0.09
-0.62
-1.02
-1.24
-1.28
-1.12
-0.80
-0.34
0.13
0.45
0.50
0.32
0.05
-0.11
-0.04
0.25
0.66
1.02
1.25
1.29
1.15
0.88
0.60
0.45
0.47
0.61
0.70
0.54
0.11
-0.42
-0.75
-0.57
0.12
1.07
1.88
2.21
1.97
1.33
0.62
0.09
-0.14
-0.16
-0.09
-0.03
-0.08
-0.26
-0.52
-0.80
-1.00
-1.07
-1.07
-1.16
-1.48
-2.02
-2.56
-2.76
-2.36
-1.39
-0.15
0.86
1.24
0.90
0.08
-0.80
-1.43
-1.70
-1.64
-1.36
-0.84
-0.03
1.09
2.37
3.45
3.95
3.68
2.74
1.45
0.21
-0.62
-0.91
-0.73
-0.27
0.17
0.38
0.17
-0.44
-1.27
-2.00
-2.34
-2.16
-1.51
-0.65
0.16
0.70
0.92
0.86
0.60
0.23
-0.13
-0.33
-0.22
0.28
1.08
1.92
2.51
2.58
2.10
1.21
0.20
-0.68
-1.21
-1.29
-0.93
-0.27
0.52
1.18
1.56
1.59
1.37
1.09
0.84
0.66
0.42
-0.02
-0.69
-1.44
-1.98
-2.11
-1.80
-1.26
-0.80
-0.59
-0.60
-0.63
-0.51
-0.15
0.33
0.72
0.89
0.80
0.61
0.43
0.34
0.28
0.14
-0.12
-0.49
-0.82
-0.99
-0.93
-0.67
-0.32
-0.01
0.16
0.18
0.09
-0.02
-0.07
-0.04
0.06
0.13
0.09
-0.14
-0.56
-1.07
-1.52
-1.74
-1.59
-1.08
-0.39
0.23
0.57
0.51
0.14
-0.34
-0.68
-0.69
-0.35
0.20
0.70
0.90
0.65
-0.00
-0.80
-1.39
-1.51
-1.08
-0.26
0.65
1.33
1.61
1.52
1.22
0.90
0.69
0.59
0.57
0.56
0.52
0.41
0.29
0.18
0.11
0.06
-0.02
-0.19
-0.44
-0.65
-0.68
-0.39
0.20
0.85
1.31
1.31
0.84
0.08
-0.65
-1.08
-1.08
-0.71
-0.12
0.55
1.18
1.70
2.01
2.09
1.89
1.50
1.02
0.53
0.08
-0.35
-0.80
-1.22
-1.49
-1.49
-1.18
-0.69
-0.23
0.02
0.05
0.04
0.23
0.79
1.63
2.48
2.97
2.82
2.00
0.69
-0.81
-2.19
-3.24
-3.84
-3.90
-3.42
-2.48
-1.33
-0.31
0.28
0.32
-0.03
-0.44
-0.58
-0.35
0.12
0.53
0.62
0.33
-0.19
-0.72
-1.03
-1.00
-0.65
-0.07
0.57
1.08
1.31
1.18
0.77
0.25
-0.19
-0.42
-0.45
-0.39
-0.33
-0.30
-0.26
-0.14
0.08
0.38
0.68
0.96
1.17
1.28
1.23
1.00
0.62
0.24
0.00
-0.02
0.12
0.22
0.12
-0.21
-0.66
-1.08
-1.32
-1.35
-1.23
-1.00
-0.67
-0.22
0.31
0.81
1.09
1.03
0.69
0.22
-0.14
-0.24
-0.09
0.21
0.48
0.61
0.57
0.44
0.27
0.15
0.12
0.16
0.24
0.31
0.33
0.26
0.12
-0.06
-0.23
-0.35
-0.42
-0.46
-0.49
-0.48
-0.41
-0.24
-0.01
0.20
0.29
0.19
-0.09
-0.50
-0.92
-1.21
-1.28
-1.08
-0.70
-0.30
-0.11
-0.26
-0.70
-1.26
-1.66
-1.69
-1.31
-0.59
0.23
0.96
1.49
1.83
2.01
2.09
2.02
1.76
1.25
0.51
-0.33
-1.14
-1.70
-1.92
-1.80
-1.38
-0.78
-0.13
0.48
0.95
1.21
1.22
1.02
0.69
0.35
0.11
-0.01
-0.05
0.02
0.23
0.66
1.30
1.95
2.28
2.03
1.11
-0.20
-1.41
-2.11
-2.12
-1.68
-1.21
-1.08
-1.35
-1.78
-1.95
-1.63
-0.88
-0.06
0.43
0.38
-0.06
-0.50
-0.55
-0.05
0.82
1.66
2.11
2.02
1.49
0.81
0.25
-0.03
-0.02
0.16
0.42
0.71
1.06
1.52
2.04
2.49
2.64
2.29
1.34
-0.13
-1.78
-3.19
-3.96
-3.85
-2.93
-1.50
0.02
1.20
1.78
1.67
0.98
-0.08
-1.19
-2.08
-2.53
-2.44
-1.80
-0.76
0.47
1.58
2.31
2.49
2.08
1.23
0.25
-0.50
-0.70
-0.24
0.78
1.96
2.86
3.11
2.65
1.67
0.57
-0.28
-0.68
-0.69
-0.54
-0.43
-0.44
-0.49
-0.44
-0.28
-0.16
-0.29
-0.83
-1.72
-2.69
-3.38
-3.51
-2.99
-1.98
-0.75
0.40
1.23
1.62
1.55
1.11
0.42
-0.31
-0.92
-1.30
-1.45
-1.43
-1.34
-1.23
-1.12
-1.00
-0.86
-0.71
-0.50
-0.19
0.29
0.96
1.68
2.21
2.35
2.01
1.30
0.51
-0.06
-0.20
0.12
0.68
1.21
1.48
1.38
0.99
0.46
-0.00
-0.29
-0.40
-0.37
-0.25
-0.05
0.28
0.71
1.10
1.24
0.98
0.39
-0.29
-0.68
-0.60
-0.10
0.52
0.92
0.88
0.43
-0.22
-0.81
-1.17
-1.30
-1.27
-1.18
-1.11
-1.11
-1.21
-1.41
-1.68
-1.92
-1.97
-1.73
-1.13
-0.27
0.70
1.59
2.22
2.54
2.62
2.58
2.56
2.63
2.73
2.75
2.54
2.00
1.16
0.12
-0.90
-1.67
-2.09
-2.12
-1.89
-1.59
-1.33
-1.19
-1.12
-1.09
-1.12
-1.21
-1.34
-1.42
-1.30
-0.86
-0.12
0.76
1.53
1.97
1.92
1.43
0.67
-0.13
-0.73
-0.97
-0.81
-0.37
0.18
0.61
0.77
0.60
0.18
-0.35
-0.83
-1.13
-1.18
-1.02
-0.75
-0.51
-0.42
-0.52
-0.75
-0.95
-1.02
-0.87
-0.57
-0.20
0.14
0.39
0.56
0.69
0.81
0.92
1.03
1.14
1.19
1.14
1.00
0.80
0.67
0.69
0.88
1.19
1.48
1.62
1.53
1.20
0.67
-0.01
-0.78
-1.57
-2.25
-2.64
-2.62
-2.15
-1.36
-0.47
0.23
0.60
0.65
0.52
0.39
0.38
0.54
0.75
0.93
0.97
0.84
0.58
0.27
-0.01
-0.19
-0.24
-0.21
-0.11
-0.01
0.07
0.17
0.32
0.55
0.82
1.00
0.95
0.65
0.20
-0.19
-0.34
-0.26
-0.08
-0.05
-0.30
-0.79
-1.31
-1.65
-1.74
-1.67
-1.62
-1.69
-1.82
-1.83
-1.58
-0.97
-0.11
0.84
1.71
2.33
2.64
2.56
2.13
1.42
0.59
-0.19
-0.79
-1.11
-1.17
-1.01
-0.70
-0.36
-0.06
0.18
0.35
0.56
0.84
1.09
1.14
0.74
-0.18
-1.45
-2.69
-3.49
-3.61
-3.16
-2.45
-1.78
-1.27
-0.81
-0.22
0.60
1.50
2.21
2.49
2.26
1.68
0.96
0.34
-0.06
-0.27
-0.41
-0.56
-0.78
-1.02
-1.15
-1.06
-0.70
-0.15
0.38
0.65
0.56
0.19
-0.19
-0.24
0.19
1.06
2.06
2.80
3.04
2.78
2.26
1.77
1.54
1.52
1.56
1.45
1.09
0.51
-0.11
-0.63
-0.96
-1.12
-1.15
-1.11
-0.97
-0.67
-0.23
0.25
0.55
0.47
-0.06
-0.89
-1.74
-2.30
-2.33
-1.81
-0.89
0.15
0.97
1.32
1.08
0.30
-0.74
-1.65
-2.08
-1.90
-1.27
-0.52
0.05
0.30
0.34
0.40
0.60
0.86
0.93
0.58
-0.20
-1.16
-1.92
-2.18
-1.84
-1.08
-0.19
0.57
1.07
1.31
1.34
1.26
1.08
0.79
0.37
-0.13
-0.56
-0.71
-0.41
0.33
1.26
1.97
2.05
1.34
0.06
-1.25
-2.02
-1.95
-1.15
-0.10
0.71
0.93
0.66
0.18
-0.12
-0.04
0.42
1.13
1.93
2.71
3.36
3.75
3.74
3.22
2.23
1.00
-0.17
-0.96
-1.26
-1.12
-0.76
-0.42
-0.25
-0.31
-0.56
-0.89
-1.22
-1.45
-1.56
-1.49
-1.26
-0.89
-0.47
-0.10
0.05
-0.11
-0.58
-1.26
-1.89
-2.22
-2.10
-1.54
-0.74
0.02
0.50
0.67
0.62
0.51
0.44
0.35
0.15
-0.23
-0.67
-0.97
-0.93
-0.51
0.14
0.72
1.06
1.09
0.95
0.80
0.71
0.63
0.43
0.03
-0.51
-0.99
-1.20
-1.08
-0.72
-0.35
-0.20
-0.38
-0.79
-1.19
-1.35
-1.13
-0.61
-0.01
0.44
0.57
0.42
0.13
-0.09
-0.11
0.10
0.49
0.95
1.39
1.75
1.93
1.90
1.64
1.24
0.81
0.51
0.44
0.53
0.68
0.71
0.56
0.25
-0.07
-0.25
-0.27
-0.24
-0.33
-0.67
-1.24
-1.88
-2.33
-2.43
-2.15
-1.64
-1.10
-0.69
-0.50
-0.42
-0.34
-0.15
0.12
0.34
0.34
0.01
-0.58
-1.20
-1.61
-1.64
-1.36
-0.96
-0.65
-0.52
-0.51
-0.43
-0.15
0.32
0.82
1.12
1.06
0.64
0.04
-0.49
-0.70
-0.45
0.20
1.11
1.97
2.58
2.76
2.58
2.17
1.72
1.34
1.04
0.74
0.39
0.04
-0.26
-0.41
-0.45
-0.42
-0.43
-0.50
-0.56
-0.52
-0.26
0.18
0.72
1.22
1.53
1.58
1.33
0.76
-0.07
-1.05
-1.99
-2.66
-2.84
-2.46
-1.64
-0.68
0.10
0.49
0.46
0.16
-0.13
-0.25
-0.16
0.07
0.30
0.41
0.35
0.16
-0.06
-0.17
-0.07
0.29
0.83
1.35
1.63
1.45
0.78
-0.19
-1.09
-1.50
-1.21
-0.27
0.95
1.98
2.41
2.14
1.37
0.54
0.04
0.09
0.57
1.18
1.59
1.66
1.46
1.15
0.90
0.70
0.47
0.11
-0.37
-0.82
-1.09
-1.14
-1.08
-1.14
-1.46
-1.99
-2.52
-2.82
-2.72
-2.21
-1.42
-0.47
0.48
1.23
1.58
1.30
0.39
-0.92
-2.19
-2.92
-2.86
-2.10
-1.03
-0.13
0.35
0.39
0.24
0.13
0.16
0.28
0.37
0.39
0.37
0.43
0.61
0.87
1.10
1.23
1.27
1.24
1.22
1.19
1.09
0.87
0.50
0.05
-0.38
-0.68
-0.78
-0.67
-0.42
-0.18
-0.07
-0.23
-0.60
-1.00
-1.14
-0.82
-0.05
0.92
1.65
1.82
1.35
0.48
-0.39
-0.91
-0.92
-0.50
0.11
0.64
0.86
0.60
-0.08
-1.00
-1.83
-2.22
-2.00
-1.26
-0.33
0.43
0.80
0.85
0.79
0.81
0.94
1.02
0.86
0.44
-0.08
-0.39
-0.33
0.06
0.48
0.60
0.23
-0.53
-1.32
-1.79
-1.71
-1.12
-0.32
0.36
0.65
0.49
0.10
-0.22
-0.23
0.10
0.58
0.84
0.66
0.06
-0.70
-1.26
-1.36
-1.05
-0.55
-0.12
0.08
0.13
0.20
0.37
0.59
0.68
0.50
0.08
-0.37
-0.64
-0.64
-0.46
-0.30
-0.28
-0.38
-0.46
-0.34
-0.05
0.30
0.53
0.56
0.43
0.32
0.36
0.60
0.94
1.24
1.43
1.55
1.71
2.01
2.44
2.86
3.06
2.88
2.25
1.28
0.23
-0.64
-1.16
-1.33
-1.30
-1.23
-1.21
-1.21
-1.08
-0.79
-0.43
-0.17
-0.19
-0.54
-1.07
-1.52
-1.66
-1.48
-1.08
-0.70
-0.53
-0.61
-0.84
-1.01
-0.99
-0.72
-0.25
0.23
0.59
0.73
0.69
0.61
0.64
0.84
1.13
1.34
1.30
0.96
0.41
-0.16
-0.59
-0.86
-1.04
-1.19
-1.37
-1.52
-1.51
-1.27
-0.80
-0.22
0.30
0.67
0.84
0.88
0.84
0.78
0.68
0.51
0.29
0.03
-0.18
-0.29
-0.31
-0.32
-0.45
-0.74
-1.12
-1.44
-1.56
-1.39
-1.02
-0.56
-0.11
0.35
0.86
1.48
2.11
2.58
2.73
2.53
2.11
1.68
1.42
1.37
1.45
1.57
1.71
1.91
2.15
2.31
2.18
1.56
0.41
-1.07
-2.48
-3.42
-3.60
-3.02
-1.92
-0.62
0.49
1.18
1.31
0.92
0.15
-0.77
-1.59
-2.16
-2.41
-2.42
-2.33
-2.26
-2.26
-2.28
-2.24
-2.07
-1.76
-1.36
-0.95
-0.56
-0.21
0.12
0.37
0.46
0.29
-0.14
-0.65
-0.99
-0.91
-0.36
0.49
1.23
1.52
1.26
0.64
0.06
-0.10
0.30
1.10
1.96
2.58
2.86
2.87
2.74
2.53
2.19
1.64
0.87
-0.00
-0.73
-1.12
-1.11
-0.76
-0.26
0.22
0.56
0.72
0.65
0.31
-0.30
-1.09
-1.81
-2.20
-2.10
-1.58
-0.84
-0.11
0.45
0.87
1.25
1.64
1.98
2.08
1.78
1.02
-0.07
-1.24
-2.26
-2.93
-3.19
-3.02
-2.46
-1.62
-0.65
0.25
0.88
1.14
1.04
0.68
0.22
-0.17
-0.32
-0.15
0.30
0.88
1.37
1.61
1.54
1.26
0.93
0.68
0.53
0.42
0.28
0.09
-0.09
-0.19
-0.16
-0.03
0.06
0.01
-0.21
-0.56
-0.90
-1.10
-1.07
-0.84
-0.50
-0.21
-0.10
-0.25
-0.60
-1.05
-1.41
-1.58
-1.49
-1.19
-0.76
-0.27
0.21
0.67
1.07
1.32
1.36
1.07
0.43
-0.46
-1.40
-2.07
-2.20
-1.62
-0.42
1.11
2.53
3.42
3.57
3.02
2.05
1.03
0.22
-0.28
-0.49
-0.47
-0.29
-0.04
0.17
0.15
-0.24
-0.97
-1.88
-2.59
-2.82
-2.41
-1.48
-0.35
0.65
1.24
1.39
1.10
0.52
-0.21
-0.91
-1.42
-1.60
-1.40
-0.90
-0.26
0.29
0.59
0.59
0.37
0.08
-0.13
-0.17
-0.03
0.27
0.63
0.95
1.08
0.93
0.45
-0.24
-0.87
-1.12
-0.79
0.07
1.11
1.92
2.15
1.76
0.92
-0.06
-0.88
-1.39
-1.52
-1.29
-0.74
0.07
1.04
2.00
2.71
2.99
2.78
2.18
1.36
0.56
-0.13
-0.65
-1.00
-1.16
-1.15
-0.98
-0.75
-0.57
-0.51
-0.56
-0.60
-0.50
-0.20
0.30
0.89
1.38
1.59
1.39
0.75
-0.21
-1.28
-2.18
-2.67
-2.65
-2.19
-1.47
-0.73
-0.10
0.38
0.72
0.94
1.00
0.85
0.53
0.18
0.01
0.17
0.61
1.13
1.45
1.42
1.04
0.52
0.08
-0.13
-0.14
-0.11
-0.19
-0.42
-0.70
-0.89
-0.86
-0.64
-0.33
-0.08
0.05
0.10
0.17
0.31
0.50
0.62
0.55
0.20
-0.37
-1.00
-1.45
-1.55
-1.29
-0.81
-0.28
0.15
0.45
0.71
0.99
1.31
1.58
1.70
1.61
1.31
0.91
0.54
0.25
0.03
-0.18
-0.43
-0.69
-0.90
-0.97
-0.89
-0.72
-0.56
-0.49
-0.48
-0.43
-0.23
0.15
0.54
0.74
0.57
0.04
-0.65
-1.17
-1.29
-0.96
-0.30
0.42
1.02
1.39
1.51
1.43
1.14
0.65
0.02
-0.58
-0.94
-0.89
-0.44
0.23
0.78
0.94
0.63
0.03
-0.49
-0.61
-0.24
0.43
1.03
1.22
0.92
0.28
-0.37
-0.80
-0.93
-0.89
-0.85
-0.88
-0.94
-0.91
-0.76
-0.58
-0.51
-0.62
-0.87
-1.10
-1.19
-1.10
-0.96
-0.95
-1.18
-1.63
-2.13
-2.46
-2.45
-2.02
-1.20
-0.14
0.95
1.84
2.34
2.39
2.06
1.54
1.05
0.76
0.75
0.97
1.28
1.57
1.73
1.75
1.65
1.49
1.29
1.07
0.82
0.54
0.29
0.11
0.04
0.08
0.14
0.16
0.12
0.05
0.05
0.12
0.19
0.18
-0.03
-0.44
-0.99
-1.56
-2.07
-2.45
-2.64
-2.60
-2.34
-1.89
-1.40
-0.97
-0.64
-0.34
0.06
0.57
1.09
1.36
1.17
0.49
-0.42
-1.21
-1.58
-1.41
-0.85
-0.16
0.47
0.93
1.24
1.43
1.50
1.42
1.17
0.86
0.61
0.55
0.68
0.89
0.99
0.85
0.45
-0.11
-0.63
-0.94
-0.93
-0.62
-0.09
0.45
0.81
0.81
0.40
-0.30
-1.02
-1.40
-1.22
-0.46
0.60
1.54
1.93
1.64
0.78
-0.28
-1.18
-1.69
-1.82
-1.74
-1.58
-1.39
-1.11
-0.67
-0.11
0.43
0.76
0.79
0.54
0.18
-0.08
-0.10
0.16
0.69
1.37
2.04
2.48
2.49
1.97
1.02
-0.07
-0.91
-1.23
-1.03
-0.59
-0.29
-0.42
-0.99
-1.73
-2.26
-2.30
-1.83
-1.07
-0.34
0.04
-0.04
-0.53
-1.20
-1.81
-2.14
-2.07
-1.59
-0.80
0.14
1.03
1.72
2.09
2.12
1.87
1.45
0.99
0.59
0.29
0.09
-0.05
-0.10
-0.04
0.20
0.61
1.13
1.62
1.91
1.91
1.66
1.24
0.81
0.52
0.42
0.52
0.77
1.03
1.18
1.11
0.78
0.25
-0.28
-0.62
-0.68
-0.46
-0.13
0.14
0.25
0.23
0.16
0.17
0.21
0.20
0.01
-0.46
-1.10
-1.75
-2.14
-2.11
-1.65
-0.99
-0.45
-0.28
-0.54
-1.02
-1.38
-1.35
-0.90
-0.24
0.30
0.49
0.34
0.08
0.01
0.26
0.72
1.13
1.22
0.95
0.49
0.09
-0.02
0.19
0.60
0.99
1.18
1.08
0.71
0.17
-0.45
-1.08
-1.62
-2.01
-2.16
-1.99
-1.48
-0.67
0.29
1.21
1.88
2.15
1.95
1.35
0.55
-0.21
-0.69
-0.83
-0.66
-0.33
0.01
0.25
0.35
0.32
0.24
0.18
0.21
0.38
0.66
0.95
1.09
0.97
0.59
0.10
-0.27
-0.38
-0.20
0.13
0.43
0.64
0.78
0.97
1.20
1.38
1.30
0.80
-0.13
-1.31
-2.48
-3.38
-3.89
-3.98
-3.64
-2.90
-1.81
-0.53
0.64
1.36
1.41
0.83
-0.08
-0.86
-1.16
-0.86
-0.07
0.89
1.77
2.38
2.65
2.57
2.14
1.40
0.45
-0.55
-1.38
-1.87
-1.96
-1.68
-1.15
-0.55
-0.03
0.31
0.37
0.17
-0.19
-0.59
-0.87
-0.93
-0.80
-0.53
-0.27
-0.07
0.01
0.01
-0.01
0.01
0.10
0.20
0.20
-0.04
-0.58
-1.33
-2.01
-2.24
-1.79
-0.67
0.76
2.02
2.66
2.57
1.90
1.08
0.49
0.37
0.71
1.29
1.87
2.26
2.38
2.20
1.74
1.03
0.20
-0.56
-1.01
-0.99
-0.52
0.21
0.89
1.22
1.04
0.40
-0.51
-1.41
-2.10
-2.44
-2.40
-2.02
-1.45
-0.87
-0.52
-0.53
-0.88
-1.36
-1.61
-1.40
-0.67
0.31
1.16
1.57
1.47
1.06
0.67
0.55
0.76
1.15
1.48
1.61
1.53
1.35
1.22
1.20
1.18
1.03
0.60
-0.12
-0.98
-1.74
-2.18
-2.18
-1.79
-1.23
-0.75
-0.49
-0.46
-0.52
-0.52
-0.39
-0.15
0.12
0.33
0.43
0.42
0.33
0.19
0.05
-0.04
-0.06
-0.07
-0.16
-0.40
-0.83
-1.35
-1.76
-1.90
-1.70
-1.27
-0.82
-0.50
-0.31
-0.15
0.06
0.39
0.76
1.14
1.52
1.94
2.44
2.96
3.34
3.39
3.01
2.27
1.40
0.67
0.25
0.15
0.26
0.43
0.51
0.45
0.18
-0.36
-1.15
-2.10
-3.00
-3.57
-3.61
-3.08
-2.12
-1.08
-0.29
0.02
-0.18
-0.71
-1.30
-1.69
-1.74
-1.49
-1.04
-0.55
-0.11
0.22
0.45
0.63
0.77
0.92
1.09
1.31
1.53
1.69
1.79
1.81
1.74
1.56
1.23
0.79
0.32
-0.05
-0.23
-0.19
-0.06
0.01
-0.03
-0.15
-0.17
0.04
0.42
0.78
0.88
0.63
0.18
-0.21
-0.29
-0.05
0.35
0.62
0.59
0.23
-0.31
-0.87
-1.31
-1.58
-1.65
-1.58
-1.40
-1.19
-1.01
-0.90
-0.84
-0.76
-0.56
-0.15
0.41
0.92
1.20
1.12
0.74
0.30
0.04
0.07
0.33
0.57
0.57
0.28
-0.14
-0.47
-0.50
-0.25
0.12
0.37
0.35
0.06
-0.33
-0.64
-0.78
-0.78
-0.72
-0.68
-0.61
-0.43
-0.02
0.62
1.37
2.03
2.44
2.49
2.19
1.66
1.04
0.49
0.08
-0.17
-0.31
-0.45
-0.63
-0.88
-1.13
-1.30
-1.31
-1.14
-0.83
-0.46
-0.11
0.20
0.48
0.73
0.93
1.02
0.89
0.46
-0.25
-1.09
-1.81
-2.10
-1.80
-0.95
0.20
1.28
1.95
2.05
1.67
1.01
0.33
-0.23
-0.59
-0.83
-1.03
-1.27
-1.53
-1.70
-1.61
-1.18
-0.38
0.59
1.42
1.81
1.60
0.92
0.03
-0.77
-1.29
-1.54
-1.59
-1.49
-1.22
-0.71
0.01
0.77
1.30
1.40
1.00
0.29
-0.46
-0.93
-0.97
-0.58
0.05
0.70
1.11
1.14
0.82
0.32
-0.07
-0.15
0.13
0.56
0.86
0.83
0.49
0.08
-0.14
-0.05
0.27
0.58
0.67
0.55
0.41
0.47
0.80
1.28
1.66
1.70
1.34
0.68
-0.09
-0.73
-1.13
-1.23
-1.06
-0.70
-0.22
0.23
0.54
0.60
0.40
-0.02
-0.55
-1.05
-1.38
-1.47
-1.35
-1.09
-0.80
-0.59
-0.49
-0.44
-0.38
-0.21
0.03
0.26
0.38
0.34
0.17
-0.02
-0.15
-0.21
-0.25
-0.36
-0.57
-0.86
-1.12
-1.28
-1.28
-1.13
-0.91
-0.68
-0.53
-0.45
-0.38
-0.23
0.05
0.51
1.06
1.57
1.93
2.03
1.85
1.47
0.97
0.45
-0.01
-0.34
-0.46
-0.34
-0.02
0.42
0.83
1.10
1.15
0.97
0.60
0.10
-0.43
-0.90
-1.24
-1.39
-1.33
-1.11
-0.77
-0.38
-0.03
0.24
0.40
0.43
0.38
0.29
0.22
0.18
0.10
-0.07
-0.30
-0.46
-0.42
-0.09
0.45
0.96
1.20
1.05
0.58
0.02
-0.40
-0.57
-0.53
-0.43
-0.41
-0.52
-0.70
-0.82
-0.79
-0.64
-0.48
-0.43
-0.51
-0.66
-0.66
-0.34
0.31
1.15
1.92
2.35
2.35
1.98
1.38
0.78
0.33
0.10
0.13
0.34
0.61
0.75
0.58
0.08
-0.57
-1.13
-1.32
-1.10
-0.63
-0.23
-0.14
-0.43
-0.95
-1.41
-1.63
-1.54
-1.26
-0.94
-0.71
-0.56
-0.45
-0.28
0.00
0.33
0.64
0.80
0.74
0.44
0.03
-0.33
-0.53
-0.55
-0.50
-0.50
-0.61
-0.74
-0.70
-0.35
0.28
0.91
1.17
0.81
-0.08
-1.12
-1.82
-1.83
-1.18
-0.17
0.79
1.46
1.83
2.04
2.20
2.27
2.12
1.62
0.83
-0.04
-0.67
-0.90
-0.75
-0.41
-0.03
0.29
0.58
0.82
0.89
0.61
-0.17
-1.37
-2.63
-3.47
-3.50
-2.66
-1.23
0.27
1.39
1.92
1.92
1.61
1.22
0.83
0.45
0.06
-0.33
-0.60
-0.70
-0.64
-0.54
-0.52
-0.59
-0.61
-0.39
0.13
0.80
1.31
1.36
0.85
-0.07
-1.06
-1.77
-2.01
-1.75
-1.15
-0.38
0.41
1.14
1.77
2.29
2.65
2.78
2.59
2.05
1.24
0.30
-0.47
-0.86
-0.73
-0.18
0.54
1.08
1.19
0.75
-0.12
-1.13
-1.93
-2.25
-1.97
-1.18
-0.18
0.70
1.15
1.10
0.66
0.12
-0.28
-0.42
-0.39
-0.35
-0.47
-0.70
-0.90
-0.84
-0.43
0.26
0.99
1.49
1.58
1.28
0.74
0.17
-0.30
-0.67
-0.97
-1.27
-1.52
-1.63
-1.50
-1.08
-0.43
0.26
0.73
0.80
0.42
-0.28
-1.06
-1.67
-1.94
-1.82
-1.39
-0.72
0.07
0.91
1.68
2.30
2.61
2.52
1.99
1.06
-0.06
-1.12
-1.81
-1.92
-1.47
-0.64
0.18
0.71
0.78
0.53
0.20
0.05
0.10
0.19
0.12
-0.18
-0.56
-0.75
-0.58
-0.08
0.51
0.94
1.07
0.97
0.80
0.72
0.66
0.48
0.06
-0.54
-1.07
-1.27
-0.99
-0.34
0.37
0.87
0.95
0.67
0.17
-0.35
-0.71
-0.84
-0.73
-0.44
-0.04
0.42
0.87
1.25
1.48
1.52
1.37
1.10
0.82
0.62
0.52
0.46
0.34
0.10
-0.21
-0.48
-0.61
-0.56
-0.41
-0.31
-0.31
-0.43
-0.59
-0.66
-0.61
-0.43
-0.21
-0.04
-0.01
-0.15
-0.46
-0.87
-1.25
-1.46
-1.39
-1.05
-0.56
-0.15
0.04
-0.04
-0.29
-0.54
-0.65
-0.50
-0.08
0.57
1.34
2.04
2.43
2.31
1.61
0.48
-0.75
-1.65
-1.94
-1.56
-0.76
0.05
0.51
0.48
0.05
-0.55
-1.06
-1.31
-1.23
-0.84
-0.22
0.48
1.08
1.44
1.53
1.45
1.34
1.33
1.42
1.51
1.46
1.24
0.95
0.72
0.68
0.76
0.80
0.63
0.21
-0.33
-0.80
-1.00
-0.84
-0.45
-0.05
0.12
-0.07
-0.60
-1.27
-1.78
-1.87
-1.49
-0.77
-0.03
0.47
0.62
0.50
0.32
0.21
0.21
0.21
0.11
-0.10
-0.34
-0.48
-0.50
-0.48
-0.58
-0.94
-1.55
-2.25
-2.74
-2.83
-2.48
-1.83
-1.14
-0.59
-0.23
0.00
0.26
0.63
1.14
1.66
2.06
2.27
2.29
2.22
2.16
2.15
2.15
2.07
1.85
1.43
0.84
0.13
-0.59
-1.20
-1.59
-1.69
-1.55
-1.30
-1.06
-0.87
-0.70
-0.45
-0.09
0.28
0.48
0.32
-0.16
-0.77
-1.16
-1.15
-0.73
-0.13
0.36
0.56
0.47
0.25
0.02
-0.16
-0.29
-0.38
-0.40
-0.28
0.01
0.38
0.67
0.73
0.52
0.18
-0.11
-0.20
-0.10
0.13
0.32
0.38
0.29
0.09
-0.18
-0.48
-0.79
-1.07
-1.23
-1.18
-0.85
-0.26
0.48
1.17
1.60
1.65
1.29
0.63
-0.16
-0.85
-1.24
-1.23
-0.81
-0.15
0.55
1.11
1.39
1.38
1.12
0.69
0.16
-0.41
-0.94
-1.36
-1.57
-1.50
-1.16
-0.57
0.14
0.89
1.59
2.18
2.57
2.65
2.35
1.64
0.57
-0.62
-1.67
-2.27
-2.25
-1.65
-0.71
0.21
0.77
0.83
0.51
0.08
-0.18
-0.13
0.18
0.55
0.78
0.79
0.61
0.41
0.35
0.54
0.93
1.39
1.72
1.77
1.47
0.92
0.28
-0.26
-0.64
-0.94
-1.31
-1.81
-2.36
-2.69
-2.65
-2.19
-1.53
-0.92
-0.56
-0.44
-0.41
-0.28
-0.01
0.32
0.52
0.48
0.19
-0.16
-0.36
-0.23
0.21
0.79
1.22
1.29
0.92
0.27
-0.35
-0.67
-0.57
-0.20
0.17
0.30
0.10
-0.27
-0.62
-0.74
-0.58
-0.25
0.09
0.25
0.16
-0.12
-0.43
-0.59
-0.47
-0.09
0.37
0.67
0.63
0.23
-0.32
-0.70
-0.68
-0.18
0.60
1.38
1.88
2.00
1.79
1.39
0.94
0.50
0.09
-0.30
-0.65
-0.87
-0.91
-0.79
-0.63
-0.57
-0.76
-1.16
-1.66
-2.06
-2.23
-2.14
-1.86
-1.48
-1.10
-0.72
-0.33
0.09
0.50
0.81
0.92
0.80
0.52
0.23
0.08
0.15
0.42
0.85
1.31
1.76
2.12
2.33
2.31
2.00
1.45
0.79
0.23
-0.02
0.08
0.43
0.81
1.01
0.97
0.73
0.45
0.30
0.35
0.55
0.77
0.82
0.63
0.17
-0.46
-1.05
-1.53
-1.84
-2.02
-2.16
-2.25
-2.21
-1.90
-1.26
-0.36
0.52
1.08
1.08
0.54
-0.29
-1.03
-1.38
-1.27
-0.83
-0.32
0.11
0.41
0.64
0.81
0.91
0.81
0.46
-0.04
-0.48
-0.63
-0.39
0.12
0.64
0.87
0.66
0.06
-0.69
-1.35
-1.68
-1.65
-1.32
-0.85
-0.39
-0.04
0.22
0.40
0.53
0.56
0.43
0.11
-0.33
-0.73
-0.90
-0.75
-0.34
0.11
0.40
0.41
0.21
-0.01
-0.07
0.05
0.27
0.47
0.59
0.68
0.82
0.99
1.09
0.97
0.60
0.12
-0.25
-0.32
-0.11
0.17
0.33
0.27
0.14
0.16
0.45
0.92
1.30
1.33
0.97
0.41
-0.02
-0.08
0.24
0.73
1.06
0.99
0.47
-0.30
-1.02
-1.41
-1.38
-1.05
-0.68
-0.47
-0.48
-0.55
-0.49
-0.20
0.20
0.47
0.41
0.01
-0.49
-0.81
-0.77
-0.46
-0.14
-0.07
-0.38
-0.94
-1.50
-1.79
-1.69
-1.29
-0.76
-0.30
-0.03
0.07
0.09
0.08
0.05
-0.09
-0.37
-0.73
-0.98
-0.90
-0.34
0.62
1.69
2.52
2.83
2.58
1.97
1.27
0.71
0.38
0.25
0.27
0.37
0.50
0.62
0.66
0.59
0.41
0.16
-0.06
-0.18
-0.21
-0.22
-0.28
-0.41
-0.58
-0.70
-0.69
-0.59
-0.48
-0.46
-0.56
-0.71
-0.81
-0.79
-0.66
-0.49
-0.35
-0.23
-0.10
0.11
0.39
0.71
0.96
1.05
0.96
0.74
0.45
0.12
-0.22
-0.59
-0.98
-1.33
-1.59
-1.75
-1.77
-1.66
-1.41
-0.96
-0.31
0.41
0.99
1.19
0.92
0.27
-0.45
-0.89
-0.83
-0.30
0.48
1.20
1.67
1.86
1.84
1.72
1.54
1.25
0.84
0.36
-0.05
-0.22
-0.05
0.40
0.91
1.25
1.20
0.79
0.18
-0.35
-0.63
-0.55
-0.24
0.13
0.34
0.29
-0.02
-0.49
-0.96
-1.30
-1.43
-1.37
-1.18
-0.95
-0.75
-0.60
-0.47
-0.30
-0.10
0.09
0.17
0.08
-0.15
-0.43
-0.59
-0.52
-0.21
0.27
0.76
1.09
1.16
1.01
0.74
0.52
0.43
0.47
0.56
0.61
0.58
0.51
0.51
0.63
0.85
1.02
0.97
0.60
-0.05
-0.74
-1.26
-1.43
-1.22
-0.76
-0.18
0.36
0.80
1.08
1.19
1.10
0.82
0.41
0.00
-0.31
-0.48
-0.55
-0.61
-0.71
-0.82
-0.88
-0.84
-0.72
-0.62
-0.65
-0.85
-1.16
-1.37
-1.31
-0.92
-0.27
0.39
0.85
0.96
0.77
0.43
0.09
-0.14
-0.27
-0.37
-0.53
-0.80
-1.08
-1.27
-1.24
-0.96
-0.46
0.12
0.63
0.91
0.91
0.65
0.28
-0.04
-0.16
-0.02
0.34
0.77
1.10
1.22
1.13
0.84
0.49
0.13
-0.18
-0.42
-0.55
-0.52
-0.30
0.09
0.55
0.92
1.09
1.02
0.79
0.56
0.41
0.39
0.43
0.43
0.37
0.23
0.08
-0.06
-0.19
-0.35
-0.56
-0.84
-1.07
-1.16
-1.06
-0.77
-0.36
0.09
0.51
0.85
1.06
1.12
0.97
0.66
0.26
-0.10
-0.35
-0.46
-0.48
-0.55
-0.71
-1.01
-1.35
-1.60
-1.64
-1.43
-0.99
-0.35
0.38
1.11
1.64
1.79
1.46
0.72
-0.18
-0.85
-1.01
-0.60
0.18
0.90
1.15
0.76
-0.15
-1.24
-2.09
-2.43
-2.23
-1.63
-0.88
-0.18
0.37
0.79
1.14
1.45
1.65
1.61
1.22
0.53
-0.25
-0.83
-1.04
-0.89
-0.59
-0.34
-0.19
-0.01
0.36
1.00
1.75
2.25
2.20
1.54
0.49
-0.56
-1.21
-1.27
-0.83
-0.11
0.60
1.10
1.24
1.01
0.50
-0.15
-0.74
-1.14
-1.33
-1.39
-1.39
-1.42
-1.48
-1.57
-1.65
-1.71
-1.74
-1.68
-1.45
-0.98
-0.22
0.75
1.76
2.54
2.84
2.59
1.83
0.80
-0.20
-0.96
-1.35
-1.40
-1.26
-1.06
-0.88
-0.72
-0.52
-0.26
0.05
0.32
0.46
0.45
0.37
0.36
0.56
1.01
1.57
2.03
2.22
2.12
1.88
1.70
1.72
1.88
1.97
1.78
1.23
0.40
-0.45
-1.07
-1.35
-1.30
-1.03
-0.68
-0.37
-0.18
-0.15
-0.28
-0.45
-0.53
-0.38
-0.00
0.43
0.70
0.61
0.14
-0.50
-1.03
-1.19
-0.93
-0.42
0.15
0.62
0.95
1.19
1.35
1.36
1.13
0.59
-0.19
-1.07
-1.84
-2.36
-2.57
-2.46
-2.04
-1.42
-0.73
-0.19
0.02
-0.15
-0.54
-0.84
-0.77
-0.28
0.44
0.98
1.00
0.41
-0.56
-1.46
-1.92
-1.78
-1.21
-0.50
0.04
0.26
0.22
0.10
0.07
0.22
0.51
0.80
1.01
1.10
1.12
1.13
1.17
1.25
1.33
1.36
1.25
0.98
0.54
0.02
-0.47
-0.77
-0.84
-0.72
-0.57
-0.58
-0.90
-1.48
-2.13
-2.54
-2.51
-2.00
-1.13
-0.17
0.64
1.13
1.26
1.09
0.74
0.31
-0.14
-0.56
-0.92
-1.23
-1.47
-1.57
-1.48
-1.18
-0.66
0.04
0.83
1.65
2.38
2.96
3.32
3.40
3.25
2.94
2.59
2.24
1.88
1.44
0.90
0.33
-0.12
-0.28
-0.10
0.28
0.61
0.64
0.28
-0.32
-0.91
-1.22
-1.10
-0.68
-0.22
-0.02
-0.20
-0.75
-1.41
-1.90
-2.04
-1.79
-1.28
-0.70
-0.17
0.28
0.68
1.05
1.38
1.59
1.62
1.44
1.07
0.57
0.02
-0.47
-0.82
-0.92
-0.72
-0.30
0.20
0.59
0.71
0.50
0.04
-0.53
-1.07
-1.52
-1.80
-1.91
-1.79
-1.40
-0.76
-0.01
0.67
1.09
1.15
0.88
0.36
-0.35
-1.18
-2.07
-2.89
-3.46
-3.56
-3.09
-2.10
-0.82
0.43
1.39
1.93
2.07
1.97
1.79
1.61
1.42
1.13
0.70
0.25
-0.01
0.18
0.90
1.98
3.01
3.49
3.16
2.11
0.77
-0.31
-0.81
-0.73
-0.38
-0.15
-0.25
-0.64
-1.08
-1.32
-1.22
-0.84
-0.32
0.18
0.58
0.82
0.85
0.62
0.11
-0.64
-1.45
-2.12
-2.44
-2.39
-2.05
-1.59
-1.17
-0.82
-0.52
-0.21
0.11
0.35
0.41
0.24
-0.11
-0.49
-0.66
-0.53
-0.12
0.37
0.69
0.66
0.29
-0.25
-0.70
-0.82
-0.46
0.32
1.38
2.47
3.34
3.79
3.71
3.14
2.27
1.35
0.61
0.09
-0.26
-0.54
-0.80
-0.95
-0.89
-0.55
-0.02
0.50
0.79
0.75
0.36
-0.32
-1.19
-2.16
-3.09
-3.82
-4.11
-3.84
-3.03
-1.86
-0.63
0.40
1.07
1.29
1.08
0.50
-0.31
-1.10
-1.56
-1.43
-0.65
0.56
1.75
2.42
2.29
1.42
0.22
-0.72
-0.97
-0.44
0.57
1.53
1.99
1.77
1.00
0.02
-0.78
-1.19
-1.19
-0.90
-0.54
-0.27
-0.18
-0.25
-0.41
-0.50
-0.37
0.02
0.58
1.09
1.36
1.33
1.07
0.77
0.54
0.40
0.24
-0.04
-0.46
-0.92
-1.26
-1.37
-1.21
-0.82
-0.28
0.36
0.97
1.41
1.49
1.11
0.31
-0.65
-1.41
-1.68
-1.34
-0.53
0.47
1.30
1.71
1.59
1.08
0.45
-0.05
-0.20
-0.02
0.34
0.62
0.69
0.56
0.42
0.45
0.71
1.10
1.31
1.11
0.45
-0.47
-1.31
-1.76
-1.75
-1.38
-0.91
-0.57
-0.43
-0.44
-0.45
-0.37
-0.20
-0.02
0.12
0.24
0.38
0.59
0.85
1.04
1.04
0.83
0.41
-0.07
-0.51
-0.81
-0.90
-0.75
-0.37
0.15
0.67
1.03
1.11
0.87
0.37
-0.24
-0.84
-1.34
-1.73
-2.01
-2.13
-2.01
-1.57
-0.85
-0.03
0.64
0.91
0.73
0.24
-0.30
-0.62
-0.63
-0.44
-0.23
-0.13
-0.13
-0.11
0.01
0.26
0.54
0.79
0.97
1.12
1.30
1.45
1.47
1.23
0.70
-0.04
-0.81
-1.40
-1.64
-1.45
-0.84
0.06
1.00
1.69
1.89
1.54
0.82
0.07
-0.42
-0.51
-0.34
-0.16
-0.22
-0.62
-1.24
-1.81
-2.09
-1.93
-1.36
-0.55
0.25
0.77
0.88
0.60
0.15
-0.16
-0.09
0.40
1.11
1.68
1.81
1.45
0.73
-0.05
-0.64
-0.97
-1.09
-1.09
-1.00
-0.73
-0.23
0.45
1.14
1.59
1.64
1.30
0.76
0.26
-0.04
-0.12
-0.08
-0.03
-0.03
-0.04
0.01
0.13
0.21
0.11
-0.22
-0.76
-1.31
-1.65
-1.64
-1.25
-0.59
0.14
0.74
1.05
1.01
0.63
0.04
-0.56
-0.99
-1.12
-0.94
-0.55
-0.10
0.27
0.51
0.67
0.82
0.97
1.06
1.03
0.86
0.58
0.30
0.14
0.15
0.31
0.53
0.75
0.93
1.02
1.02
0.87
0.56
0.14
-0.25
-0.46
-0.41
-0.16
0.15
0.35
0.38
0.29
0.19
0.16
0.15
0.04
-0.31
-0.88
-1.54
-1.99
-2.05
-1.69
-1.08
-0.49
-0.13
-0.07
-0.15
-0.15
0.08
0.51
0.94
1.09
0.82
0.20
-0.50
-0.94
-0.91
-0.46
0.19
0.71
0.89
0.69
0.32
0.03
-0.01
0.18
0.42
0.48
0.27
-0.09
-0.38
-0.33
0.10
0.79
1.42
1.74
1.68
1.31
0.81
0.30
-0.21
-0.81
-1.51
-2.22
-2.76
-2.99
-2.88
-2.52
-2.04
-1.56
-1.16
-0.89
-0.75
-0.71
-0.66
-0.48
-0.02
0.73
1.64
2.45
2.85
2.69
2.03
1.10
0.17
-0.53
-1.01
-1.36
-1.66
-1.91
-1.99
-1.74
-1.16
-0.39
0.26
0.48
0.18
-0.49
-1.18
-1.58
-1.53
-1.11
-0.49
0.20
0.95
1.75
2.57
3.22
3.46
3.18
2.47
1.66
1.10
0.98
1.23
1.58
1.66
1.31
0.56
-0.35
-1.16
-1.67
-1.83
-1.71
-1.42
-1.03
-0.58
-0.10
0.36
0.72
0.92
0.94
0.84
0.66
0.48
0.31
0.15
-0.05
-0.31
-0.63
-1.02
-1.41
-1.75
-1.94
-1.87
-1.47
-0.73
0.22
1.21
2.03
2.55
2.75
2.67
2.39
1.97
1.49
0.98
0.48
-0.02
-0.48
-0.90
-1.25
-1.45
-1.43
-1.14
-0.64
-0.12
0.27
0.37
0.22
-0.03
-0.21
-0.23
-0.12
-0.04
-0.14
-0.48
-1.00
-1.50
-1.80
-1.72
-1.26
-0.58
0.02
0.26
-0.01
-0.68
-1.41
-1.85
-1.75
-1.17
-0.42
0.20
0.52
0.64
0.78
1.13
1.61
2.00
2.01
1.52
0.62
-0.40
-1.26
-1.76
-1.84
-1.55
-1.04
-0.39
0.27
0.86
1.33
1.65
1.79
1.74
1.44
0.86
0.02
-0.93
-1.77
-2.22
-2.10
-1.45
-0.49
0.41
0.94
0.97
0.61
0.11
-0.25
-0.28
0.00
0.44
0.81
0.96
0.85
0.56
0.27
0.14
0.22
0.50
0.89
1.27
1.57
1.75
1.77
1.62
1.25
0.66
-0.06
-0.71
-1.09
-1.04
-0.64
-0.14
0.19
0.13
-0.26
-0.76
-1.06
-1.02
-0.72
-0.38
-0.22
-0.30
-0.49
-0.60
-0.50
-0.24
0.01
0.10
-0.05
-0.40
-0.79
-1.07
-1.15
-1.03
-0.77
-0.48
-0.28
-0.23
-0.35
-0.54
-0.70
-0.71
-0.58
-0.40
-0.26
-0.21
-0.16
0.02
0.40
0.90
1.31
1.44
1.18
0.65
0.10
-0.23
-0.24
-0.01
0.21
0.25
0.05
-0.32
-0.70
-0.91
-0.89
-0.63
-0.21
0.22
0.57
0.79
0.88
0.89
0.91
0.94
0.97
0.95
0.86
0.70
0.58
0.54
0.61
0.70
0.69
0.48
0.03
-0.62
-1.35
-2.01
-2.44
-2.56
-2.33
-1.77
-1.04
-0.30
0.27
0.55
0.49
0.19
-0.19
-0.47
-0.53
-0.33
0.01
0.41
0.77
1.09
1.41
1.71
1.94
1.95
1.71
1.25
0.76
0.43
0.39
0.61
0.97
1.31
1.53
1.60
1.47
1.15
0.63
-0.05
-0.79
-1.52
-2.15
-2.66
-2.95
-2.96
-2.62
-1.98
-1.21
-0.53
-0.16
-0.11
-0.27
-0.43
-0.41
-0.22
0.01
0.10
-0.07
-0.42
-0.75
-0.83
-0.58
-0.06
0.55
1.07
1.41
1.59
1.66
1.58
1.28
0.70
-0.14
-1.03
-1.70
-1.93
-1.71
-1.23
-0.76
-0.50
-0.50
-0.68
-0.89
-1.03
-1.00
-0.73
-0.15
0.69
1.67
2.49
2.86
2.59
1.73
0.53
-0.66
-1.55
-2.03
-2.15
-2.04
-1.79
-1.43
-0.93
-0.25
0.54
1.30
1.83
1.99
1.74
1.20
0.57
0.03
-0.33
-0.52
-0.60
-0.65
-0.70
-0.69
-0.57
-0.27
0.20
0.78
1.38
1.92
2.34
2.59
2.63
2.43
1.97
1.30
0.53
-0.26
-0.94
-1.45
-1.76
-1.85
-1.70
-1.32
-0.79
-0.28
0.05
0.16
0.13
0.12
0.28
0.53
0.66
0.44
-0.21
-1.12
-1.95
-2.39
-2.38
-2.06
-1.69
-1.46
-1.37
-1.28
-1.07
-0.71
-0.25
0.19
0.59
0.94
1.29
1.59
1.73
1.61
1.20
0.58
-0.12
-0.71
-1.08
-1.13
-0.86
-0.31
0.43
1.19
1.81
2.11
2.04
1.70
1.26
0.92
0.73
0.63
0.49
0.22
-0.11
-0.34
-0.32
-0.07
0.26
0.42
0.28
-0.08
-0.45
-0.58
-0.41
-0.15
-0.09
-0.44
-1.11
-1.75
-1.89
-1.23
0.11
1.66
2.82
3.15
2.59
1.45
0.23
-0.61
-0.87
-0.66
-0.27
-0.03
-0.14
-0.54
-1.05
-1.39
-1.40
-1.09
-0.63
-0.22
-0.03
-0.09
-0.27
-0.45
-0.48
-0.35
-0.11
0.15
0.34
0.41
0.35
0.21
0.08
0.07
0.19
0.39
0.51
0.45
0.24
0.07
0.21
0.72
1.49
2.15
2.33
1.87
0.94
-0.07
-0.76
-0.96
-0.75
-0.34
0.02
0.25
0.33
0.28
0.05
-0.38
-0.99
-1.64
-2.13
-2.26
-1.97
-1.34
-0.60
0.02
0.39
0.47
0.38
0.29
0.32
0.57
1.00
1.45
1.71
1.60
1.07
0.24
-0.61
-1.19
-1.33
-1.04
-0.52
0.01
0.34
0.43
0.31
0.08
-0.20
-0.46
-0.67
-0.80
-0.76
-0.56
-0.24
0.09
0.31
0.34
0.24
0.06
-0.12
-0.28
-0.42
-0.59
-0.81
-1.08
-1.39
-1.64
-1.74
-1.55
-0.98
-0.09
0.86
1.54
1.69
1.24
0.33
-0.70
-1.52
-1.94
-1.94
-1.63
-1.19
-0.80
-0.57
-0.54
-0.72
-1.00
-1.24
-1.28
-1.05
-0.61
-0.07
0.41
0.79
1.14
1.56
2.09
2.62
2.93
2.86
2.41
1.70
1.04
0.65
0.59
0.79
1.02
1.06
0.83
0.42
0.01
-0.18
-0.07
0.34
0.91
1.44
1.78
1.80
1.52
0.99
0.36
-0.24
-0.71
-0.98
-1.06
-1.03
-0.98
-1.01
-1.14
-1.28
-1.30
-1.16
-0.93
-0.78
-0.85
-1.15
-1.48
-1.63
-1.46
-1.08
-0.75
-0.70
-0.97
-1.38
-1.62
-1.55
-1.24
-0.96
-0.86
-0.83
-0.56
0.24
1.51
2.84
3.64
3.51
2.51
1.10
-0.08
-0.59
-0.42
0.15
0.69
0.95
0.89
0.67
0.52
0.51
0.60
0.61
0.43
0.05
-0.40
-0.74
-0.81
-0.59
-0.18
0.27
0.63
0.80
0.77
0.59
0.33
0.08
-0.09
-0.11
0.03
0.28
0.51
0.59
0.45
0.13
-0.22
-0.43
-0.38
-0.09
0.30
0.60
0.69
0.56
0.30
0.11
0.09
0.27
0.52
0.70
0.65
0.37
-0.04
-0.44
-0.68
-0.72
-0.54
-0.24
0.14
0.48
0.70
0.75
0.65
0.50
0.38
0.39
0.53
0.72
0.83
0.74
0.41
-0.08
-0.59
-0.92
-0.95
-0.67
-0.19
0.29
0.58
0.51
0.07
-0.62
-1.35
-1.93
-2.23
-2.23
-1.99
-1.62
-1.17
-0.67
-0.12
0.43
0.86
1.00
0.75
0.15
-0.61
-1.19
-1.35
-1.01
-0.35
0.27
0.56
0.42
0.00
-0.37
-0.44
-0.19
0.19
0.43
0.33
0.01
-0.29
-0.30
0.09
0.68
1.12
1.15
0.71
-0.02
-0.71
-1.08
-1.08
-0.82
-0.53
-0.41
-0.52
-0.78
-1.03
-1.07
-0.76
-0.07
0.82
1.65
2.13
2.09
1.60
0.91
0.37
0.20
0.40
0.76
0.98
0.87
0.42
-0.18
-0.66
-0.78
-0.49
0.11
0.85
1.50
1.93
2.04
1.83
1.28
0.47
-0.48
-1.43
-2.20
-2.61
-2.63
-2.30
-1.75
-1.18
-0.71
-0.42
-0.27
-0.23
-0.25
-0.31
-0.38
-0.47
-0.57
-0.67
-0.75
-0.77
-0.71
-0.55
-0.34
-0.17
-0.16
-0.41
-0.88
-1.46
-1.92
-2.02
-1.67
-0.90
0.15
1.24
2.24
3.02
3.51
3.63
3.32
2.63
1.67
0.67
-0.16
-0.63
-0.66
-0.27
0.43
1.23
1.86
2.04
1.63
0.66
-0.61
-1.75
-2.42
-2.47
-2.02
-1.35
-0.76
-0.33
-0.00
0.36
0.82
1.32
1.74
2.00
2.07
1.98
1.77
1.46
1.00
0.45
-0.14
-0.62
-0.93
-1.06
-1.10
-1.17
-1.31
-1.48
-1.51
-1.30
-0.86
-0.35
0.05
0.25
0.30
0.34
0.50
0.79
1.09
1.21
1.10
0.78
0.44
0.20
0.13
0.08
-0.08
-0.45
-0.94
-1.32
-1.36
-1.01
-0.40
0.19
0.47
0.36
-0.06
-0.52
-0.82
-0.87
-0.69
-0.44
-0.23
-0.10
-0.03
0.10
0.31
0.60
0.89
1.11
1.20
1.11
0.86
0.49
0.08
-0.27
-0.49
-0.58
-0.61
-0.76
-1.11
-1.67
-2.27
-2.66
-2.58
-1.95
-0.92
0.20
1.02
1.32
1.06
0.40
-0.42
-1.15
-1.62
-1.77
-1.64
-1.28
-0.77
-0.22
0.25
0.48
0.41
0.03
-0.50
-0.95
-1.10
-0.84
-0.22
0.57
1.27
1.68
1.77
1.58
1.25
0.93
0.75
0.83
1.21
1.84
2.54
3.08
3.23
2.92
2.29
1.62
1.13
0.93
0.88
0.73
0.31
-0.38
-1.12
-1.63
-1.80
-1.69
-1.49
-1.37
-1.27
-0.99
-0.38
0.57
1.52
2.01
1.71
0.62
-0.87
-2.19
-2.86
-2.71
-1.89
-0.82
0.13
0.69
0.80
0.51
-0.06
-0.71
-1.27
-1.57
-1.54
-1.16
-0.54
0.14
0.70
1.00
0.93
0.51
-0.16
-0.90
-1.51
-1.85
-1.85
-1.50
-0.90
-0.12
0.68
1.36
1.73
1.62
1.04
0.14
-0.74
-1.27
-1.28
-0.78
0.00
0.77
1.29
1.51
1.45
1.24
0.96
0.67
0.38
0.12
-0.08
-0.16
-0.10
0.06
0.19
0.17
-0.10
-0.58
-1.10
-1.43
-1.37
-0.87
-0.08
0.79
1.51
1.89
1.93
1.69
1.25
0.72
0.17
-0.28
-0.53
-0.48
-0.19
0.19
0.39
0.20
-0.35
-1.04
-1.50
-1.43
-0.83
0.01
0.66
0.76
0.27
-0.50
-1.13
-1.28
-0.88
-0.14
0.58
1.02
1.11
0.96
0.77
0.64
0.56
0.45
0.20
-0.12
-0.38
-0.43
-0.22
0.20
0.66
0.99
1.08
0.91
0.48
-0.16
-0.92
-1.62
-2.07
-2.10
-1.71
-1.07
-0.38
0.15
0.46
0.61
0.65
0.58
0.36
-0.05
-0.58
-0.98
-1.03
-0.61
0.15
0.96
1.47
1.43
0.84
-0.11
-1.05
-1.64
-1.63
-0.93
0.27
1.60
2.61
2.90
2.37
1.22
-0.11
-1.15
-1.61
-1.48
-0.97
-0.35
0.17
0.53
0.77
0.91
0.93
0.77
0.43
0.03
-0.25
-0.25
0.05
0.51
0.93
1.12
1.04
0.75
0.44
0.22
0.11
0.04
-0.12
-0.41
-0.73
-0.91
-0.79
-0.33
0.31
0.87
1.12
0.97
0.55
0.12
-0.12
-0.09
0.11
0.31
0.35
0.21
-0.01
-0.18
-0.27
-0.34
-0.56
-1.01
-1.67
-2.37
-2.85
-2.90
-2.41
-1.52
-0.52
0.27
0.61
0.44
-0.11
-0.79
-1.41
-1.83
-2.02
-2.02
-1.85
-1.50
-0.97
-0.34
0.23
0.56
0.54
0.23
-0.15
-0.31
-0.09
0.49
1.21
1.79
2.04
1.90
1.56
1.24
1.15
1.33
1.63
1.80
1.66
1.18
0.56
0.08
-0.02
0.27
0.74
1.03
0.90
0.34
-0.33
-0.77
-0.73
-0.24
0.44
0.95
1.07
0.80
0.34
-0.06
-0.21
-0.09
0.21
0.55
0.82
0.92
0.79
0.44
-0.04
-0.48
-0.72
-0.65
-0.28
0.22
0.68
0.92
0.86
0.56
0.13
-0.29
-0.64
-0.89
-1.06
-1.17
-1.25
-1.29
-1.29
-1.25
-1.17
-1.04
-0.84
-0.57
-0.23
0.18
0.61
1.03
1.34
1.47
1.31
0.82
0.08
-0.74
-1.34
-1.50
-1.12
-0.39
0.33
0.70
0.56
0.02
-0.58
-0.89
-0.76
-0.30
0.20
0.52
0.56
0.44
0.30
0.20
0.07
-0.22
-0.68
-1.22
-1.58
-1.54
-1.08
-0.33
0.38
0.78
0.71
0.28
-0.30
-0.75
-0.86
-0.63
-0.20
0.19
0.32
0.17
-0.13
-0.32
-0.24
0.13
0.56
0.79
0.62
0.10
-0.53
-0.93
-0.85
-0.31
0.48
1.20
1.59
1.57
1.28
0.93
0.72
0.73
0.85
0.90
0.73
0.37
0.04
-0.02
0.31
0.89
1.39
1.39
0.70
-0.58
-2.02
-3.15
-3.68
-3.60
-3.15
-2.64
-2.20
-1.79
-1.28
-0.61
0.13
0.71
0.92
0.72
0.29
-0.07
-0.08
0.32
0.99
1.63
1.96
1.85
1.35
0.69
0.12
-0.20
-0.27
-0.23
-0.24
-0.45
-0.83
-1.22
-1.45
-1.38
-1.00
-0.41
0.21
0.69
0.93
0.89
0.68
0.46
0.44
0.75
1.35
1.98
2.32
2.12
1.37
0.34
-0.50
-0.80
-0.45
0.32
1.04
1.30
0.93
0.09
-0.89
-1.63
-1.89
-1.71
-1.24
-0.72
-0.33
-0.16
-0.21
-0.50
-0.98
-1.56
-2.08
-2.32
-2.14
-1.54
-0.67
0.16
0.74
0.97
0.92
0.77
0.68
0.71
0.83
0.96
1.00
0.98
0.90
0.80
0.65
0.45
0.19
-0.02
-0.07
0.09
0.42
0.74
0.88
0.71
0.31
-0.15
-0.40
-0.33
-0.00
0.35
0.49
0.27
-0.16
-0.59
-0.78
-0.67
-0.38
-0.05
0.22
0.49
0.87
1.45
2.13
2.73
2.97
2.73
2.13
1.40
0.77
0.35
0.08
-0.18
-0.52
-0.94
-1.40
-1.81
-2.12
-2.33
-2.40
-2.35
-2.20
-1.99
-1.75
-1.46
-1.07
-0.56
0.00
0.46
0.58
0.27
-0.39
-1.13
-1.64
-1.66
-1.18
-0.40
0.36
0.86
1.01
0.90
0.72
0.64
0.68
0.76
0.75
0.63
0.45
0.40
0.61
1.06
1.54
1.76
1.54
0.88
0.04
-0.63
-0.95
-0.89
-0.67
-0.51
-0.53
-0.63
-0.61
-0.35
0.08
0.46
0.57
0.33
-0.07
-0.31
-0.13
0.49
1.28
1.85
1.84
1.22
0.23
-0.73
-1.29
-1.30
-0.90
-0.38
0.02
0.20
0.17
0.06
-0.01
-0.02
0.03
0.08
0.08
0.06
0.00
-0.05
-0.07
-0.02
0.15
0.44
0.81
1.15
1.29
1.14
0.70
0.12
-0.39
-0.66
-0.57
-0.21
0.28
0.68
0.86
0.81
0.58
0.28
-0.02
-0.30
-0.61
-0.98
-1.44
-1.91
-2.32
-2.56
-2.56
-2.30
-1.78
-1.12
-0.45
0.07
0.31
0.28
0.06
-0.15
-0.20
0.02
0.49
1.13
1.79
2.28
2.46
2.22
1.66
0.98
0.52
0.46
0.75
1.07
1.01
0.39
-0.64
-1.64
-2.07
-1.67
-0.57
0.75
1.72
1.97
1.45
0.40
-0.79
-1.80
-2.42
-2.57
-2.28
-1.64
-0.88
-0.21
0.13
0.05
-0.37
-0.91
-1.26
-1.25
-0.88
-0.32
0.19
0.50
0.61
0.69
0.86
1.08
1.17
0.97
0.47
-0.10
-0.46
-0.39
0.05
0.60
0.98
0.99
0.71
0.33
0.07
0.02
0.13
0.25
0.25
0.09
-0.22
-0.59
-0.93
-1.13
-1.09
-0.77
-0.24
0.33
0.78
0.93
0.74
0.25
-0.41
-1.06
-1.55
-1.77
-1.70
-1.35
-0.83
-0.26
0.25
0.54
0.52
0.20
-0.31
-0.78
-1.01
-0.84
-0.28
0.52
1.36
2.06
2.55
2.82
2.91
2.78
2.40
1.73
0.83
-0.15
-0.98
-1.46
-1.47
-1.10
-0.55
-0.06
0.18
0.17
-0.01
-0.16
-0.20
-0.16
-0.13
-0.16
-0.18
-0.07
0.30
0.86
1.34
1.38
0.86
-0.11
-1.13
-1.77
-1.82
-1.40
-0.89
-0.64
-0.73
-0.94
-0.90
-0.41
0.47
1.38
1.86
1.67
0.85
-0.28
-1.27
-1.84
-1.85
-1.41
-0.74
-0.02
0.60
1.02
1.19
1.07
0.68
0.11
-0.45
-0.86
-0.94
-0.71
-0.25
0.28
0.71
0.93
0.96
0.88
0.78
0.74
0.76
0.81
0.89
0.98
1.10
1.26
1.38
1.38
1.15
0.66
0.02
-0.57
-0.92
-0.95
-0.73
-0.49
-0.40
-0.60
-0.98
-1.40
-1.64
-1.62
-1.34
-0.95
-0.62
-0.48
-0.54
-0.69
-0.79
-0.72
-0.47
-0.15
0.06
0.03
-0.25
-0.65
-0.96
-1.03
-0.88
-0.64
-0.49
-0.51
-0.61
-0.62
-0.37
0.13
0.76
1.38
1.84
2.12
2.25
2.24
2.09
1.81
1.44
1.05
0.74
0.53
0.37
0.16
-0.13
-0.48
-0.79
-0.94
-0.92
-0.76
-0.55
-0.39
-0.36
-0.43
-0.50
-0.45
-0.19
0.25
0.69
0.90
0.75
0.23
-0.46
-1.04
-1.30
-1.23
-0.94
-0.63
-0.38
-0.21
-0.07
0.08
0.16
0.09
-0.09
-0.31
-0.37
-0.18
0.21
0.65
0.90
0.89
0.66
0.39
0.23
0.21
0.21
0.08
-0.25
-0.71
-1.11
-1.27
-1.07
-0.55
0.13
0.81
1.32
1.58
1.53
1.17
0.52
-0.33
-1.24
-1.97
-2.26
-1.92
-0.93
0.51
2.01
3.12
3.55
3.24
2.39
1.32
0.37
-0.27
-0.53
-0.48
-0.24
0.01
0.10
-0.05
-0.42
-0.86
-1.13
-1.07
-0.69
-0.20
0.13
0.08
-0.31
-0.75
-0.96
-0.77
-0.29
0.17
0.41
0.41
0.36
0.49
0.87
1.33
1.58
1.39
0.73
-0.19
-1.04
-1.63
-1.91
-1.96
-1.85
-1.64
-1.26
-0.72
-0.11
0.39
0.58
0.37
-0.15
-0.75
-1.15
-1.22
-1.03
-0.78
-0.70
-0.88
-1.17
-1.38
-1.34
-1.05
-0.67
-0.42
-0.37
-0.44
-0.44
-0.19
0.32
0.91
1.33
1.41
1.03
0.30
-0.58
-1.39
-1.94
-2.10
-1.80
-1.11
-0.17
0.82
1.61
2.05
2.09
1.84
1.51
1.33
1.46
1.86
2.32
2.51
2.22
1.41
0.35
-0.56
-1.00
-0.80
-0.06
0.92
1.81
2.31
2.31
1.86
1.11
0.28
-0.42
-0.83
-0.92
-0.75
-0.49
-0.33
-0.29
-0.31
-0.24
0.05
0.50
0.96
1.18
1.01
0.45
-0.32
-1.05
-1.52
-1.62
-1.43
-1.15
-0.92
-0.78
-0.66
-0.39
0.08
0.65
1.06
1.05
0.54
-0.31
-1.14
-1.59
-1.48
-0.92
-0.16
0.51
0.95
1.19
1.32
1.35
1.22
0.86
0.19
-0.69
-1.59
-2.28
-2.62
-2.60
-2.35
-2.04
-1.81
-1.67
-1.56
-1.34
-0.99
-0.53
-0.03
0.44
0.88
1.35
1.90
2.44
2.81
2.78
2.27
1.39
0.40
-0.35
-0.70
-0.62
-0.29
0.12
0.50
0.85
1.16
1.38
1.37
1.04
0.43
-0.24
-0.69
-0.74
-0.44
0.00
0.32
0.37
0.16
-0.25
-0.75
-1.33
-1.96
-2.58
-3.02
-3.11
-2.73
-1.96
-1.06
-0.30
0.14
0.27
0.25
0.30
0.55
1.01
1.60
2.19
2.68
2.98
3.03
2.82
2.39
1.83
1.30
0.93
0.80
0.86
1.00
1.04
0.86
0.40
-0.35
-1.31
-2.36
-3.26
-3.80
-3.81
-3.25
-2.28
-1.23
-0.41
-0.03
-0.07
-0.33
-0.54
-0.48
-0.12
0.40
0.86
1.10
1.10
0.99
1.02
1.29
1.78
2.27
2.49
2.30
1.72
0.95
0.26
-0.21
-0.46
-0.57
-0.62
-0.62
-0.47
-0.14
0.27
0.51
0.36
-0.24
-1.10
-1.82
-2.01
-1.52
-0.54
0.50
1.12
1.09
0.49
-0.34
-1.00
-1.21
-0.90
-0.27
0.35
0.59
0.25
-0.66
-1.87
-2.93
-3.41
-3.09
-2.11
-0.83
0.25
0.78
0.66
0.11
-0.52
-0.96
-1.09
-0.99
-0.84
-0.77
-0.78
-0.74
-0.53
-0.12
0.39
0.82
1.03
1.02
0.90
0.83
0.92
1.14
1.38
1.51
1.50
1.44
1.45
1.62
1.91
2.20
2.33
2.18
1.75
1.11
0.39
-0.25
-0.64
-0.68
-0.34
0.29
0.99
1.54
1.76
1.55
1.02
0.35
-0.22
-0.51
-0.44
-0.14
0.19
0.32
0.12
-0.36
-0.97
-1.50
-1.82
-1.95
-1.98
-1.99
-1.97
-1.82
-1.42
-0.79
-0.09
0.47
0.72
0.67
0.47
0.30
0.25
0.23
0.12
-0.15
-0.51
-0.81
-0.89
-0.72
-0.38
0.02
0.37
0.63
0.81
0.87
0.80
0.60
0.32
0.10
0.06
0.22
0.45
0.55
0.32
-0.26
-1.02
-1.67
-1.97
-1.81
-1.28
-0.61
-0.04
0.29
0.42
0.43
0.36
0.19
-0.16
-0.74
-1.37
-1.84
-1.92
-1.54
-0.83
-0.07
0.59
1.09
1.52
1.97
2.43
2.72
2.67
2.18
1.34
0.38
-0.45
-0.93
-0.98
-0.65
-0.06
0.60
1.13
1.40
1.39
1.19
0.93
0.70
0.47
0.19
-0.18
-0.61
-0.95
-1.07
-0.94
-0.65
-0.34
-0.19
-0.22
-0.40
-0.64
-0.85
-0.99
-1.08
-1.20
-1.39
-1.63
-1.89
-2.05
-2.01
-1.70
-1.17
-0.55
0.00
0.38
0.57
0.67
0.82
1.08
1.41
1.67
1.71
1.47
1.01
0.52
0.14
-0.07
-0.19
-0.32
-0.49
-0.63
-0.62
-0.38
0.00
0.35
0.49
0.34
-0.01
-0.38
-0.66
-0.79
-0.83
-0.90
-1.07
-1.33
-1.57
-1.62
-1.31
-0.61
0.36
1.25
1.71
1.50
0.69
-0.37
-1.16
-1.28
-0.64
0.54
1.84
2.83
3.29
3.20
2.69
1.99
1.33
0.86
0.67
0.73
0.93
1.15
1.24
1.11
0.75
0.20
-0.41
-0.95
-1.30
-1.40
-1.30
-1.08
-0.85
-0.63
-0.45
-0.26
-0.07
0.11
0.22
0.21
0.09
-0.06
-0.11
0.05
0.45
0.96
1.35
1.45
1.16
0.55
-0.20
-0.87
-1.35
-1.62
-1.81
-2.00
-2.21
-2.32
-2.13
-1.56
-0.68
0.21
0.78
0.78
0.24
-0.54
-1.15
-1.28
-0.90
-0.27
0.28
0.53
0.54
0.52
0.67
0.99
1.32
1.45
1.29
0.97
0.69
0.58
0.56
0.43
0.01
-0.69
-1.47
-2.07
-2.27
-2.08
-1.60
-0.98
-0.30
0.45
1.25
1.97
2.40
2.37
1.84
0.97
0.06
-0.62
-0.93
-0.92
-0.73
-0.53
-0.38
-0.24
-0.08
0.11
0.24
0.22
0.04
-0.19
-0.35
-0.30
-0.04
0.33
0.66
0.82
0.79
0.63
0.45
0.33
0.26
0.14
-0.10
-0.48
-0.90
-1.18
-1.20
-0.89
-0.36
0.23
0.66
0.85
0.82
0.65
0.47
0.30
0.06
-0.30
-0.75
-1.16
-1.35
-1.25
-0.91
-0.49
-0.16
0.06
0.28
0.64
1.19
1.79
2.13
1.90
1.05
-0.20
-1.38
-2.02
-1.89
-1.12
-0.12
0.66
0.96
0.81
0.48
0.24
0.24
0.41
0.58
0.64
0.56
0.41
0.27
0.08
-0.23
-0.77
-1.43
-1.99
-2.24
-2.03
-1.43
-0.68
0.03
0.64
1.23
1.93
2.74
3.40
3.55
2.95
1.67
0.10
-1.24
-1.97
-2.08
-1.84
-1.61
-1.56
-1.60
-1.48
-1.04
-0.28
0.54
1.09
1.20
0.88
0.35
-0.14
-0.45
-0.52
-0.39
-0.06
0.43
1.01
1.56
1.89
1.86
1.48
0.85
0.27
-0.02
0.12
0.57
1.05
1.17
0.67
-0.50
-2.03
-3.44
-4.22
-4.11
-3.18
-1.85
-0.60
0.22
0.48
0.33
0.01
-0.28
-0.44
-0.43
-0.23
0.17
0.75
1.35
1.82
1.97
1.75
1.29
0.82
0.51
0.42
0.48
0.59
0.67
0.70
0.71
0.66
0.51
0.16
-0.39
-1.05
-1.60
-1.78
-1.48
-0.72
0.25
1.11
1.57
1.51
1.00
0.24
-0.50
-0.99
-1.19
-1.12
-0.96
-0.85
-0.85
-0.99
-1.23
-1.51
-1.77
-1.89
-1.72
-1.15
-0.17
1.04
2.15
2.75
2.60
1.78
0.67
-0.25
-0.67
-0.56
-0.15
0.24
0.43
0.45
0.43
0.46
0.48
0.36
-0.03
-0.68
-1.40
-1.94
-2.09
-1.83
-1.27
-0.61
-0.00
0.36
0.39
0.04
-0.59
-1.24
-1.54
-1.22
-0.29
0.93
1.93
2.29
1.94
1.14
0.32
-0.17
-0.22
-0.00
0.23
0.35
0.38
0.45
0.62
0.83
0.97
0.95
0.84
0.76
0.78
0.85
0.80
0.47
-0.14
-0.87
-1.49
-1.80
-1.74
-1.41
-0.98
-0.62
-0.42
-0.35
-0.30
-0.14
0.20
0.65
1.06
1.24
1.09
0.70
0.27
0.04
0.13
0.44
0.73
0.78
0.50
0.02
-0.44
-0.67
-0.57
-0.22
0.21
0.58
0.74
0.65
0.32
-0.11
-0.47
-0.56
-0.31
0.18
0.70
1.02
1.03
0.80
0.47
0.19
-0.06
-0.33
-0.67
-1.01
-1.13
-0.83
-0.10
0.83
1.61
1.96
1.78
1.22
0.55
-0.04
-0.47
-0.80
-1.08
-1.31
-1.45
-1.48
-1.46
-1.47
-1.52
-1.55
-1.40
-1.00
-0.39
0.23
0.65
0.79
0.67
0.50
0.40
0.44
0.57
0.73
0.84
0.89
0.85
0.63
0.18
-0.47
-1.17
-1.64
-1.66
-1.18
-0.35
0.50
1.02
1.06
0.68
0.16
-0.19
-0.21
0.07
0.45
0.73
0.77
0.65
0.45
0.30
0.19
0.05
-0.16
-0.48
-0.80
-1.04
-1.21
-1.40
-1.72
-2.19
-2.67
-2.92
-2.69
-1.94
-0.83
0.32
1.26
1.83
2.13
2.29
2.38
2.35
2.09
1.57
0.90
0.32
0.05
0.17
0.53
0.87
0.91
0.59
0.01
-0.58
-0.90
-0.86
-0.48
0.09
0.65
0.98
0.98
0.62
-0.03
-0.78
-1.39
-1.64
-1.43
-0.81
-0.02
0.69
1.06
1.00
0.62
0.10
-0.35
-0.66
-0.85
-1.00
-1.13
-1.16
-0.98
-0.53
0.07
0.61
0.91
0.90
0.70
0.50
0.50
0.73
1.11
1.49
1.74
1.82
1.72
1.47
1.08
0.59
0.01
-0.58
-1.10
-1.50
-1.71
-1.66
-1.35
-0.86
-0.33
0.09
0.34
0.42
0.43
0.37
0.20
-0.19
-0.81
-1.54
-2.15
-2.42
-2.30
-1.93
-1.55
-1.35
-1.31
-1.21
-0.78
0.12
1.34
2.51
3.18
3.02
1.99
0.37
-1.28
-2.38
-2.53
-1.72
-0.28
1.26
2.44
3.03
3.05
2.68
2.17
1.59
0.97
0.33
-0.29
-0.72
-0.80
-0.49
0.09
0.67
1.04
1.06
0.79
0.34
-0.12
-0.50
-0.77
-0.91
-0.92
-0.84
-0.72
-0.62
-0.64
-0.79
-1.07
-1.46
-1.85
-2.18
-2.34
-2.27
-1.93
-1.37
-0.73
-0.14
0.25
0.50
0.70
0.94
1.27
1.56
1.64
1.36
0.75
-0.00
-0.64
-0.92
-0.77
-0.27
0.39
1.02
1.51
1.85
2.11
2.30
2.37
2.19
1.73
1.07
0.48
0.21
0.41
0.95
1.52
1.82
1.69
1.29
0.90
0.76
0.89
1.05
0.94
0.47
-0.21
-0.74
-0.78
-0.26
0.58
1.33
1.64
1.35
0.55
-0.47
-1.44
-2.13
-2.48
-2.50
-2.23
-1.73
-1.07
-0.36
0.27
0.64
0.60
0.16
-0.55
-1.21
-1.49
-1.16
-0.22
1.01
2.06
2.52
2.21
1.30
0.19
-0.73
-1.23
-1.31
-1.18
-1.04
-0.97
-0.93
-0.80
-0.51
-0.16
0.04
-0.12
-0.70
-1.56
-2.37
-2.85
-2.86
-2.49
-1.99
-1.62
-1.53
-1.66
-1.88
-2.04
-2.08
-2.02
-2.00
-2.12
-2.45
-2.91
-3.33
-3.47
-3.20
-2.51
-1.60
-0.76
-0.19
0.08
0.16
0.24
0.41
0.60
0.64
0.38
-0.14
-0.68
-0.97
-0.84
-0.36
0.26
0.72
0.83
0.54
0.01
-0.54
-0.84
-0.73
-0.19
0.66
1.57
2.27
2.58
2.48
2.06
1.47
0.89
0.42
0.12
-0.02
0.05
0.35
0.90
1.65
2.48
3.16
3.50
3.40
2.89
2.16
1.46
1.02
0.93
1.17
1.61
2.12
2.63
3.12
3.55
3.85
3.91
3.70
3.21
2.57
1.93
1.37
0.95
0.62
0.35
0.16
0.13
0.33
0.78
1.36
1.87
2.10
2.02
1.73
1.43
1.29
1.35
1.45
1.38
0.97
0.23
-0.67
-1.46
-1.92
-1.94
-1.56
-0.95
-0.34
0.06
0.07
-0.33
-1.06
-1.88
-2.49
-2.65
-2.27
-1.46
-0.55
0.07
0.05
-0.68
-1.89
-3.08
-3.75
-3.57
-2.60
-1.28
-0.27
-0.03
-0.71
-1.99
-3.33
-4.27
-4.60
-4.45
-4.11
-3.73
-3.27
-2.54
-1.40
0.09
1.57
2.60
2.86
2.35
1.37
0.38
-0.22
-0.24
0.24
0.96
1.60
1.88
1.68
1.07
0.16
-0.83
-1.82
-2.76
-3.70
-4.62
-5.45
-6.06
-6.31
-6.16
-5.67
-4.94
-4.09
-3.19
-2.30
-1.49
-0.89
-0.61
-0.68
-0.94
-1.14
-0.98
-0.34
0.70
1.95
3.07
3.90
4.30
4.29
3.96
3.46
2.94
2.54
2.35
2.32
2.37
2.44
2.51
2.67
2.97
3.36
3.65
3.54
2.84
1.63
0.22
-0.89
-1.34
-1.02
-0.17
0.76
1.32
1.23
0.55
-0.39
-1.16
-1.37
-0.95
-0.06
0.96
1.72
2.07
2.02
1.73
1.41
1.15
0.86
0.41
-0.32
-1.24
-2.11
-2.57
-2.36
-1.44
-0.09
1.24
2.06
2.08
1.35
0.24
-0.78
-1.35
-1.34
-0.90
-0.34
0.07
0.15
-0.06
-0.38
-0.63
-0.61
-0.29
0.27
0.88
1.34
1.53
1.49
1.32
1.15
1.06
1.04
1.02
0.94
0.82
0.72
0.78
1.09
1.68
2.52
3.54
4.60
5.52
6.10
6.13
5.56
4.44
3.02
1.58
0.34
-0.60
-1.28
-1.76
-2.13
-2.43
-2.67
-2.82
-2.94
-3.07
-3.25
-3.50
-3.74
-3.91
-3.95
-3.86
-3.63
-3.27
-2.78
-2.17
-1.43
-0.64
0.13
0.77
1.18
1.32
1.18
0.78
0.25
-0.29
-0.67
-0.78
-0.58
-0.11
0.49
1.03
1.33
1.26
0.74
-0.10
-1.04
-1.82
-2.24
-2.25
-1.96
-1.53
-1.05
-0.46
0.32
1.34
2.43
3.22
3.38
2.74
1.49
0.12
-0.84
-1.07
-0.63
0.09
0.60
0.57
-0.03
-0.94
-1.78
-2.23
-2.17
-1.74
-1.17
-0.72
-0.54
-0.62
-0.87
-1.13
-1.30
-1.32
-1.22
-1.00
-0.67
-0.24
0.22
0.62
0.84
0.84
0.65
0.43
0.32
0.38
0.61
0.89
1.10
1.14
1.00
0.71
0.38
0.14
0.06
0.19
0.39
0.48
0.28
-0.26
-1.00
-1.66
-1.96
-1.74
-1.06
-0.15
0.75
1.41
1.74
1.73
1.52
1.26
1.10
1.13
1.34
1.57
1.68
1.57
1.29
1.03
0.97
1.15
1.38
1.36
0.86
-0.13
-1.34
-2.30
-2.60
-2.10
-1.06
0.02
0.65
0.55
-0.18
-1.13
-1.82
-1.97
-1.56
-0.85
-0.19
0.17
0.25
0.28
0.50
1.05
1.81
2.48
2.71
2.35
1.51
0.48
-0.42
-1.02
-1.35
-1.60
-1.94
-2.37
-2.80
-3.04
-3.01
-2.74
-2.37
-2.01
-1.67
-1.27
-0.73
-0.04
0.63
1.03
0.98
0.52
-0.11
-0.55
-0.51
0.06
0.92
1.74
2.22
2.30
2.06
1.70
1.30
0.82
0.20
-0.56
-1.30
-1.80
-1.88
-1.57
-1.02
-0.45
0.01
0.34
0.57
0.73
0.80
0.74
0.62
0.56
0.74
1.13
1.62
1.90
1.80
1.29
0.56
-0.13
-0.57
-0.74
-0.77
-0.79
-0.91
-1.10
-1.31
-1.46
-1.56
-1.65
-1.78
-1.89
-1.85
-1.49
-0.73
0.35
1.50
2.42
2.85
2.71
2.10
1.29
0.58
0.14
0.04
0.18
0.43
0.65
0.76
0.68
0.37
-0.19
-0.91
-1.63
-2.10
-2.15
-1.81
-1.24
-0.73
-0.48
-0.49
-0.59
-0.52
-0.17
0.41
1.02
1.44
1.51
1.24
0.72
0.10
-0.46
-0.87
-1.06
-1.08
-1.03
-1.01
-0.99
-0.91
-0.65
-0.16
0.43
0.91
1.07
0.77
0.10
-0.71
-1.37
-1.66
-1.47
-0.84
0.03
0.86
1.29
1.12
0.40
-0.51
-1.08
-0.92
-0.03
1.20
2.19
2.49
2.01
1.06
0.17
-0.22
0.04
0.73
1.42
1.74
1.54
0.95
0.28
-0.16
-0.25
-0.03
0.27
0.43
0.31
-0.07
-0.57
-1.01
-1.25
-1.25
-1.08
-0.87
-0.70
-0.63
-0.61
-0.54
-0.35
0.02
0.57
1.23
1.90
2.46
2.75
2.68
2.18
1.32
0.29
-0.64
-1.24
-1.37
-1.06
-0.54
-0.05
0.22
0.27
0.22
0.23
0.41
0.69
0.85
0.72
0.21
-0.55
-1.28
-1.68
-1.61
-1.10
-0.38
0.29
0.71
0.82
0.70
0.46
0.18
-0.12
-0.49
-0.95
-1.52
-2.08
-2.49
-2.55
-2.16
-1.31
-0.17
0.99
1.83
2.05
1.59
0.59
-0.58
-1.46
-1.75
-1.40
-0.65
0.07
0.44
0.38
0.10
-0.06
0.13
0.66
1.27
1.67
1.70
1.41
1.03
0.76
0.74
0.86
0.96
0.83
0.41
-0.20
-0.80
-1.24
-1.42
-1.38
-1.19
-0.94
-0.65
-0.33
-0.02
0.22
0.29
0.17
-0.06
-0.23
-0.27
-0.16
-0.06
-0.11
-0.39
-0.79
-1.15
-1.29
-1.12
-0.71
-0.18
0.32
0.72
0.98
1.07
0.94
0.52
-0.16
-0.99
-1.73
-2.17
-2.18
-1.75
-1.01
-0.15
0.60
1.03
1.03
0.66
0.09
-0.35
-0.43
-0.04
0.68
1.42
1.89
1.92
1.62
1.18
0.83
0.61
0.43
0.20
-0.10
-0.37
-0.49
-0.44
-0.39
-0.52
-0.93
-1.50
-1.96
-2.01
-1.51
-0.58
0.44
1.26
1.66
1.61
1.27
0.79
0.32
-0.03
-0.19
-0.16
0.07
0.45
0.90
1.35
1.69
1.80
1.64
1.20
0.56
-0.08
-0.57
-0.79
-0.76
-0.61
-0.54
-0.67
-0.98
-1.32
-1.48
-1.29
-0.69
0.21
1.18
1.98
2.41
2.34
1.89
1.24
0.64
0.28
0.18
0.22
0.25
0.22
0.24
0.50
1.10
1.92
2.62
2.80
2.31
1.24
-0.03
-1.08
-1.68
-1.86
-1.83
-1.82
-1.94
-2.08
-2.01
-1.59
-0.88
-0.12
0.28
0.05
-0.78
-1.90
-2.80
-3.05
-2.53
-1.44
-0.26
0.55
0.79
0.58
0.24
0.11
0.33
0.80
1.25
1.46
1.32
0.92
0.46
0.10
-0.05
-0.01
0.15
0.34
0.48
0.54
0.53
0.45
0.29
0.06
-0.21
-0.45
-0.61
-0.62
-0.48
-0.27
-0.10
-0.09
-0.27
-0.55
-0.81
-0.89
-0.77
-0.54
-0.32
-0.17
-0.08
-0.02
0.08
0.13
0.02
-0.32
-0.83
-1.39
-1.79
-1.96
-1.92
-1.74
-1.53
-1.33
-1.15
-0.99
-0.87
-0.77
-0.59
-0.19
0.48
1.33
2.08
2.42
2.18
1.44
0.56
-0.08
-0.20
0.19
0.82
1.35
1.49
1.21
0.63
0.02
-0.39
-0.47
-0.21
0.22
0.66
0.93
0.94
0.68
0.22
-0.34
-0.86
-1.20
-1.25
-0.93
-0.28
0.61
1.59
2.45
3.05
3.30
3.21
2.84
2.29
1.66
1.06
0.57
0.25
0.10
0.05
-0.02
-0.22
-0.58
-1.11
-1.69
-2.22
-2.55
-2.59
-2.34
-1.91
-1.44
-1.08
-0.88
-0.79
-0.73
-0.63
-0.50
-0.45
-0.59
-0.91
-1.30
-1.53
-1.43
-1.03
-0.50
-0.13
-0.12
-0.48
-1.04
-1.55
-1.76
-1.60
-1.13
-0.53
0.01
0.39
0.65
0.92
1.38
2.05
2.83
3.46
3.65
3.27
2.40
1.39
0.63
0.40
0.67
1.16
1.48
1.37
0.84
0.14
-0.42
-0.71
-0.80
-0.94
-1.34
-1.93
-2.42
-2.42
-1.74
-0.50
0.85
1.83
2.13
1.72
0.85
-0.16
-1.02
-1.56
-1.73
-1.50
-0.90
-0.05
0.84
1.55
1.88
1.78
1.35
0.78
0.19
-0.38
-0.88
-1.30
-1.51
-1.43
-1.03
-0.43
0.15
0.48
0.47
0.23
-0.03
-0.09
0.10
0.41
0.62
0.60
0.40
0.25
0.37
0.86
1.61
2.31
2.63
2.41
1.72
0.79
-0.07
-0.66
-0.94
-1.02
-1.09
-1.25
-1.53
-1.80
-1.88
-1.66
-1.16
-0.53
0.04
0.40
0.53
0.48
0.42
0.44
0.57
0.76
0.91
0.86
0.54
-0.06
-0.80
-1.47
-1.84
-1.70
-1.03
0.03
1.17
2.08
2.47
2.26
1.52
0.44
-0.69
-1.63
-2.23
-2.46
-2.43
-2.25
-1.98
-1.68
-1.35
-1.05
-0.84
-0.80
-0.93
-1.13
-1.27
-1.19
-0.89
-0.44
-0.01
0.26
0.29
0.09
-0.24
-0.56
-0.74
-0.63
-0.21
0.46
1.18
1.69
1.79
1.41
0.68
-0.12
-0.72
-0.91
-0.62
0.09
1.05
2.04
2.85
3.31
3.33
2.91
2.15
1.23
0.32
-0.41
-0.84
-0.92
-0.70
-0.29
0.08
0.23
0.04
-0.47
-1.05
-1.36
-1.17
-0.46
0.50
1.27
1.49
1.00
0.00
-1.08
-1.81
-1.94
-1.52
-0.83
-0.19
0.19
0.35
0.42
0.54
0.72
0.81
0.63
0.17
-0.45
-0.99
-1.21
-1.05
-0.67
-0.33
-0.23
-0.39
-0.69
-0.93
-0.95
-0.77
-0.45
-0.13
0.13
0.34
0.50
0.62
0.66
0.63
0.56
0.55
0.70
1.00
1.31
1.42
1.18
0.60
-0.09
-0.59
-0.67
-0.31
0.34
1.00
1.42
1.51
1.33
1.02
0.73
0.56
0.51
0.50
0.51
0.53
0.57
0.69
0.89
1.08
1.13
0.94
0.47
-0.17
-0.75
-1.08
-1.03
-0.66
-0.18
0.17
0.25
0.07
-0.23
-0.49
-0.65
-0.78
-1.01
-1.42
-1.90
-2.22
-2.18
-1.72
-1.02
-0.39
-0.09
-0.17
-0.44
-0.65
-0.67
-0.58
-0.61
-0.92
-1.48
-2.02
-2.24
-1.96
-1.21
-0.26
0.60
1.17
1.42
1.43
1.30
1.10
0.82
0.47
0.01
-0.52
-1.05
-1.53
-1.83
-1.88
-1.63
-1.13
-0.46
0.23
0.78
1.04
0.90
0.36
-0.48
-1.32
-1.83
-1.76
-1.10
-0.07
0.95
1.64
1.84
1.61
1.10
0.49
-0.08
-0.50
-0.60
-0.29
0.41
1.26
1.88
1.94
1.40
0.51
-0.30
-0.67
-0.48
0.14
0.92
1.64
2.22
2.65
2.90
2.93
2.65
2.06
1.32
0.68
0.35
0.40
0.71
1.01
1.09
0.88
0.45
0.01
-0.26
-0.30
-0.13
0.11
0.30
0.38
0.33
0.22
0.05
-0.15
-0.42
-0.74
-1.05
-1.26
-1.30
-1.14
-0.83
-0.55
-0.47
-0.75
-1.34
-2.02
-2.47
-2.43
-1.86
-0.94
0.01
0.70
0.95
0.85
0.58
0.33
0.17
0.03
-0.20
-0.58
-1.05
-1.43
-1.55
-1.30
-0.73
0.05
0.88
1.57
1.95
1.89
1.31
0.26
-0.99
-2.08
-2.65
-2.48
-1.66
-0.55
0.40
0.87
0.75
0.17
-0.58
-1.29
-1.75
-1.88
-1.65
-1.09
-0.39
0.26
0.59
0.52
0.13
-0.29
-0.45
-0.14
0.64
1.59
2.36
2.62
2.30
1.59
0.84
0.38
0.34
0.61
0.87
0.87
0.50
-0.08
-0.55
-0.64
-0.30
0.30
0.86
1.16
1.21
1.18
1.28
1.58
1.94
2.14
1.98
1.46
0.73
0.02
-0.53
-0.88
-1.08
-1.17
-1.11
-0.82
-0.31
0.27
0.69
0.70
0.20
-0.66
-1.57
-2.18
-2.27
-1.87
-1.18
-0.53
-0.13
-0.06
-0.17
-0.25
-0.12
0.26
0.76
1.17
1.31
1.10
0.61
0.01
-0.48
-0.73
-0.70
-0.45
-0.15
0.00
-0.09
-0.42
-0.86
-1.20
-1.26
-1.01
-0.53
0.03
0.52
0.89
1.16
1.38
1.56
1.70
1.74
1.62
1.31
0.81
0.16
-0.59
-1.31
-1.86
-2.14
-2.10
-1.80
-1.32
-0.78
-0.27
0.14
0.39
0.36
-0.03
-0.78
-1.74
-2.58
-2.92
-2.51
-1.42
-0.04
1.15
1.69
1.48
0.68
-0.29
-1.06
-1.38
-1.25
-0.78
-0.07
0.80
1.80
2.81
3.60
3.88
3.42
2.20
0.49
-1.23
-2.46
-2.85
-2.35
-1.23
0.08
1.15
1.75
1.85
1.60
1.15
0.69
0.35
0.21
0.29
0.54
0.80
0.87
0.56
-0.14
-1.07
-1.92
-2.38
-2.28
-1.60
-0.52
0.72
1.87
2.67
2.99
2.75
2.06
1.11
0.10
-0.80
-1.49
-1.96
-2.16
-2.03
-1.54
-0.77
0.06
0.61
0.61
-0.02
-1.02
-1.99
-2.52
-2.43
-1.79
-0.88
0.02
0.71
1.11
1.20
1.02
0.62
0.10
-0.39
-0.70
-0.80
-0.72
-0.58
-0.46
-0.33
-0.10
0.30
0.85
1.40
1.74
1.74
1.39
0.78
0.05
-0.67
-1.27
-1.68
-1.80
-1.57
-1.01
-0.27
0.41
0.83
0.83
0.41
-0.24
-0.86
-1.18
-1.05
-0.51
0.26
0.93
1.25
1.11
0.62
0.06
-0.31
-0.34
-0.05
0.42
0.89
1.18
1.15
0.79
0.12
-0.71
-1.44
-1.79
-1.58
-0.85
0.17
1.07
1.48
1.30
0.67
-0.08
-0.62
-0.76
-0.56
-0.18
0.24
0.65
1.10
1.59
2.02
2.15
1.81
1.00
0.04
-0.62
-0.64
0.02
0.97
1.62
1.51
0.60
-0.80
-2.13
-2.95
-3.16
-2.88
-2.41
-1.91
-1.47
-1.06
-0.74
-0.57
-0.63
-0.89
-1.16
-1.21
-0.86
-0.16
0.71
1.43
1.80
1.71
1.24
0.64
0.19
0.14
0.55
1.32
2.13
2.70
2.83
2.52
1.95
1.31
0.72
0.14
-0.50
-1.18
-1.75
-1.98
-1.69
-0.94
0.01
0.80
1.12
0.89
0.24
-0.61
-1.41
-2.05
-2.48
-2.69
-2.65
-2.29
-1.61
-0.68
0.30
1.08
1.48
1.48
1.15
0.69
0.27
-0.01
-0.10
-0.00
0.26
0.67
1.18
1.70
2.13
2.35
2.30
1.97
1.43
0.83
0.24
-0.26
-0.67
-1.03
-1.37
-1.70
-1.98
-2.16
-2.17
-2.00
-1.65
-1.21
-0.75
-0.35
-0.10
0.01
-0.02
-0.10
-0.15
-0.11
0.06
0.38
0.82
1.31
1.71
1.83
1.52
0.76
-0.22
-1.06
-1.40
-1.06
-0.17
0.86
1.61
1.81
1.49
0.87
0.25
-0.22
-0.48
-0.63
-0.73
-0.78
-0.79
-0.74
-0.61
-0.47
-0.41
-0.49
-0.73
-1.07
-1.41
-1.58
-1.46
-1.03
-0.40
0.23
0.64
0.65
0.30
-0.28
-0.83
-1.15
-1.07
-0.59
0.20
1.13
1.94
2.44
2.49
2.13
1.54
0.99
0.72
0.84
1.22
1.60
1.74
1.43
0.70
-0.24
-1.07
-1.47
-1.29
-0.54
0.53
1.63
2.47
2.93
3.01
2.74
2.19
1.43
0.49
-0.51
-1.41
-2.07
-2.38
-2.36
-2.11
-1.74
-1.34
-0.97
-0.65
-0.43
-0.34
-0.38
-0.49
-0.63
-0.76
-0.92
-1.13
-1.38
-1.58
-1.62
-1.48
-1.22
-0.97
-0.81
-0.72
-0.64
-0.47
-0.15
0.28
0.76
1.21
1.55
1.72
1.65
1.34
0.81
0.19
-0.42
-0.88
-1.17
-1.21
-0.99
-0.43
0.41
1.36
2.11
2.31
1.86
0.87
-0.29
-1.20
-1.62
-1.49
-0.96
-0.26
0.42
0.95
1.26
1.30
1.07
0.69
0.32
0.16
0.24
0.45
0.57
0.43
0.03
-0.46
-0.80
-0.87
-0.71
-0.53
-0.50
-0.68
-0.95
-1.08
-0.91
-0.47
0.02
0.26
0.04
-0.63
-1.54
-2.36
-2.79
-2.72
-2.16
-1.28
-0.29
0.57
1.13
1.34
1.29
1.17
1.11
1.18
1.31
1.35
1.14
0.69
0.09
-0.46
-0.74
-0.66
-0.19
0.55
1.35
2.01
2.31
2.14
1.48
0.48
-0.56
-1.33
-1.61
-1.37
-0.75
-0.02
0.57
0.79
0.57
-0.03
-0.88
-1.73
-2.32
-2.42
-1.94
-0.96
0.21
1.19
1.62
1.42
0.78
0.07
-0.33
-0.28
0.13
0.61
0.87
0.82
0.60
0.47
0.63
1.07
1.59
1.91
1.86
1.45
0.85
0.31
0.01
-0.04
0.09
0.24
0.31
0.25
0.16
0.08
0.06
0.07
0.01
-0.19
-0.52
-0.87
-1.08
-1.02
-0.71
-0.32
-0.06
-0.05
-0.22
-0.32
-0.09
0.51
1.31
1.95
2.06
1.48
0.35
-0.94
-1.96
-2.40
-2.20
-1.60
-0.91
-0.47
-0.43
-0.78
-1.30
-1.80
-2.10
-2.13
-1.86
-1.37
-0.75
-0.13
0.40
0.74
0.84
0.65
0.24
-0.30
-0.83
-1.24
-1.40
-1.29
-0.93
-0.37
0.35
1.18
2.04
2.84
3.44
3.67
3.44
2.74
1.74
0.70
-0.14
-0.63
-0.77
-0.70
-0.56
-0.43
-0.32
-0.17
0.03
0.25
0.41
0.50
0.53
0.55
0.56
0.55
0.39
0.11
-0.25
-0.53
-0.62
-0.49
-0.21
0.13
0.50
0.93
1.50
2.13
2.67
2.90
2.64
1.92
0.94
-0.09
-0.98
-1.66
-2.16
-2.52
-2.76
-2.83
-2.73
-2.51
-2.32
-2.27
-2.45
-2.88
-3.39
-3.69
-3.57
-2.94
-1.92
-0.78
0.16
0.69
0.79
0.64
0.46
0.41
0.50
0.61
0.67
0.63
0.56
0.62
0.86
1.28
1.74
2.09
2.23
2.19
2.10
2.12
2.36
2.76
3.08
3.07
2.56
1.59
0.37
-0.71
-1.29
-1.16
-0.43
0.60
1.48
1.86
1.63
0.93
0.07
-0.68
-1.18
-1.46
-1.66
-1.87
-2.10
-2.21
-2.11
-1.74
-1.14
-0.41
0.31
0.90
1.27
1.32
1.04
0.46
-0.29
-1.06
-1.67
-2.00
-2.00
-1.71
-1.22
-0.70
-0.30
-0.09
-0.07
-0.11
-0.03
0.26
0.65
0.94
0.93
0.56
-0.00
-0.51
-0.79
-0.78
-0.60
-0.42
-0.29
-0.20
-0.02
0.24
0.49
0.53
0.22
-0.37
-1.00
-1.38
-1.31
-0.86
-0.29
0.06
-0.00
-0.36
-0.72
-0.72
-0.22
0.62
1.42
1.76
1.48
0.75
-0.04
-0.53
-0.59
-0.30
0.11
0.52
0.94
1.38
1.79
1.98
1.76
1.06
0.09
-0.81
-1.35
-1.45
-1.21
-0.89
-0.63
-0.43
-0.20
0.07
0.32
0.41
0.27
-0.06
-0.39
-0.57
-0.50
-0.26
-0.00
0.14
0.12
0.00
-0.07
0.04
0.32
0.67
0.84
0.66
0.04
-0.84
-1.67
-2.09
-1.88
-1.12
-0.07
0.90
1.54
1.78
1.66
1.29
0.78
0.20
-0.33
-0.67
-0.68
-0.34
0.22
0.76
1.05
0.99
0.68
0.33
0.14
0.19
0.47
0.88
1.30
1.70
1.98
2.09
2.01
1.74
1.41
1.08
0.80
0.49
0.07
-0.48
-1.06
-1.50
-1.63
-1.43
-0.99
-0.52
-0.17
-0.01
0.02
-0.02
-0.06
-0.13
-0.25
-0.41
-0.53
-0.51
-0.29
0.07
0.42
0.54
0.29
-0.38
-1.38
-2.45
-3.25
-3.53
-3.11
-2.10
-0.79
0.41
1.12
1.20
0.78
0.19
-0.23
-0.34
-0.24
-0.17
-0.31
-0.67
-1.05
-1.17
-0.93
-0.42
0.04
0.19
-0.08
-0.58
-1.02
-1.10
-0.75
-0.12
0.47
0.82
0.85
0.69
0.60
0.71
1.09
1.60
2.13
2.54
2.78
2.81
2.62
2.23
1.72
1.20
0.78
0.53
0.39
0.24
-0.02
-0.37
-0.67
-0.71
-0.43
0.08
0.52
0.65
0.34
-0.25
-0.85
-1.21
-1.28
-1.18
-1.15
-1.37
-1.78
-2.16
-2.26
-1.98
-1.44
-0.88
-0.58
-0.58
-0.74
-0.81
-0.56
0.06
0.93
1.83
2.53
2.90
2.93
2.64
2.09
1.33
0.47
-0.35
-0.99
-1.34
-1.38
-1.18
-0.88
-0.65
-0.62
-0.87
-1.31
-1.83
-2.17
-2.14
-1.70
-1.06
-0.46
-0.14
-0.10
-0.15
-0.02
0.44
1.16
1.92
2.47
2.64
2.42
1.87
1.11
0.26
-0.55
-1.11
-1.26
-0.94
-0.31
0.34
0.70
0.68
0.40
0.09
0.00
0.15
0.43
0.58
0.49
0.18
-0.16
-0.32
-0.16
0.25
0.70
0.93
0.78
0.29
-0.34
-0.88
-1.17
-1.15
-0.90
-0.52
-0.06
0.43
0.87
1.11
1.00
0.52
-0.22
-0.90
-1.24
-1.06
-0.41
0.41
1.10
1.41
1.25
0.72
-0.03
-0.86
-1.63
-2.21
-2.55
-2.52
-2.09
-1.31
-0.29
0.79
1.74
2.42
2.69
2.49
1.82
0.82
-0.26
-1.04
-1.25
-0.87
-0.16
0.42
0.48
-0.04
-0.88
-1.61
-1.90
-1.73
-1.34
-1.05
-1.05
-1.29
-1.50
-1.47
-1.14
-0.62
-0.16
0.06
0.01
-0.19
-0.32
-0.18
0.23
0.75
1.09
1.03
0.58
-0.05
-0.46
-0.38
0.25
1.19
2.08
2.58
2.59
2.22
1.72
1.36
1.26
1.36
1.49
1.45
1.10
0.51
-0.11
-0.54
-0.64
-0.52
-0.46
-0.77
-1.47
-2.29
-2.68
-2.23
-0.90
0.85
2.27
2.70
1.96
0.42
-1.24
-2.35
-2.59
-2.03
-1.04
0.00
0.82
1.29
1.40
1.20
0.75
0.17
-0.31
-0.50
-0.32
0.10
0.54
0.74
0.65
0.38
0.12
-0.08
-0.23
-0.44
-0.72
-0.92
-0.83
-0.36
0.34
0.94
1.08
0.69
-0.01
-0.61
-0.79
-0.59
-0.30
-0.29
-0.71
-1.40
-2.06
-2.41
-2.35
-2.01
-1.57
-1.14
-0.74
-0.34
0.06
0.38
0.57
0.61
0.64
0.76
1.08
1.49
1.75
1.66
1.18
0.47
-0.20
-0.60
-0.67
-0.49
-0.12
0.40
1.10
1.96
2.77
3.18
2.89
1.86
0.43
-0.77
-1.19
-0.65
0.45
1.44
1.67
0.97
-0.35
-1.63
-2.30
-2.16
-1.38
-0.33
0.64
1.35
1.80
2.00
1.90
1.41
0.51
-0.65
-1.74
-2.41
-2.49
-2.04
-1.32
-0.63
-0.19
-0.04
-0.12
-0.27
-0.39
-0.41
-0.31
-0.14
0.02
0.14
0.17
0.06
-0.19
-0.57
-1.05
-1.52
-1.86
-1.92
-1.60
-0.99
-0.26
0.36
0.73
0.86
0.90
0.97
1.12
1.29
1.39
1.40
1.38
1.35
1.25
0.88
0.09
-1.04
-2.13
-2.61
-2.06
-0.49
1.57
3.34
4.14
3.74
2.41
0.74
-0.71
-1.64
-2.02
-2.04
-1.82
-1.41
-0.80
-0.04
0.77
1.39
1.69
1.64
1.35
1.04
0.88
0.90
1.05
1.20
1.26
1.20
1.02
0.71
0.27
-0.29
-0.93
-1.52
-1.90
-1.98
-1.73
-1.25
-0.73
-0.37
-0.28
-0.50
-0.94
-1.49
-2.03
-2.43
-2.59
-2.44
-1.95
-1.20
-0.35
0.40
0.92
1.16
1.20
1.17
1.20
1.27
1.35
1.33
1.17
0.84
0.40
-0.10
-0.63
-1.22
-1.88
-2.56
-3.14
-3.44
-3.30
-2.63
-1.57
-0.38
0.61
1.12
1.09
0.71
0.32
0.22
0.53
1.15
1.90
2.60
3.17
3.63
3.97
4.12
3.90
3.19
2.01
0.58
-0.72
-1.56
-1.85
-1.73
-1.49
-1.44
-1.69
-2.16
-2.56
-2.62
-2.21
-1.36
-0.34
0.53
1.01
1.01
0.66
0.16
-0.29
-0.57
-0.68
-0.71
-0.71
-0.67
-0.46
0.01
0.78
1.75
2.68
3.33
3.49
3.11
2.27
1.17
0.06
-0.84
-1.39
-1.59
-1.54
-1.38
-1.21
-1.07
-0.94
-0.76
-0.54
-0.33
-0.21
-0.20
-0.25
-0.24
-0.12
0.08
0.21
0.20
0.05
-0.08
-0.02
0.32
0.80
1.14
1.10
0.62
-0.10
-0.76
-1.11
-1.14
-1.06
-1.10
-1.39
-1.78
-1.96
-1.66
-0.83
0.25
1.18
1.60
1.40
0.75
-0.02
-0.63
-0.91
-0.89
-0.68
-0.41
-0.15
0.06
0.19
0.18
-0.01
-0.36
-0.75
-1.05
-1.15
-0.98
-0.65
-0.30
-0.08
-0.03
-0.09
-0.15
-0.12
-0.02
0.08
0.14
0.23
0.46
0.95
1.65
2.32
2.69
2.57
2.01
1.25
0.52
-0.05
-0.55
-1.09
-1.70
-2.17
-2.22
-1.69
-0.66
0.52
1.45
1.83
1.68
1.20
0.66
0.19
-0.12
-0.26
-0.21
0.09
0.63
1.21
1.51
1.23
0.33
-0.95
-2.10
-2.68
-2.46
-1.62
-0.59
0.16
0.36
0.11
-0.29
-0.48
-0.27
0.25
0.81
1.08
0.91
0.33
-0.47
-1.22
-1.71
-1.87
-1.66
-1.11
-0.28
0.74
1.74
2.44
2.59
2.09
1.12
0.08
-0.56
-0.51
0.19
1.19
2.01
2.30
1.98
1.20
0.27
-0.60
-1.28
-1.75
-1.96
-1.80
-1.15
-0.00
1.47
2.91
3.90
4.13
3.53
2.25
0.69
-0.72
-1.65
-1.94
-1.73
-1.23
-0.75
-0.44
-0.35
-0.41
-0.54
-0.72
-0.96
-1.24
-1.42
-1.36
-0.96
-0.30
0.39
0.80
0.76
0.27
-0.47
-1.23
-1.78
-2.07
-2.11
-1.90
-1.43
-0.69
0.21
1.07
1.62
1.68
1.27
0.64
0.11
-0.06
0.15
0.55
0.84
0.76
0.30
-0.37
-0.96
-1.25
-1.14
-0.78
-0.35
0.04
0.37
0.70
1.07
1.38
1.41
1.00
0.17
-0.84
-1.67
-2.02
-1.81
-1.25
-0.66
-0.29
-0.19
-0.23
-0.22
-0.04
0.21
0.34
0.18
-0.24
-0.77
-1.15
-1.16
-0.76
-0.10
0.57
1.02
1.16
1.06
0.91
0.89
1.09
1.42
1.71
1.79
1.51
0.92
0.19
-0.49
-0.91
-0.93
-0.58
0.07
0.85
1.61
2.17
2.46
2.43
2.15
1.68
1.10
0.45
-0.26
-1.06
-1.87
-2.55
-2.88
-2.71
-2.01
-0.99
0.07
0.84
1.12
0.85
0.22
-0.54
-1.16
-1.52
-1.61
-1.54
-1.44
-1.29
-1.00
-0.49
0.17
0.81
1.14
1.03
0.55
-0.06
-0.53
-0.81
-1.06
-1.51
-2.19
-2.79
-2.80
-1.84
0.03
2.20
3.88
4.49
3.94
2.67
1.29
0.27
-0.33
-0.69
-1.06
-1.51
-1.88
-1.91
-1.48
-0.69
0.13
0.65
0.66
0.22
-0.39
-0.79
-0.72
-0.15
0.69
1.40
1.57
1.02
-0.09
-1.30
-2.03
-1.91
-0.94
0.48
1.77
2.48
2.41
1.77
0.91
0.23
-0.07
0.02
0.35
0.73
1.03
1.19
1.20
1.08
0.83
0.51
0.14
-0.29
-0.78
-1.26
-1.59
-1.57
-1.13
-0.38
0.37
0.80
0.76
0.40
0.09
0.13
0.60
1.22
1.56
1.30
0.43
-0.70
-1.64
-2.02
-1.81
-1.21
-0.55
-0.06
0.15
0.10
-0.10
-0.39
-0.69
-0.92
-1.04
-0.99
-0.81
-0.55
-0.28
-0.01
0.27
0.56
0.86
1.10
1.24
1.21
1.01
0.67
0.30
-0.03
-0.16
-0.03
0.28
0.59
0.64
0.26
-0.50
-1.34
-1.81
-1.56
-0.60
0.73
1.85
2.30
1.92
0.93
-0.24
-1.14
-1.50
-1.31
-0.74
-0.06
0.47
0.75
0.76
0.60
0.39
0.21
0.09
-0.01
-0.15
-0.36
-0.63
-0.87
-1.00
-1.00
-0.92
-0.87
-0.95
-1.13
-1.31
-1.35
-1.16
-0.83
-0.61
-0.71
-1.15
-1.69
-1.90
-1.46
-0.36
0.98
1.97
2.14
1.46
0.36
-0.50
-0.61
0.12
1.27
2.20
2.38
1.65
0.35
-0.97
-1.77
-1.84
-1.34
-0.66
-0.22
-0.18
-0.45
-0.75
-0.78
-0.46
0.09
0.63
1.00
1.15
1.17
1.18
1.19
1.18
1.06
0.83
0.58
0.47
0.60
0.94
1.37
1.63
1.56
1.10
0.40
-0.27
-0.66
-0.60
-0.17
0.36
0.65
0.52
-0.01
-0.69
-1.20
-1.39
-1.26
-1.01
-0.85
-0.92
-1.16
-1.47
-1.71
-1.82
-1.82
-1.73
-1.52
-1.10
-0.43
0.46
1.36
2.05
2.31
2.06
1.41
0.53
-0.26
-0.74
-0.68
-0.07
0.99
2.18
3.12
3.49
3.20
2.42
1.52
0.88
0.68
0.82
1.02
1.01
0.75
0.34
-0.01
-0.18
-0.19
-0.16
-0.16
-0.22
-0.28
-0.29
-0.31
-0.43
-0.75
-1.24
-1.70
-1.92
-1.75
-1.25
-0.63
-0.21
-0.16
-0.47
-0.95
-1.38
-1.56
-1.44
-1.12
-0.74
-0.41
-0.16
0.05
0.27
0.54
0.81
1.04
1.16
1.09
0.77
0.21
-0.54
-1.32
-1.94
-2.15
-1.82
-0.95
0.22
1.38
2.24
2.65
2.66
2.39
1.98
1.46
0.77
-0.10
-1.08
-1.99
-2.59
-2.69
-2.29
-1.57
-0.81
-0.27
-0.06
-0.07
-0.11
0.06
0.55
1.25
1.91
2.14
1.75
0.77
-0.49
-1.56
-2.09
-1.99
-1.47
-0.85
-0.40
-0.20
-0.16
-0.17
-0.18
-0.25
-0.50
-0.91
-1.36
-1.64
-1.66
-1.47
-1.21
-1.01
-0.84
-0.65
-0.34
0.05
0.41
0.68
0.89
1.19
1.71
2.43
3.17
3.65
3.66
3.19
2.38
1.49
0.74
0.24
0.03
0.10
0.37
0.68
0.81
0.63
0.11
-0.53
-0.97
-0.94
-0.45
0.25
0.74
0.69
0.08
-0.81
-1.53
-1.78
-1.50
-0.89
-0.31
-0.02
-0.10
-0.46
-0.87
-1.19
-1.37
-1.44
-1.45
-1.40
-1.24
-0.95
-0.58
-0.24
-0.01
0.06
0.02
-0.05
-0.12
-0.21
-0.33
-0.43
-0.42
-0.22
0.10
0.37
0.36
-0.04
-0.65
-1.09
-0.95
-0.05
1.41
2.89
3.83
3.88
3.09
1.84
0.66
0.00
0.05
0.70
1.59
2.28
2.41
1.83
0.69
-0.67
-1.80
-2.38
-2.34
-1.87
-1.33
-1.03
-1.10
-1.44
-1.80
-1.93
-1.68
-1.08
-0.30
0.46
1.00
1.25
1.22
0.95
0.53
0.07
-0.32
-0.51
-0.39
0.04
0.68
1.30
1.63
1.51
0.98
0.25
-0.42
-0.86
-1.09
-1.28
-1.59
-2.03
-2.41
-2.44
-1.94
-1.01
-0.02
0.55
0.46
-0.17
-0.85
-1.08
-0.59
0.42
1.45
1.96
1.73
0.87
-0.21
-1.12
-1.57
-1.56
-1.19
-0.66
-0.11
0.37
0.68
0.82
0.82
0.74
0.63
0.53
0.37
0.16
-0.05
-0.17
-0.10
0.10
0.26
0.21
-0.07
-0.42
-0.59
-0.43
-0.04
0.31
0.37
0.08
-0.32
-0.50
-0.25
0.35
1.03
1.51
1.69
1.69
1.73
1.90
2.16
2.27
2.07
1.45
0.46
-0.72
-1.86
-2.70
-2.95
-2.44
-1.22
0.40
1.84
2.53
2.19
0.96
-0.65
-2.00
-2.62
-2.44
-1.69
-0.78
-0.03
0.42
0.65
0.77
0.90
1.06
1.19
1.21
1.05
0.71
0.30
0.02
0.01
0.33
0.85
1.37
1.67
1.62
1.30
0.84
0.36
-0.09
-0.58
-1.17
-1.83
-2.40
-2.65
-2.40
-1.64
-0.55
0.53
1.25
1.43
1.06
0.34
-0.40
-0.87
-0.94
-0.65
-0.20
0.19
0.36
0.33
0.24
0.22
0.36
0.62
0.87
0.93
0.71
0.24
-0.34
-0.84
-1.13
-1.19
-1.15
-1.11
-1.14
-1.17
-1.09
-0.79
-0.29
0.24
0.60
0.65
0.39
-0.03
-0.38
-0.56
-0.55
-0.42
-0.26
-0.02
0.35
0.87
1.41
1.70
1.52
0.81
-0.15
-0.94
-1.14
-0.57
0.53
1.69
2.32
2.09
1.07
-0.33
-1.52
-2.06
-1.81
-1.03
-0.17
0.28
0.12
-0.52
-1.24
-1.63
-1.47
-0.84
-0.06
0.55
0.76
0.57
0.13
-0.35
-0.71
-0.86
-0.90
-0.92
-0.92
-0.84
-0.51
0.21
1.26
2.37
3.17
3.31
2.66
1.42
-0.01
-1.10
-1.52
-1.21
-0.39
0.53
1.17
1.32
0.99
0.41
-0.15
-0.45
-0.47
-0.31
-0.13
-0.10
-0.23
-0.42
-0.58
-0.64
-0.58
-0.48
-0.42
-0.48
-0.63
-0.82
-0.93
-0.87
-0.65
-0.39
-0.25
-0.32
-0.54
-0.75
-0.79
-0.58
-0.21
0.15
0.32
0.27
0.05
-0.18
-0.29
-0.23
-0.02
0.25
0.50
0.69
0.84
0.99
1.12
1.14
0.92
0.42
-0.25
-0.84
-1.06
-0.77
-0.02
0.92
1.73
2.16
2.15
1.72
1.05
0.25
-0.50
-0.98
-1.06
-0.73
-0.18
0.28
0.36
0.03
-0.54
-1.09
-1.40
-1.46
-1.42
-1.43
-1.50
-1.48
-1.18
-0.58
0.15
0.64
0.55
-0.21
-1.41
-2.56
-3.19
-2.99
-1.99
-0.57
0.79
1.71
2.11
2.17
2.18
2.36
2.66
2.88
2.79
2.30
1.57
0.89
0.52
0.57
0.93
1.37
1.69
1.76
1.58
1.15
0.57
-0.14
-0.85
-1.43
-1.78
-1.81
-1.56
-1.15
-0.76
-0.51
-0.49
-0.65
-0.88
-1.02
-0.96
-0.66
-0.17
0.40
0.93
1.30
1.44
1.32
0.97
0.54
0.15
-0.12
-0.24
-0.34
-0.49
-0.77
-1.15
-1.51
-1.74
-1.79
-1.72
-1.59
-1.53
-1.53
-1.55
-1.51
-1.39
-1.19
-1.03
-0.91
-0.83
-0.72
-0.52
-0.22
0.11
0.36
0.42
0.26
-0.03
-0.29
-0.42
-0.37
-0.21
-0.11
-0.17
-0.32
-0.40
-0.18
0.47
1.48
2.56
3.37
3.62
3.25
2.47
1.61
0.97
0.69
0.71
0.82
0.86
0.76
0.64
0.64
0.85
1.25
1.65
1.81
1.61
1.08
0.42
-0.12
-0.43
-0.59
-0.85
-1.40
-2.17
-2.86
-3.08
-2.63
-1.65
-0.56
0.21
0.51
0.49
0.49
0.76
1.28
1.74
1.82
1.38
0.56
-0.30
-0.88
-1.06
-0.97
-0.85
-0.85
-0.98
-1.08
-1.01
-0.69
-0.22
0.22
0.43
0.35
0.02
-0.47
-1.00
-1.50
-1.93
-2.24
-2.26
-1.86
-0.98
0.24
1.49
2.40
2.74
2.50
1.80
0.91
0.01
-0.76
-1.30
-1.58
-1.52
-1.08
-0.27
0.81
1.92
2.77
3.08
2.74
1.84
0.73
-0.26
-0.85
-1.00
-0.87
-0.72
-0.74
-0.94
-1.22
-1.41
-1.47
-1.43
-1.40
-1.42
-1.47
-1.45
-1.29
-0.98
-0.58
-0.20
0.02
-0.01
-0.29
-0.72
-1.06
-1.07
-0.58
0.32
1.36
2.11
2.30
1.90
1.18
0.58
0.46
0.91
1.71
2.39
2.50
1.84
0.57
-0.80
-1.71
-1.82
-1.21
-0.27
0.48
0.68
0.31
-0.34
-0.91
-1.13
-0.91
-0.34
0.43
1.27
2.07
2.70
3.01
2.87
2.26
1.32
0.30
-0.53
-0.97
-0.96
-0.58
-0.02
0.50
0.77
0.67
0.26
-0.29
-0.75
-0.95
-0.87
-0.62
-0.37
-0.26
-0.33
-0.58
-0.89
-1.14
-1.21
-0.99
-0.47
0.29
1.04
1.51
1.45
0.82
-0.20
-1.26
-1.98
-2.17
-1.83
-1.13
-0.32
0.38
0.80
0.83
0.45
-0.25
-1.07
-1.66
-1.80
-1.39
-0.65
0.07
0.46
0.49
0.38
0.48
0.99
1.82
2.68
3.22
3.26
2.80
2.04
1.15
0.31
-0.37
-0.80
-0.92
-0.81
-0.63
-0.63
-0.97
-1.65
-2.43
-2.98
-3.02
-2.47
-1.52
-0.44
0.45
0.94
0.98
0.67
0.13
-0.50
-1.04
-1.41
-1.50
-1.30
-0.88
-0.35
0.11
0.41
0.54
0.63
0.82
1.19
1.64
1.95
1.92
1.46
0.71
-0.05
-0.56
-0.73
-0.60
-0.41
-0.36
-0.54
-0.88
-1.16
-1.21
-0.94
-0.43
0.17
0.64
0.83
0.68
0.26
-0.25
-0.64
-0.77
-0.57
-0.18
0.22
0.41
0.32
-0.01
-0.42
-0.74
-0.83
-0.66
-0.28
0.26
0.89
1.43
1.72
1.59
1.01
0.18
-0.55
-0.88
-0.68
-0.14
0.41
0.72
0.74
0.70
0.88
1.38
2.05
2.59
2.73
2.42
1.82
1.17
0.60
0.16
-0.26
-0.66
-0.93
-0.95
-0.67
-0.20
0.18
0.29
0.06
-0.37
-0.79
-1.03
-1.10
-1.15
-1.31
-1.62
-1.92
-2.04
-1.86
-1.49
-1.19
-1.19
-1.57
-2.11
-2.46
-2.29
-1.48
-0.23
1.02
1.82
1.91
1.37
0.59
0.07
0.09
0.69
1.56
2.29
2.55
2.22
1.47
0.56
-0.20
-0.69
-0.86
-0.81
-0.71
-0.68
-0.83
-1.14
-1.50
-1.70
-1.60
-1.12
-0.40
0.30
0.78
0.99
0.99
0.99
1.10
1.22
1.21
0.86
0.21
-0.53
-0.99
-0.89
-0.19
0.81
1.64
1.83
1.23
0.04
-1.23
-1.98
-1.86
-0.87
0.63
2.09
3.04
3.24
2.76
1.86
0.90
0.15
-0.21
-0.17
0.18
0.64
0.98
1.02
0.73
0.17
-0.51
-1.14
-1.59
-1.82
-1.85
-1.76
-1.64
-1.55
-1.50
-1.44
-1.25
-0.87
-0.32
0.26
0.67
0.71
0.35
-0.26
-0.90
-1.37
-1.54
-1.40
-0.97
-0.27
0.62
1.58
2.40
2.84
2.77
2.21
1.32
0.34
-0.51
-1.12
-1.48
-1.54
-1.31
-0.75
0.06
0.93
1.59
1.79
1.42
0.60
-0.34
-1.01
-1.12
-0.63
0.23
1.04
1.42
1.17
0.37
-0.60
-1.38
-1.66
-1.39
-0.75
-0.09
0.30
0.21
-0.30
-1.06
-1.84
-2.43
-2.71
-2.58
-2.01
-1.09
-0.01
0.91
1.36
1.19
0.58
-0.06
-0.29
0.03
0.71
1.28
1.32
0.70
-0.28
-1.15
-1.46
-1.08
-0.15
0.93
1.78
2.20
2.18
1.89
1.52
1.23
1.00
0.78
0.46
0.00
-0.55
-1.06
-1.39
-1.47
-1.31
-1.02
-0.69
-0.35
0.01
0.40
0.84
1.31
1.77
2.17
2.43
2.42
1.99
1.06
-0.28
-1.72
-2.84
-3.24
-2.80
-1.72
-0.41
0.63
1.10
1.00
0.58
0.11
-0.22
-0.45
-0.79
-1.41
-2.27
-3.03
-3.24
-2.56
-1.04
0.83
2.31
2.84
2.27
0.98
-0.35
-1.21
-1.41
-1.14
-0.70
-0.27
0.19
0.84
1.70
2.57
3.07
2.93
2.16
1.06
0.09
-0.39
-0.35
-0.02
0.23
0.12
-0.38
-1.04
-1.56
-1.69
-1.38
-0.77
-0.09
0.49
0.88
1.08
1.11
0.98
0.71
0.34
0.02
-0.11
-0.01
0.23
0.45
0.48
0.30
-0.00
-0.29
-0.47
-0.56
-0.66
-0.85
-1.17
-1.52
-1.77
-1.82
-1.68
-1.49
-1.49
-1.83
-2.47
-3.19
-3.64
-3.54
-2.84
-1.75
-0.65
0.09
0.37
0.38
0.40
0.67
1.14
1.56
1.68
1.44
1.05
0.90
1.25
2.10
3.08
3.72
3.64
2.84
1.67
0.64
0.14
0.23
0.68
1.15
1.41
1.37
1.17
0.97
0.87
0.90
1.02
1.16
1.23
1.15
0.83
0.30
-0.31
-0.77
-0.96
-0.88
-0.70
-0.70
-1.02
-1.60
-2.15
-2.37
-2.13
-1.50
-0.80
-0.31
-0.17
-0.28
-0.42
-0.38
-0.17
0.08
0.14
-0.13
-0.70
-1.32
-1.69
-1.58
-0.98
-0.09
0.70
1.07
0.86
0.20
-0.56
-1.04
-1.02
-0.54
0.15
0.69
0.85
0.62
0.16
-0.27
-0.48
-0.38
0.00
0.56
1.16
1.69
2.07
2.26
2.25
2.05
1.69
1.16
0.51
-0.16
-0.73
-0.96
-0.75
-0.14
0.66
1.31
1.48
1.11
0.33
-0.51
-1.06
-1.10
-0.67
0.02
0.66
1.02
1.03
0.78
0.44
0.14
-0.11
-0.35
-0.56
-0.69
-0.70
-0.57
-0.47
-0.57
-0.94
-1.45
-1.82
-1.79
-1.33
-0.69
-0.28
-0.38
-0.95
-1.67
-2.11
-1.99
-1.40
-0.64
-0.05
0.24
0.34
0.46
0.71
1.01
1.15
0.92
0.36
-0.29
-0.69
-0.64
-0.18
0.38
0.76
0.79
0.62
0.55
0.78
1.29
1.80
1.96
1.59
0.84
-0.01
-0.61
-0.80
-0.69
-0.48
-0.41
-0.59
-0.99
-1.49
-1.93
-2.20
-2.24
-2.03
-1.57
-0.90
-0.06
0.90
1.87
2.75
3.31
3.35
2.76
1.66
0.40
-0.58
-0.96
-0.69
0.02
0.79
1.33
1.52
1.40
1.13
0.84
0.57
0.26
-0.13
-0.62
-1.07
-1.26
-1.01
-0.31
0.65
1.56
2.07
2.02
1.48
0.70
-0.07
-0.67
-1.08
-1.44
-1.77
-2.00
-1.95
-1.54
-0.84
-0.10
0.39
0.49
0.22
-0.26
-0.74
-1.11
-1.33
-1.41
-1.37
-1.22
-0.90
-0.47
-0.01
0.31
0.36
0.12
-0.27
-0.57
-0.61
-0.34
0.05
0.36
0.39
0.15
-0.19
-0.44
-0.50
-0.46
-0.46
-0.63
-0.88
-1.03
-0.88
-0.39
0.29
0.94
1.38
1.58
1.64
1.69
1.82
1.98
2.06
1.95
1.57
0.92
0.09
-0.73
-1.35
-1.63
-1.50
-1.01
-0.29
0.49
1.10
1.38
1.23
0.69
-0.12
-0.95
-1.56
-1.80
-1.65
-1.27
-0.86
-0.59
-0.51
-0.53
-0.56
-0.51
-0.36
-0.09
0.30
0.79
1.33
1.80
2.05
1.91
1.35
0.45
-0.54
-1.37
-1.80
-1.75
-1.27
-0.52
0.29
0.97
1.41
1.60
1.55
1.32
0.97
0.54
0.10
-0.23
-0.36
-0.24
0.06
0.35
0.40
0.07
-0.65
-1.55
-2.30
-2.62
-2.41
-1.69
-0.70
0.31
1.12
1.55
1.55
1.14
0.47
-0.22
-0.70
-0.80
-0.50
0.09
0.70
1.12
1.18
0.86
0.26
-0.45
-1.07
-1.45
-1.52
-1.31
-0.95
-0.54
-0.18
0.07
0.24
0.34
0.34
0.21
-0.08
-0.44
-0.71
-0.74
-0.52
-0.21
-0.02
-0.10
-0.38
-0.56
-0.36
0.33
1.37
2.36
2.90
2.81
2.15
1.14
0.05
-0.97
-1.82
-2.37
-2.48
-1.99
-0.93
0.44
1.62
2.13
1.73
0.56
-0.87
-1.96
-2.30
-1.81
-0.75
0.42
1.32
1.71
1.59
1.11
0.50
0.02
-0.19
-0.10
0.26
0.74
1.22
1.55
1.74
1.74
1.53
1.06
0.26
-0.83
-2.00
-2.92
-3.31
-2.97
-2.02
-0.77
0.43
1.28
1.72
1.87
1.93
2.01
2.15
2.25
2.27
2.20
2.09
1.94
1.65
1.13
0.29
-0.80
-1.88
-2.65
-2.89
-2.58
-1.88
-1.01
-0.16
0.57
1.11
1.35
1.18
0.56
-0.39
-1.34
-1.91
-1.85
-1.14
-0.08
0.93
1.51
1.51
1.00
0.14
-0.84
-1.82
-2.69
-3.36
-3.75
-3.76
-3.29
-2.33
-1.03
0.33
1.37
1.79
1.50
0.64
-0.36
-1.05
-1.16
-0.74
-0.12
0.27
0.18
-0.31
-0.88
-1.15
-0.89
-0.15
0.86
1.88
2.67
3.13
3.25
3.02
2.48
1.69
0.78
-0.10
-0.79
-1.21
-1.37
-1.29
-1.03
-0.60
-0.04
0.58
1.15
1.47
1.45
1.06
0.44
-0.17
-0.52
-0.49
-0.18
0.18
0.32
0.14
-0.27
-0.68
-0.83
-0.66
-0.26
0.11
0.24
0.11
-0.13
-0.27
-0.11
0.30
0.78
1.10
1.10
0.77
0.24
-0.33
-0.82
-1.15
-1.28
-1.20
-0.95
-0.60
-0.20
0.19
0.53
0.81
1.01
1.10
1.05
0.82
0.42
-0.15
-0.84
-1.53
-2.05
-2.20
-1.82
-0.92
0.29
1.44
2.17
2.28
1.84
1.10
0.38
-0.16
-0.51
-0.79
-1.12
-1.49
-1.80
-1.87
-1.59
-1.02
-0.34
0.15
0.27
0.02
-0.46
-0.94
-1.25
-1.32
-1.12
-0.65
0.18
1.36
2.77
4.06
4.83
4.88
4.25
3.31
2.51
2.15
2.27
2.67
3.13
3.52
3.83
4.07
4.13
3.86
3.18
2.18
1.20
0.67
0.80
1.54
2.49
3.16
3.17
2.44
1.20
-0.19
-1.39
-2.24
-2.70
-2.87
-2.84
-2.71
-2.55
-2.40
-2.29
-2.21
-2.18
-2.25
-2.46
-2.75
-2.95
-2.71
-1.76
-0.08
1.94
3.63
4.37
3.92
2.61
1.23
0.53
0.84
1.90
3.00
3.45
2.93
1.66
0.19
-0.93
-1.44
-1.43
-1.25
-1.24
-1.58
-2.27
-3.15
-4.01
-4.70
-5.12
-5.22
-5.04
-4.61
-3.95
-3.03
-1.79
-0.16
1.83
3.98
6.02
7.69
8.97
10.07
11.33
13.10
15.59
18.76
22.30
25.73
28.62
30.80
32.48
34.08
36.20
39.39
43.92
49.45
55.15
60.04
63.51
65.50
66.54
67.63
69.91
74.22
80.53
88.00
95.12
100.06
100.71
95.12
82.32
62.98
39.81
16.43
-3.79
-19.12
-30.32
-38.91
-47.49
-58.20
-71.42
-85.09
-96.35
-102.70
-102.91
-96.83
-85.07
-68.24
-46.76
-23.53
0.47
23.80
44.41
60.03
70.54
75.33
74.36
68.38
58.58
46.65
33.64
20.20
6.73
-6.32
-18.58
-29.55
-38.75
-45.93
-50.97
-54.39
-56.95
-59.52
-62.77
-67.30
-73.30
-80.68
-89.28
-98.86
-109.50
-121.26
-134.31
-148.80
-164.89
-182.64
-202.01
-222.93
-245.17
-268.44
-292.20
-315.94
-339.00
-360.62
-379.77
-395.31
-406.09
-410.88
-409.69
-401.53
-385.39
-360.58
-327.10
-285.72
-237.98
-185.96
-132.09
-78.71
-27.57
20.05
63.46
102.53
137.54
168.89
197.10
222.96
247.65
272.91
300.47
331.55
366.22
402.98
438.87
469.84
491.55
500.20
493.57
471.00
433.21
381.81
318.70
245.75
165.26
80.27
-4.93
-84.69
-152.77
-202.94
-229.76
-229.01
-198.41
-138.65
-54.41
44.36
144.43
232.18
297.42
336.17
351.14
349.35
338.45
323.54
306.19
285.65
260.99
232.65
202.45
172.48
143.78
115.96
87.87
58.74
29.08
0.51
-24.69
-44.81
-59.37
-69.28
-76.39
-82.63
-89.23
-96.31
-103.03
-108.10
-110.58
-110.26
-107.78
-104.33
-101.07
-98.70
-97.22
-96.09
-94.55
-92.07
-88.54
-84.30
-79.96
-76.03
-72.75
-70.02
-67.44
-64.63
-61.37
-57.76
-54.09
-50.77
-48.03
-45.78
-43.76
-41.55
-38.93
-35.95
-33.01
-30.51
-29.01
-28.64
-28.99
-29.29
-28.74
-26.99
-24.29
-21.59
-20.03
-20.48
-22.93
-26.43
-29.42
-30.43
-28.89
-25.48
-22.10
-20.63
-22.34
-26.90
-32.44
-36.83
-38.64
-37.92
-35.76
-33.15
-30.23
-26.73
-22.81
-19.67
-18.74
-19.95
-20.63
-16.04
-1.95
22.58
53.59
83.85
106.36
117.78
119.85
117.89
117.55
121.55
128.25
132.54
128.56
112.52
84.39
48.52
11.72
-19.20
-40.00
-50.52
-53.75
-53.74
-53.29
-52.81
-50.95
-46.48
-39.63
-32.47
-27.62
-26.72
-29.39
-33.53
-36.49
-36.23
-32.47
-26.57
-20.71
-16.90
-15.99
-17.48
-19.87
-21.46
-21.10
-18.70
-15.12
-11.67
-9.44
-8.85
-9.52
-10.59
-11.17
-10.77
-9.52
-8.00
-6.92
-6.71
-7.34
-8.36
-9.16
-9.31
-8.80
-8.07
-7.73
-8.29
-9.84
-12.00
-14.06
-15.40
-15.69
-15.21
-14.65
-14.82
-16.20
-18.77
-21.90
-24.71
-26.61
-27.30
-27.03
-26.30
-25.63
-25.44
-26.31
-29.09
-34.33
-41.35
-47.54
-48.52
-39.90
-19.49
10.85
45.42
76.68
98.44
108.44
108.49
103.08
96.70
91.99
89.37
88.41
89.03
91.74
96.43
101.04
101.39
92.86
72.98
43.21
9.16
-21.68
-43.20
-53.07
-53.13
-47.78
-41.40
-36.51
-33.40
-31.11
-28.73
-26.21
-24.03
-22.68
-22.08
-21.60
-20.46
-18.08
-14.53
-10.45
-6.75
-4.09
-2.73
-2.36
-2.41
-2.19
-1.32
0.16
1.91
3.51
4.77
5.81
7.06
8.99
11.89
15.76
20.24
24.74
28.85
32.28
34.95
36.81
37.55
36.65
33.57
27.84
19.46
9.02
-2.42
-13.72
-23.69
-32.20
-39.58
-46.48
-53.37
-60.26
-66.55
-71.21
-73.70
-73.49
-71.09
-67.59
-64.23
-62.18
-62.43
-65.62
-71.68
-79.00
-84.20
-82.91
-71.38
-48.57
-17.41
15.89
44.23
62.66
70.34
70.38
67.61
66.00
66.91
69.12
70.42
69.50
66.65
63.52
61.91
62.59
65.26
69.21
73.75
78.71
83.51
86.41
84.46
74.50
55.02
27.67
-2.81
-30.39
-50.18
-60.46
-62.91
-61.04
-58.09
-55.62
-53.45
-50.75
-47.31
-43.93
-42.02
-42.45
-45.01
-48.45
-51.12
-51.67
-49.89
-46.87
-44.09
-42.97
-43.94
-46.28
-48.75
-50.44
-51.69
-53.81
-57.77
-62.41
-64.35
-58.92
-42.85
-16.61
15.46
46.76
71.69
87.68
95.23
96.04
90.87
78.84
58.66
31.29
0.64
-27.43
-47.88
-59.31
-64.62
-68.77
-74.43
-81.89
-86.69
-83.15
-68.22
-43.81
-16.16
7.14
20.61
23.48
18.57
10.77
3.85
-0.93
-4.63
-9.02
-15.02
-22.11
-28.70
-33.36
-35.65
-36.36
-36.86
-38.47
-41.46
-45.01
-47.66
-47.78
-44.59
-37.85
-28.42
-17.59
-6.61
3.72
13.19
21.84
29.79
36.91
42.93
47.55
50.62
52.42
53.62
55.16
57.91
62.48
69.00
77.27
85.83
94.38
102.40
109.43
114.90
118.18
118.86
116.61
111.42
104.73
96.18
86.03
74.47
61.33
46.07
28.20
7.66
-15.41
-38.68
-60.02
-77.42
-89.93
-98.04
-103.42
-107.96
-113.00
-118.30
-121.91
-121.40
-114.46
-100.23
-80.23
-57.81
-36.68
-19.22
-5.50
6.86
20.10
36.48
56.08
76.74
95.26
109.04
115.86
113.93
102.03
77.66
41.48
-1.36
-41.29
-67.75
-74.53
-64.12
-46.92
-35.89
-39.16
-54.42
-70.41
-73.59
-56.24
-20.89
20.83
55.81
76.53
83.85
84.79
86.67
92.39
99.54
104.11
101.38
91.00
76.20
61.32
49.79
42.26
36.93
30.59
20.16
5.39
-12.16
-29.80
-44.70
-54.88
-59.94
-60.86
-59.32
-56.84
-54.46
-52.43
-50.48
-47.66
-43.11
-36.00
-26.04
-13.33
1.79
19.11
38.69
60.39
82.85
103.33
117.29
119.88
108.44
84.20
52.25
19.77
-8.01
-28.34
-41.86
-51.37
-60.09
-69.89
-81.10
-93.37
-105.88
-118.83
-131.86
-144.53
-154.48
-159.54
-158.33
-150.78
-138.31
-123.38
-108.88
-97.11
-89.23
-83.84
-78.40
-68.19
-48.77
-18.42
20.17
60.53
95.04
118.16
128.67
129.43
125.68
121.94
120.15
119.59
118.48
115.68
112.09
108.33
105.01
101.93
97.92
91.47
81.39
67.73
51.73
34.69
18.97
5.80
-4.60
-12.86
-19.86
-26.27
-32.19
-37.22
-40.75
-42.33
-42.09
-40.57
-38.64
-37.05
-36.28
-36.29
-36.70
-36.99
-36.78
-36.08
-35.17
-34.47
-34.22
-34.41
-34.75
-34.87
-34.52
-33.73
-32.92
-32.57
-33.01
-34.15
-35.39
-35.92
-34.94
-32.04
-27.26
-21.11
-14.28
-7.12
0.52
9.31
19.99
33.09
48.37
64.69
80.16
92.66
100.52
103.06
100.68
94.76
87.46
81.27
78.42
79.80
83.89
86.67
82.64
67.15
38.93
1.76
-36.65
-67.64
-84.75
-87.53
-80.79
-71.43
-64.96
-63.63
-65.97
-69.69
-73.63
-77.60
-81.08
-81.90
-77.13
-65.62
-50.02
-36.04
-29.34
-31.74
-39.20
-43.78
-38.17
-20.29
5.24
29.52
44.09
46.15
39.13
29.65
23.16
21.45
22.77
24.49
24.63
23.76
24.15
28.12
36.79
49.56
64.71
80.49
96.27
112.39
127.89
141.85
150.85
150.00
135.51
107.59
71.07
34.14
4.57
-13.14
-18.93
-16.46
-10.57
-5.17
-1.49
0.13
-0.25
-3.40
-10.22
-21.01
-34.99
-49.63
-63.12
-73.82
-81.40
-86.15
-89.34
-92.29
-95.67
-99.33
-102.52
-104.33
-103.89
-102.37
-99.10
-94.22
-88.04
-80.60
-71.53
-60.33
-46.76
-29.75
-11.11
7.50
24.38
38.04
47.08
51.41
51.08
46.38
37.92
26.30
12.57
-2.03
-16.20
-28.65
-38.14
-43.85
-45.32
-42.50
-34.64
-23.25
-9.89
4.04
17.30
28.99
38.40
45.17
49.34
51.17
51.09
49.82
47.96
45.77
43.26
40.03
35.70
30.01
22.91
14.49
5.32
-4.16
-13.89
-23.91
-34.59
-46.31
-59.01
-72.23
-85.07
-96.37
-105.43
-112.34
-117.66
-122.60
-128.49
-136.22
-145.90
-156.88
-168.13
-179.16
-190.57
-203.07
-217.67
-235.38
-256.99
-283.01
-313.15
-345.55
-376.52
-400.83
-411.90
-404.82
-378.54
-336.60
-285.69
-232.83
-181.69
-131.53
-85.34
-43.61
-5.98
27.95
58.30
85.41
110.36
136.51
166.12
198.88
233.39
267.72
300.49
331.44
361.24
390.96
424.85
464.11
505.09
541.61
567.25
577.61
571.06
548.69
513.90
477.43
447.29
425.81
411.29
401.13
393.99
389.56
387.73
388.09
397.18
417.15
443.51
468.05
483.84
487.96
480.76
464.26
393.75
257.27
78.48
-100.55
-248.83
-357.11
-429.90
-476.01
-503.70
-519.38
-520.03
-505.02
-478.91
-449.06
-421.83
-399.79
-382.18
-366.92
-351.94
-329.94
-297.37
-255.45
-209.22
-164.32
-124.31
-90.33
-62.58
-40.88
-21.19
-1.08
13.80
22.40
24.28
19.95
10.99
-1.07
-15.29
-29.51
-42.50
-54.79
-67.14
-78.97
-92.07
-106.53
-121.64
-136.67
-150.28
-161.03
-168.34
-171.68
-171.40
-168.37
-163.34
-157.08
-150.87
-146.26
-143.94
-144.26
-146.63
-150.66
-156.09
-162.41
-168.13
-171.64
-175.94
-180.81
-184.21
-182.57
-172.33
-150.90
-117.15
-69.82
-10.32
57.41
129.04
200.55
269.32
333.56
392.09
444.11
491.92
535.58
571.86
596.23
604.61
595.57
570.87
535.27
494.95
459.73
434.51
417.38
402.12
382.29
354.82
320.94
285.12
226.19
141.23
42.85
-50.18
-125.72
-181.55
-220.28
-244.92
-257.63
-260.61
-252.38
-234.15
-210.73
-188.54
-172.74
-166.04
-168.59
-178.31
-191.24
-199.25
-196.59
-182.58
-161.39
-139.33
-122.32
-113.71
-112.96
-117.05
-119.83
-116.92
-107.74
-95.03
-82.64
-73.79
-70.85
-74.73
-85.24
-100.41
-117.62
-133.75
-146.16
-150.53
-143.38
-123.61
-93.44
-58.03
-23.61
4.50
22.87
30.72
30.13
24.68
18.33
14.31
14.28
18.28
25.73
35.35
45.87
56.35
65.80
73.07
77.00
76.61
68.54
52.78
31.78
9.04
-12.38
-30.69
-45.91
-58.34
-67.35
-72.09
-71.80
-67.06
-60.29
-54.80
-52.23
-53.09
-55.50
-55.92
-50.36
-35.24
-8.83
27.57
70.09
113.45
152.08
181.09
196.80
196.93
181.69
153.90
117.63
77.35
36.71
-2.45
-40.22
-77.68
-115.40
-151.55
-177.76
-185.06
-170.51
-140.64
-106.91
-78.24
-57.48
-42.82
-30.83
-19.42
-9.33
-2.45
0.73
2.17
5.18
11.95
22.00
33.01
42.69
49.64
54.30
58.22
63.11
67.48
69.87
68.61
62.96
53.69
42.29
30.27
18.94
9.73
4.26
3.92
8.61
16.75
25.50
31.12
30.09
20.47
3.07
-18.15
-37.53
-49.90
-52.95
-47.62
-38.13
-30.36
-29.27
-36.26
-48.09
-59.22
-64.42
-61.44
-51.75
-39.18
-27.07
-16.03
-3.75
12.86
34.29
57.46
77.05
88.62
91.11
87.31
81.77
74.56
65.79
52.84
32.88
5.89
-23.88
-49.67
-65.68
-71.18
-67.51
-57.07
-42.86
-27.35
-12.60
-0.47
7.47
10.07
6.64
-2.71
-17.50
-37.06
-60.02
-84.37
-106.05
-118.99
-117.16
-97.25
-60.20
-11.22
41.87
91.26
129.72
153.18
160.93
154.21
134.93
106.18
73.04
42.69
23.11
18.37
29.37
54.14
87.70
122.31
149.65
163.19
159.04
135.53
89.34
19.77
-68.39
-164.93
-256.87
-331.50
-379.40
-396.98
-369.52
-299.03
-206.72
-119.26
-51.05
-1.82
35.00
65.02
90.28
110.22
121.26
122.31
116.31
108.73
104.10
104.20
108.68
116.38
126.52
137.09
146.75
154.72
159.78
158.97
149.08
129.53
103.82
76.77
53.45
37.36
29.63
29.33
33.94
40.99
49.42
58.12
66.39
74.39
81.70
87.82
93.36
99.46
107.08
116.97
126.63
132.90
135.62
133.98
126.43
112.64
92.70
66.30
37.50
5.81
-29.70
-64.68
-96.11
-123.34
-145.17
-160.41
-168.16
-167.90
-163.81
-161.04
-157.47
-151.87
-145.33
-138.08
-130.39
-122.76
-95.04
-38.49
9.37
33.06
41.20
39.18
32.39
24.78
18.79
15.82
12.95
2.51
-14.80
-36.46
-60.03
-82.29
-102.11
-120.37
-138.94
-162.41
-201.15
-257.03
-327.14
-405.51
-484.55
-559.16
-626.97
-687.47
-696.80
-633.27
-504.63
-345.82
-193.19
-65.79
32.45
105.58
159.88
200.38
223.72
229.18
220.28
204.09
188.37
177.49
173.07
175.05
182.37
188.17
187.88
181.68
171.24
162.08
156.74
155.58
157.67
161.74
162.55
156.54
144.75
131.07
119.41
111.93
109.97
113.85
123.27
134.40
143.72
151.35
158.56
167.77
177.86
187.19
194.46
199.06
198.52
191.40
179.45
165.75
150.84
135.31
119.82
104.18
87.56
65.69
33.88
-9.03
-58.56
-113.77
-172.49
-231.67
-288.50
-324.42
-327.64
-324.97
-330.66
-336.77
-340.26
-337.75
-326.11
-304.07
-271.54
-233.19
-179.27
-106.08
-20.70
60.68
125.22
167.97
190.01
194.11
183.36
158.82
122.17
74.72
15.78
-54.98
-132.16
-213.17
-284.51
-336.85
-365.02
-367.36
-344.81
-300.65
-239.27
-167.80
-96.67
-35.01
9.69
35.17
44.85
45.22
42.23
40.24
41.70
47.38
58.82
76.54
99.74
126.47
154.12
179.89
201.90
219.75
229.57
233.21
233.02
230.70
226.81
220.95
212.10
199.90
184.80
168.43
153.71
142.59
135.73
132.43
130.84
128.31
123.21
114.89
104.43
94.18
86.11
81.56
81.34
87.22
97.43
109.91
119.33
121.99
114.33
94.85
65.69
32.72
3.04
-18.39
-30.04
-34.47
-35.90
-38.17
-42.94
-50.03
-57.71
-64.94
-72.09
-79.90
-88.89
-98.45
-107.26
-112.40
-113.42
-110.32
-104.11
-96.61
-89.59
-84.39
-81.33
-80.01
-79.45
-78.61
-76.47
-72.73
-68.00
-63.36
-60.05
-58.90
-60.14
-63.15
-66.87
-69.82
-71.13
-70.75
-69.47
-68.53
-68.98
-71.60
-76.84
-85.00
-96.24
-108.89
-120.03
-125.44
-121.08
-105.07
-79.29
-49.22
-22.06
-3.54
4.11
2.45
-4.64
-13.24
-21.00
-27.57
-33.36
-38.27
-41.03
-39.84
-33.42
-21.80
-6.34
11.16
28.74
45.25
60.44
74.60
88.05
100.63
111.65
119.02
122.33
121.45
116.93
109.95
101.94
94.16
87.31
81.49
76.74
72.24
67.40
62.09
56.53
51.17
46.37
42.35
39.01
36.10
33.38
30.63
27.80
24.95
22.25
19.85
17.85
16.26
15.03
14.09
13.33
12.69
12.11
11.57
11.10
10.74
10.55
10.57
10.80
11.18
11.65
12.13
12.61
13.10
13.71
14.53
15.62
16.90
18.14
19.06
19.34
18.75
17.23
14.95
12.20
9.27
6.55
3.71
0.46
-3.41
-7.96
-12.86
-17.53
-21.23
-23.44
-24.13
-23.82
-23.31
-23.33
-24.15
-25.24
-25.46
-23.53
-18.58
-10.59
-0.60
9.70
18.56
24.81
28.41
30.33
32.05
35.15
40.96
50.08
61.99
74.71
84.88
88.44
82.11
64.69
38.38
8.50
-18.31
-36.62
