1542115578.00
64.000000
-0.00
-0.00
-0.00
-0.00
-0.00
-0.00
-0.00
-0.00
-0.00
-0.00
0.00
0.01
0.01
-0.00
-0.03
-0.05
-0.05
0.00
0.13
0.36
0.66
1.01
1.37
1.72
2.06
2.40
2.79
3.24
3.80
4.42
5.06
5.66
6.20
6.68
7.15
7.68
8.31
9.14
10.09
11.04
11.88
12.56
13.14
13.76
14.65
15.96
17.91
20.32
22.90
25.38
27.58
29.57
31.68
34.32
37.81
42.54
48.15
54.10
59.83
64.97
69.58
74.14
79.34
85.71
93.76
103.00
112.62
121.73
129.77
136.75
143.30
150.75
157.77
166.64
177.95
191.79
206.97
220.57
228.25
225.36
208.53
176.87
132.76
80.05
23.07
-34.94
-92.44
-149.16
-205.23
-260.37
-313.74
-363.87
-409.83
-450.89
-486.47
-515.69
-537.16
-549.12
-549.82
-538.18
-513.96
-478.37
-433.50
-382.00
-326.49
-269.22
-211.93
-155.86
-102.05
-51.37
-4.79
36.81
72.78
102.83
127.11
146.14
160.60
171.22
178.62
183.20
185.24
184.98
182.69
178.72
173.48
167.39
160.78
153.91
146.93
139.90
132.87
125.89
119.02
112.33
105.89
99.75
93.95
88.51
83.43
78.73
74.41
70.48
66.94
63.80
61.06
58.71
56.77
55.23
54.08
53.31
52.88
52.70
52.68
52.66
52.47
51.89
50.71
48.72
45.78
41.80
36.76
30.67
23.65
15.89
7.60
-0.93
-9.46
-17.71
-25.47
-32.54
-38.77
-44.05
-48.29
-51.43
-53.44
-54.26
-53.89
-52.31
-49.55
-45.64
-40.64
-34.70
-27.96
-20.63
-12.94
-5.11
2.63
10.12
17.21
23.83
29.87
35.26
39.92
43.79
46.85
49.13
50.78
52.02
53.18
54.40
55.80
57.45
59.32
61.39
63.65
66.15
69.00
72.35
76.03
79.82
83.31
86.04
87.59
87.77
86.69
84.80
82.80
81.05
79.91
79.06
77.86
75.56
71.55
65.52
57.46
49.71
43.50
39.29
35.97
31.73
24.74
13.92
-0.49
-16.91
-32.92
-46.39
-55.85
-62.17
-67.25
-73.28
-81.54
-91.82
-102.48
-111.46
-117.61
-121.33
-126.34
-137.54
-159.85
-197.01
-250.98
-321.69
-406.82
-501.44
-587.53
-646.56
-662.84
-629.40
-551.21
-443.22
-324.39
-211.05
-112.76
-31.93
32.04
80.97
116.03
137.76
147.39
147.77
143.08
137.49
133.80
131.53
128.39
121.60
109.24
91.30
69.60
46.92
25.85
7.81
-7.94
-23.24
-40.02
-59.48
-81.42
-104.17
-125.24
-142.01
-152.33
-155.28
-151.73
-141.79
-125.49
-102.76
-73.66
-38.74
0.67
42.45
83.72
121.40
152.85
175.99
189.67
193.72
188.75
175.94
156.71
132.64
105.22
75.91
45.88
16.11
-12.67
-39.93
-65.31
-88.57
-109.52
-128.02
-143.84
-156.86
-166.95
-174.05
-178.19
-179.50
-178.18
-174.45
-168.48
-160.30
-150.55
-139.65
-127.85
-115.41
-102.53
-89.43
-76.31
-63.30
-50.39
-37.45
-24.16
-10.21
4.59
20.27
36.68
53.60
70.82
88.30
106.09
124.37
143.23
162.54
181.88
200.70
218.42
234.60
249.04
261.72
272.72
282.20
290.46
298.12
305.95
314.50
323.50
331.55
336.26
335.12
326.63
310.89
289.41
264.13
236.24
205.87
173.06
138.84
106.26
80.09
65.10
63.85
75.12
93.92
113.18
126.40
129.31
120.64
101.92
76.63
49.60
26.66
14.25
18.40
43.35
88.96
149.66
215.51
275.20
319.96
346.48
357.56
356.97
349.98
340.05
327.50
310.22
285.48
251.71
209.15
159.34
104.15
45.64
-14.47
-74.39
-131.79
-183.90
-227.99
-262.21
-286.19
-301.12
-308.97
-312.07
-312.32
-310.69
-307.19
-301.26
-292.41
-280.68
-266.85
-251.97
-237.23
-223.48
-210.97
-199.42
-188.19
-176.72
-164.79
-152.59
-140.52
-129.07
-118.60
-109.20
-100.72
-92.85
-85.32
-77.97
-70.80
-63.90
-57.41
-51.45
-46.05
-41.19
-36.79
-32.78
-29.10
-25.73
-22.63
-19.83
-17.31
-15.06
-13.08
-11.34
-9.82
-8.50
-7.36
-6.31
-5.38
-4.55
-3.81
-3.13
-2.52
-1.95
-1.41
-0.90
-0.40
0.07
0.52
0.96
1.41
1.86
2.32
2.78
3.25
3.72
4.17
4.60
5.02
5.42
5.83
6.28
6.81
7.45
8.28
9.26
10.43
11.68
12.84
13.64
13.66
12.53
9.87
5.43
-0.94
-9.03
-18.32
-28.09
-37.43
-45.37
-51.07
-53.88
-53.17
-49.20
-42.44
-33.63
-23.69
-13.59
-4.17
3.96
10.46
15.26
18.50
20.52
21.71
22.42
22.87
23.21
23.57
24.01
24.54
25.18
25.95
26.94
28.10
29.38
30.67
31.97
33.29
34.73
36.33
38.21
40.42
42.71
44.63
45.65
45.35
43.55
40.33
35.93
30.86
25.48
19.88
13.88
7.27
0.05
-7.41
-14.38
-20.09
-23.82
-25.53
-26.07
-26.87
-29.54
-35.26
-44.15
-54.56
-65.23
-74.56
-81.51
-86.03
-88.83
-90.96
-93.55
-97.39
-102.96
-110.23
-117.76
-122.63
-120.82
-108.77
-85.37
-53.38
-18.81
11.21
31.27
40.29
40.65
36.58
31.63
27.13
22.32
15.95
7.85
-0.35
-5.85
-6.50
-1.94
6.25
15.21
22.21
26.11
27.45
28.28
31.08
37.35
47.05
58.82
70.66
80.51
86.62
87.64
82.89
72.38
57.13
38.96
20.52
4.81
-5.80
-10.63
-11.21
-10.69
-12.32
-17.53
-24.53
-28.91
-26.18
-14.90
1.37
15.36
20.17
13.91
1.23
-8.86
-8.97
2.04
18.22
30.61
33.40
27.56
19.41
15.19
15.88
16.40
9.97
-6.03
-26.75
-42.26
-43.87
-29.96
-7.25
13.47
24.10
23.64
17.42
11.80
9.10
6.47
-1.05
-15.42
-33.20
-47.34
-52.00
-45.29
-31.41
-17.78
-10.20
-9.36
-11.11
-9.99
-3.21
7.70
18.48
25.04
25.75
21.82
15.77
9.90
5.75
4.41
6.50
11.58
17.47
20.86
19.28
12.74
4.12
-2.47
-4.35
-1.89
1.77
2.83
-0.69
-7.63
-14.64
-18.37
-17.42
-12.91
-7.39
-3.21
-1.22
-0.65
-0.04
1.52
3.80
5.61
5.74
3.86
0.87
-1.75
-2.94
-2.79
-2.47
-3.18
-5.12
-7.20
-7.82
-6.17
-3.12
-0.72
-0.86
-3.70
-7.27
-8.61
-5.78
0.65
7.71
11.72
10.42
4.19
-4.26
-11.66
-15.92
-16.97
-16.12
-14.73
-13.13
-10.66
-6.63
-1.29
3.82
6.66
6.02
2.40
-2.02
-4.61
-3.90
-0.60
2.63
2.74
-1.81
-9.86
-17.91
-21.80
-18.98
-10.07
1.52
11.38
16.43
16.01
11.57
5.31
-0.74
-4.80
-4.88
0.81
12.67
28.39
42.68
49.01
42.88
25.16
2.69
-14.75
-19.16
-8.24
14.21
40.56
62.89
75.41
75.61
63.94
42.67
14.96
-15.21
-43.39
-64.44
-73.50
-70.12
-58.64
-44.53
-30.79
-17.44
-3.43
11.30
25.05
35.59
41.24
42.12
40.32
38.48
38.11
39.06
40.45
39.74
34.64
24.07
8.42
-10.55
-30.82
-50.85
-69.19
-83.94
-92.80
-93.53
-85.00
-68.07
-45.74
-22.34
-1.70
15.00
28.09
39.33
49.96
58.91
62.79
57.74
41.88
17.23
-10.60
-32.28
-39.66
-31.73
-14.81
2.27
13.56
17.92
17.60
16.31
15.70
15.17
12.91
7.68
-0.24
-9.21
-16.17
-19.25
-18.21
-14.83
-10.41
-6.30
-2.58
1.60
6.72
12.41
16.89
20.13
22.04
22.95
23.39
24.56
28.55
36.08
45.62
53.53
56.37
52.02
41.13
26.19
10.09
-5.42
-20.18
-34.12
-45.42
-49.65
-41.77
-19.48
13.74
49.45
77.27
88.57
79.76
53.22
16.06
-23.46
-59.69
-91.24
-119.15
-144.44
-166.28
-181.41
-185.28
-173.83
-146.32
-107.85
-68.71
-40.08
-29.26
-37.60
-60.41
-88.87
-111.76
-118.54
-103.25
-65.85
-10.53
55.99
125.61
190.33
236.65
250.69
232.15
194.23
151.01
109.91
73.30
42.04
17.04
-0.96
-11.07
-13.04
-9.02
-3.47
-0.29
-0.97
-4.81
-9.95
-14.61
-16.95
-15.63
-11.20
-6.09
-2.70
-2.07
-3.77
-6.70
-9.74
-11.60
-11.24
-8.81
-5.68
-3.31
-2.37
-2.74
-3.89
-5.23
-6.08
-5.85
-4.53
-2.76
-1.24
-0.35
-0.09
-0.27
-0.67
-0.97
-0.91
-0.42
0.32
1.07
1.71
2.20
2.57
2.85
3.06
3.25
3.40
3.54
3.66
3.78
3.91
4.03
4.17
4.19
4.19
4.19
4.19
4.20
4.21
4.23
4.25
4.28
4.31
4.38
4.45
4.53
4.62
4.72
4.82
4.93
5.06
5.18
5.33
5.50
5.68
5.87
6.07
6.27
6.48
6.70
6.90
7.11
7.30
7.48
7.62
7.73
7.81
7.86
7.89
7.89
7.88
7.88
7.88
7.89
7.92
7.95
8.01
8.06
8.12
8.17
8.21
8.22
8.19
8.12
7.98
7.76
7.44
7.02
6.48
5.80
4.96
3.95
2.73
1.30
-0.39
-2.33
-4.54
-7.04
-9.85
-12.98
-16.46
-20.35
-24.66
-29.43
-34.68
-40.40
-46.62
-53.35
-60.60
-68.39
-76.79
-85.85
-95.58
-106.00
-117.12
-128.96
-141.50
-154.64
-168.18
-181.80
-194.95
-206.78
-216.20
-221.93
-222.60
-217.26
-204.87
-184.78
-156.98
-122.17
-81.78
-37.82
7.26
50.87
90.54
124.22
150.40
168.30
177.92
179.95
175.64
166.48
153.97
139.44
124.02
108.59
93.92
80.70
69.58
60.98
55.07
51.63
50.11
49.75
49.84
49.94
49.97
50.17
50.94
52.52
54.93
57.94
61.32
65.00
69.29
74.77
82.20
92.26
105.37
121.67
140.76
161.43
181.46
197.67
206.55
205.20
192.33
168.75
137.10
101.16
64.84
31.71
4.72
-13.89
-22.89
-22.64
-15.71
-6.80
-1.69
-5.70
-21.32
-47.31
-79.00
-109.90
-133.71
-145.98
-144.93
-131.41
-108.48
-80.78
-53.90
-33.28
-22.92
-23.93
-33.97
-47.89
-59.72
-65.25
-63.95
-59.09
-55.67
-57.41
-64.10
-71.49
-73.29
-64.86
-46.13
-22.14
-0.81
10.84
9.79
-2.15
-19.91
-37.96
-52.52
-62.04
-66.33
-65.15
-57.44
-41.67
-17.20
14.13
47.42
75.98
93.98
99.55
96.07
90.98
91.96
102.52
119.48
133.78
135.15
117.89
84.82
46.40
15.80
2.39
7.61
25.45
46.53
63.33
73.04
76.74
76.64
73.20
64.72
49.86
30.96
15.58
14.23
35.06
78.62
135.87
190.98
227.67
235.87
215.63
176.27
131.75
94.39
70.31
58.39
52.70
46.66
36.61
22.93
8.57
-3.66
-13.13
-21.78
-32.48
-46.99
-64.43
-81.34
-93.46
-97.96
-95.09
-88.75
-85.52
-92.70
-115.72
-155.78
-208.53
-264.63
-312.25
-340.55
-343.12
-319.70
-275.97
-221.63
-167.58
-123.17
-94.51
-83.77
-89.23
-106.12
-127.63
-146.11
-154.20
-146.44
-121.02
-80.78
-32.69
14.39
52.76
78.54
92.09
96.45
94.76
88.22
76.09
57.69
34.38
10.04
-10.30
-23.06
-27.94
-27.63
-25.86
-24.71
-23.14
-17.94
-6.14
12.45
34.16
52.70
62.53
62.17
55.43
49.64
51.76
64.64
85.55
107.75
124.09
130.37
126.73
116.48
103.72
91.21
79.73
68.73
57.54
46.25
35.86
27.79
23.24
22.61
25.07
28.71
31.04
29.59
22.58
9.11
-10.62
-35.32
-62.66
-89.49
-112.43
-128.70
-136.83
-137.04
-130.96
-120.97
-109.39
-97.97
-87.86
-79.87
-74.49
-71.81
-71.38
-72.20
-72.94
-72.17
-68.53
-60.79
-48.01
-30.07
-8.33
14.18
33.31
45.26
48.21
43.21
33.69
23.91
17.03
14.01
13.75
14.40
14.65
14.37
14.29
15.14
16.92
18.85
19.75
18.78
15.97
12.21
8.85
7.14
7.70
10.40
14.46
18.80
22.42
24.62
25.05
23.76
21.15
17.88
14.74
12.34
10.88
10.07
9.37
8.33
6.96
5.67
4.97
4.98
5.17
4.62
2.58
-1.09
-5.92
-11.16
-16.18
-20.77
-24.77
-27.78
-28.98
-27.66
-23.93
-19.23
-16.08
-17.17
-24.20
-37.01
-53.54
-70.47
-84.51
-93.41
-96.43
-94.18
-88.02
-79.37
-69.43
-59.31
-50.49
-45.05
-45.18
-52.19
-65.21
-80.57
-92.76
-96.04
-86.54
-63.17
-27.42
17.37
66.66
114.74
154.77
179.38
182.60
162.36
122.46
72.42
25.00
-8.02
-19.61
-9.06
18.82
56.39
96.24
133.07
164.06
188.15
205.15
215.13
218.35
215.18
206.33
192.48
174.14
151.90
126.78
100.60
75.69
54.15
37.07
24.12
13.89
4.58
-5.23
-16.31
-28.82
-42.42
-56.25
-68.78
-77.94
-81.70
-78.86
-69.82
-56.61
-42.45
-30.62
-23.39
-21.36
-23.52
-27.81
-32.09
-34.88
-35.74
-35.14
-33.84
-32.46
-31.10
-29.70
-28.33
-27.51
-27.97
-30.15
-33.68
-37.42
-39.82
-39.64
-36.54
-30.99
-24.04
-16.79
-10.09
-4.47
-0.31
2.20
3.12
2.90
2.28
1.97
2.30
2.90
2.88
1.25
-2.47
-7.97
-14.18
-19.64
-23.10
-23.85
-21.94
-18.10
-13.37
-8.84
-5.31
-3.14
-2.31
-2.64
-3.94
-6.16
-9.22
-12.76
-15.96
-17.69
-16.94
-13.37
-7.70
-1.43
3.78
6.86
7.77
7.29
6.45
5.86
5.43
4.64
3.07
0.79
-1.61
-3.43
-4.36
-4.73
-5.21
-6.39
-8.23
-10.10
-11.22
-11.21
-10.45
-9.86
-10.25
-11.63
-13.00
-12.87
-10.17
-4.99
1.30
6.89
10.57
12.35
13.30
14.55
16.34
17.87
17.91
15.85
12.26
8.58
6.18
5.51
6.20
7.78
10.58
15.86
24.93
37.66
51.76
63.32
68.56
65.72
56.16
43.92
33.94
29.72
31.64
36.76
40.01
36.58
23.90
2.74
-23.34
-49.60
-71.81
-87.25
-94.71
-93.97
-85.36
-70.06
-50.60
-31.16
-16.87
-11.99
-17.84
-31.88
-48.34
-60.58
-63.73
-56.55
-41.62
-23.71
-7.57
4.01
10.81
14.53
17.38
20.75
24.59
27.66
28.43
26.00
20.61
13.57
6.74
1.74
-0.65
-0.74
0.39
1.62
2.38
2.88
3.79
5.60
8.20
10.92
12.97
13.96
14.12
14.00
13.96
13.74
12.54
9.48
4.23
-2.53
-9.16
-13.47
-13.48
-8.21
1.67
13.86
25.05
32.21
33.90
30.93
25.86
21.62
19.92
20.46
21.35
20.56
17.29
12.51
8.15
5.70
5.33
6.03
6.76
7.47
9.12
12.57
17.11
19.93
17.13
6.02
-12.97
-35.70
-55.88
-67.75
-68.51
-59.25
-44.08
-27.98
-14.83
-6.33
-2.13
-0.73
-0.42
-0.05
0.80
1.93
2.85
3.06
2.39
1.16
-0.02
-0.47
0.19
1.79
3.71
5.12
5.34
4.15
1.83
-0.84
-2.85
-3.19
-1.32
2.51
7.07
10.44
10.77
7.12
-0.04
-9.02
-17.53
-23.53
-25.63
-23.23
-16.49
-6.43
4.86
14.38
18.95
16.49
7.09
-6.89
-21.80
-34.45
-43.27
-48.42
-50.72
-50.45
-46.81
-38.65
-25.76
-9.66
6.54
19.49
27.23
29.94
29.77
29.37
30.43
32.74
34.47
33.27
27.68
17.95
5.91
-5.85
-15.20
-21.27
-24.56
-26.34
-27.75
-29.00
-29.28
-27.26
-22.00
-13.68
-3.88
5.11
11.19
13.53
12.79
10.52
8.15
6.11
3.86
0.85
-2.52
-4.51
-2.74
4.32
15.87
28.39
36.55
35.22
21.56
-3.38
-34.61
-64.28
-83.92
-86.96
-70.89
-38.37
3.31
44.24
74.99
89.57
87.20
72.06
51.30
32.15
19.48
14.83
16.80
22.55
29.23
34.76
38.02
38.76
37.48
35.32
33.94
34.82
38.49
43.92
48.90
50.98
48.64
41.91
32.01
20.28
7.44
-6.43
-21.07
-35.14
-46.04
-50.92
-48.28
-39.39
-28.17
-19.55
-17.14
-21.39
-29.52
-36.93
-39.49
-35.34
-25.22
-11.46
3.72
19.21
34.73
49.31
59.92
61.77
50.45
25.23
-8.80
-41.43
-61.19
-60.57
-40.10
-8.68
20.08
33.79
26.49
0.77
-33.98
-66.24
-86.96
-92.75
-86.52
-75.13
-66.06
-64.62
-72.80
-89.71
-112.97
-139.61
-166.16
-188.85
-203.87
-208.70
-203.79
-193.09
-182.65
-178.09
-181.75
-189.69
-194.70
-188.92
-167.06
-128.25
-75.77
-15.13
47.62
107.05
158.88
199.62
227.90
244.17
250.44
249.65
245.79
242.91
243.99
250.67
262.49
277.46
293.12
307.02
317.45
323.80
326.03
324.13
318.28
309.23
296.01
277.46
252.55
220.93
183.19
140.45
93.89
45.06
-5.21
-56.74
-107.03
-154.00
-196.04
-231.79
-260.25
-284.53
-304.75
-320.01
-329.04
-330.26
-322.81
-306.97
-283.83
-255.23
-223.34
-189.63
-155.45
-121.97
-89.92
-58.25
-27.58
0.64
24.42
41.82
52.06
55.32
52.96
47.34
40.86
34.90
29.68
23.95
15.16
0.40
-22.99
-56.54
-99.31
-147.53
-195.20
-234.98
-260.36
-267.69
-257.47
-234.69
-207.25
-183.16
-167.87
-162.78
-165.17
-170.12
-172.94
-170.81
-163.30
-151.50
-136.61
-119.19
-99.36
-77.51
-55.02
-34.34
-17.90
-6.96
-0.76
3.11
7.48
14.04
22.77
31.96
39.36
43.64
45.36
46.99
51.94
63.38
83.14
111.29
146.01
183.83
220.15
249.97
269.08
275.23
268.91
253.21
232.56
210.99
190.71
171.80
152.92
132.63
110.76
88.97
70.41
58.45
55.04
59.64
69.01
78.16
82.13
77.88
65.32
47.07
27.15
9.12
-5.20
-15.93
-24.17
-30.57
-34.47
-34.14
-28.28
-17.57
-5.46
2.75
2.34
-7.82
-23.91
-38.40
-43.77
-36.80
-20.49
-2.46
9.62
12.24
7.52
0.78
-3.77
-5.77
-8.39
-14.86
-24.84
-33.22
-32.75
-18.12
10.61
47.85
85.27
115.27
133.43
139.03
134.38
123.32
110.36
99.42
92.31
88.50
85.47
80.74
73.98
67.75
65.51
69.66
79.19
89.60
95.72
94.73
88.06
80.98
80.00
88.69
107.00
131.18
155.14
173.54
183.60
185.89
184.25
184.42
190.68
205.75
229.86
256.11
276.94
285.90
278.96
255.84
227.42
200.62
178.63
161.15
145.40
125.45
98.11
62.69
20.46
-26.36
-77.00
-130.23
-183.70
-233.65
-275.38
-304.92
-321.34
-327.06
-326.84
-326.60
-329.87
-336.63
-343.69
-346.12
-339.66
-323.57
-301.04
-278.00
-260.81
-251.96
-248.40
-242.81
-227.83
-200.75
-166.29
-134.37
-114.30
-108.91
-112.18
-112.52
-100.16
-73.14
-38.41
-7.49
10.76
15.63
14.76
19.74
39.00
72.61
111.46
141.64
151.25
136.49
103.92
67.78
43.14
38.43
51.27
70.31
81.88
78.04
61.30
42.75
34.51
41.19
56.03
64.81
55.14
25.52
-12.52
-40.27
-42.84
-18.37
19.99
51.45
59.34
40.41
6.46
-22.96
-32.14
-18.15
8.08
29.21
32.47
17.37
-4.64
-17.87
-12.34
10.41
38.92
59.22
62.81
50.94
32.75
18.99
16.30
24.53
37.77
48.25
50.21
42.44
28.84
16.49
12.05
17.83
29.50
37.82
33.83
14.32
-15.81
-45.71
-65.31
-71.78
-71.78
-77.42
-98.35
-135.30
-179.21
-216.90
-238.35
-242.34
-235.98
-229.49
-230.08
-237.80
-246.19
-243.80
-222.40
-179.83
-120.72
-53.82
11.86
70.19
119.18
159.45
191.95
216.22
230.91
234.52
227.05
212.19
193.44
174.61
158.75
147.36
139.81
134.41
129.29
123.49
117.34
111.95
109.04
109.92
114.99
123.29
133.56
144.60
155.76
167.02
178.54
190.69
203.49
216.45
228.60
238.86
246.19
249.90
249.57
244.93
236.05
223.24
207.10
188.44
168.41
148.19
128.81
110.95
94.83
80.38
67.29
55.29
44.24
34.07
24.59
15.22
4.86
-7.99
-24.75
-46.24
-72.17
-101.13
-130.92
-159.33
-185.03
-208.01
-229.57
-251.60
-275.58
-301.84
-329.34
-356.02
-379.88
-399.90
-416.61
-432.08
-449.23
-471.14
-500.11
-536.75
-579.16
-622.55
-659.44
-681.01
-679.48
-651.01
-598.09
-529.63
-458.55
-397.25
-353.13
-325.73
-307.94
-289.75
-262.98
-224.84
-177.68
-126.04
-72.73
-16.86
45.04
115.14
190.87
264.89
327.82
373.30
401.28
416.77
425.82
431.75
433.51
428.18
414.96
396.22
376.74
360.68
347.87
330.83
299.52
246.27
171.70
85.17
-2.21
-82.60
-152.46
-211.44
-259.05
-294.07
-315.94
-327.21
-327.43
-317.72
-300.68
-278.24
-251.26
-217.70
-174.73
-121.95
-59.33
13.52
94.83
178.39
258.65
331.60
397.16
456.17
506.68
546.92
575.86
590.46
587.12
564.27
511.13
426.45
335.71
255.22
189.06
143.04
119.99
118.63
134.09
158.66
185.99
204.14
203.11
180.84
144.24
102.70
63.34
28.95
-1.24
-27.23
-47.93
-63.04
-72.00
-74.73
-73.89
-73.50
-76.41
-82.85
-89.63
-92.70
-89.97
-81.28
-67.80
-52.75
-40.11
-33.12
-33.51
-40.63
-51.68
-61.65
-66.32
-61.64
-46.38
-23.32
1.32
20.25
26.86
19.75
2.05
-20.57
-42.17
-59.31
-71.46
-80.02
-86.76
-92.83
-98.16
-102.07
-103.87
-102.76
-98.41
-91.39
-82.96
-74.66
-67.76
-62.32
-57.72
-53.18
-48.38
-43.92
-41.02
-40.66
-42.79
-46.30
-49.40
-50.79
-50.28
-48.63
-47.42
-47.98
-50.87
-55.56
-60.94
-65.73
-69.27
-71.72
-74.00
-77.27
-82.25
-89.14
-96.63
-103.06
-106.92
-107.43
-104.47
-98.64
-90.95
-81.65
-70.53
-56.71
-39.53
-19.02
3.77
27.01
48.58
66.73
80.68
90.78
98.54
105.71
114.16
125.63
141.59
162.25
185.68
207.50
220.46
219.35
202.44
172.98
138.34
107.20
85.64
75.17
72.91
73.73
73.44
69.67
61.92
48.81
28.34
-0.87
-37.83
-77.55
-112.29
-134.54
-139.99
-130.26
-111.54
-91.12
-74.83
-66.15
-65.86
-73.65
-88.25
-106.97
-125.04
-136.14
-134.11
-115.25
-81.58
-39.28
3.98
42.38
73.05
95.99
112.33
123.17
128.82
129.16
124.62
116.30
105.79
94.80
84.88
76.01
67.84
59.94
51.92
43.99
36.75
31.00
27.24
25.38
24.58
23.65
21.33
16.68
9.53
0.45
-9.42
-18.85
-26.94
-33.46
-38.73
-43.41
-48.18
-53.20
-58.03
-61.80
-63.56
-62.91
-60.21
-56.64
-53.79
-53.04
-55.01
-59.23
-64.51
-69.39
-72.92
-75.08
-76.74
-79.17
-83.38
-89.75
-97.91
-106.88
-115.26
-121.22
-122.60
-117.24
-103.59
-81.65
-53.41
-22.82
5.50
27.75
42.26
49.82
52.82
53.86
54.46
54.60
53.05
48.59
41.24
32.83
26.50
25.11
29.64
38.30
47.24
52.47
51.94
46.68
40.10
35.89
35.83
38.70
41.06
39.32
31.98
20.51
8.52
-0.17
-3.64
-2.79
-0.57
-0.10
-2.67
-6.71
-8.52
-4.36
7.14
23.65
39.53
48.45
46.64
35.11
19.43
7.04
3.45
9.55
21.48
33.23
40.27
42.08
42.02
44.70
52.65
64.49
75.59
80.87
77.76
67.47
53.85
41.05
31.09
22.91
13.30
-1.23
-22.31
-48.68
-76.36
-100.10
-115.18
-119.02
-111.81
-96.02
-75.07
-51.93
-28.35
-5.13
16.79
35.46
47.81
50.79
42.95
25.66
3.08
-19.41
-37.43
-49.46
-57.07
-63.55
-71.43
-80.34
-86.64
-85.00
-71.50
-46.24
-14.26
16.29
37.75
46.38
43.99
36.56
30.93
31.25
37.19
44.59
48.23
44.75
34.62
21.98
12.66
11.69
21.39
41.07
67.54
96.20
121.98
140.02
146.37
138.75
117.44
85.35
47.65
10.11
-22.79
-49.03
-69.48
-87.15
-106.19
-130.39
-161.47
-197.27
-231.05
-252.95
-253.38
-227.64
-179.03
-118.83
-62.35
-22.81
-5.87
-8.31
-20.91
-33.52
-39.30
-36.13
-24.88
-8.08
11.36
31.50
51.36
70.19
86.59
98.53
104.41
104.09
99.10
92.28
86.89
85.32
88.05
93.75
99.99
104.25
104.82
101.19
93.96
84.85
75.74
67.97
61.59
55.76
48.96
39.68
28.09
13.03
-5.72
-28.07
-53.68
-81.32
-107.96
-128.79
-138.47
-133.36
-113.87
-84.57
-53.03
-27.04
-11.62
-7.64
-12.65
-22.91
-35.52
-49.49
-64.86
-81.89
-100.09
-118.41
-135.82
-152.18
-168.41
-185.98
-206.19
-228.87
-252.55
-274.96
-293.67
-306.87
-313.97
-315.45
-312.56
-306.68
-298.70
-288.84
-276.77
-262.01
-244.30
-223.84
-201.31
-177.63
-153.70
-130.08
-106.95
-84.22
-61.65
-39.08
-16.58
5.57
27.02
47.45
66.66
84.68
101.70
117.95
133.57
148.56
162.78
175.95
187.81
198.22
207.26
215.21
222.57
229.85
237.45
245.55
254.06
262.80
271.60
280.38
289.22
298.25
307.50
316.89
326.34
336.02
346.30
357.59
369.90
382.45
393.50
400.46
400.51
391.11
370.48
337.91
293.88
240.39
181.30
122.30
70.05
30.43
6.36
-3.64
-5.13
-5.76
-12.35
-28.57
-53.97
-84.58
-114.46
-137.77
-150.40
-151.06
-141.52
-126.25
-110.92
-100.53
-97.76
-101.97
-109.66
-115.98
-116.70
-109.65
-95.02
-74.87
-52.15
-29.89
-10.54
4.34
14.47
20.79
25.05
28.90
33.06
36.74
37.68
33.26
21.74
3.34
-19.69
-44.04
-66.76
-86.47
-103.31
-117.58
-128.21
-132.51
-127.57
-112.85
-92.13
-72.84
-62.94
-66.88
-83.03
-104.48
-122.57
-131.22
-129.20
-119.39
-105.40
-88.97
-69.15
-43.78
-12.19
23.08
56.89
83.60
99.50
105.15
104.22
101.87
102.50
108.38
119.12
132.04
143.19
148.80
147.97
141.71
132.28
121.89
111.98
103.12
95.51
89.38
85.10
85.23
91.48
103.69
119.46
135.14
147.70
156.15
161.51
166.13
175.42
193.51
221.95
259.03
300.67
342.07
379.25
409.31
413.08
378.71
304.04
198.75
79.69
-36.97
-140.70
-226.76
-294.66
-346.01
-380.23
-397.27
-398.28
-386.12
-364.88
-340.03
-314.22
-288.60
-263.69
-237.69
-209.26
-178.42
-146.95
-117.82
-93.89
-77.46
-69.63
-70.32
-77.20
-87.50
-98.83
-109.73
-119.65
-128.35
-135.38
-140.21
-142.53
-141.79
-137.88
-131.38
-123.52
-116.01
-110.49
-108.05
-109.10
-113.44
-120.20
-128.13
-135.87
-142.20
-146.18
-147.15
-145.49
-140.80
-132.94
-122.13
-108.87
-93.88
-78.00
-62.16
-47.11
-33.47
-21.27
-10.21
0.32
11.02
22.43
34.58
46.86
58.20
67.16
72.58
73.61
69.95
61.82
49.62
33.55
13.52
-10.45
-37.91
-67.41
-96.40
-121.32
-138.42
-144.62
-138.27
-120.53
-93.56
-60.18
-23.01
16.13
56.24
96.91
137.99
179.55
222.08
266.11
310.97
353.72
388.73
408.90
408.27
385.01
343.12
291.43
240.47
198.15
166.75
142.72
119.23
90.07
52.98
10.53
-31.55
-67.45
-94.18
-112.35
-124.61
-133.35
-138.59
-138.27
-130.40
-115.67
-98.78
-86.80
-85.49
-95.65
-111.93
-125.41
-128.73
-120.39
-105.85
-93.99
-91.52
-98.37
-107.21
-108.01
-94.39
-67.93
-37.96
-16.11
-9.47
-16.31
-26.96
-29.77
-18.16
5.62
31.74
48.91
51.27
41.92
31.27
30.64
45.31
70.95
95.60
106.32
96.35
69.06
36.36
12.37
6.36
18.65
41.44
63.80
77.57
80.75
77.50
74.61
77.57
88.32
104.72
122.24
135.68
140.46
133.34
112.55
78.07
32.01
-21.42
-76.36
-126.18
-164.78
-187.33
-191.20
-176.30
-145.33
-103.76
-58.94
-18.57
11.31
27.90
32.11
27.52
18.87
10.60
6.21
8.36
18.79
37.88
63.56
90.65
111.69
119.37
110.11
86.46
56.88
32.26
20.88
24.56
37.95
51.52
56.68
49.88
33.69
14.59
-1.48
-12.71
-22.35
-36.41
-59.18
-89.55
-120.34
-141.28
-144.30
-128.27
-100.48
-73.72
-60.14
-64.99
-83.82
-104.55
-113.77
-103.54
-75.18
-38.21
-4.93
15.65
21.80
18.50
13.45
12.13
14.88
17.20
13.59
1.90
-14.29
-26.94
-27.92
-13.90
11.12
37.22
53.47
53.46
38.30
15.67
-4.48
-14.77
-13.46
-4.15
7.26
16.43
22.89
29.85
41.63
60.14
82.60
101.72
108.74
97.98
70.39
34.14
1.38
-17.27
-17.45
-2.79
17.71
34.76
43.37
44.47
42.90
43.20
45.97
47.13
40.13
20.33
-11.50
-48.58
-80.69
-99.03
-100.17
-87.24
-67.61
-48.50
-33.28
-20.61
-6.72
10.73
30.34
47.42
57.23
58.74
55.83
55.31
62.65
78.02
95.55
106.28
103.11
84.91
57.23
29.34
9.32
0.35
0.00
2.76
3.77
1.20
-3.85
-9.52
-15.41
-23.38
-36.26
-55.50
-79.89
-105.43
-127.14
-141.23
-146.33
-143.71
-136.55
-128.83
-124.41
-125.92
-133.76
-145.58
-156.66
-161.51
-156.26
-140.19
-116.05
-88.65
-62.51
-39.95
-20.59
-2.27
16.96
37.33
57.19
74.01
86.16
93.82
98.75
102.92
106.88
109.32
107.90
101.40
91.46
82.45
79.24
83.84
93.00
99.00
93.41
71.88
37.29
-1.14
-32.05
-47.45
-46.37
-34.57
-20.85
-12.22
-10.51
-12.49
-12.78
-7.64
2.47
13.26
19.38
17.64
9.17
-1.16
-7.44
-5.87
3.02
14.70
23.17
24.21
17.70
7.59
-0.32
-1.50
4.76
15.03
23.70
25.99
20.67
10.57
0.96
-3.56
-1.80
3.42
7.03
5.00
-2.89
-12.67
-18.37
-15.68
-4.77
9.38
19.61
20.61
11.99
-1.46
-12.58
-15.83
-10.46
-0.57
7.45
8.80
3.04
-5.85
-12.04
-11.41
-4.06
5.75
12.21
11.31
3.29
-7.46
-14.88
-14.68
-6.76
4.69
13.53
15.15
9.02
-1.03
-8.96
-9.97
-3.23
7.70
16.90
19.56
14.67
5.56
-2.09
-3.60
1.93
11.13
18.36
19.12
12.73
2.75
-5.05
-6.07
0.38
10.61
18.74
20.18
14.41
5.40
-0.64
1.15
11.41
26.05
38.58
43.85
41.10
34.47
30.43
34.00
45.63
60.68
72.28
75.50
70.46
62.49
58.89
64.38
78.04
93.59
103.13
101.75
90.27
74.40
60.93
53.65
51.59
50.19
44.76
33.66
19.14
5.89
-1.88
-2.61
2.37
10.19
18.32
25.82
33.09
41.10
50.19
59.61
67.72
72.40
71.67
63.89
48.08
24.28
-5.93
-39.38
-72.12
-100.68
-123.35
-140.43
-153.25
-162.68
-168.42
-169.42
-165.38
-158.00
-150.94
-148.32
-152.32
-161.86
-173.10
-181.57
-184.93
-184.16
-182.94
-185.25
-192.93
-204.40
-215.25
-220.23
-215.63
-200.84
-178.35
-152.35
-126.69
-103.30
-81.88
-60.65
-37.88
-12.97
13.37
39.59
64.22
86.36
105.50
121.23
133.05
140.89
145.69
149.31
153.72
159.48
164.61
165.30
157.93
141.62
119.81
99.48
88.59
92.79
112.58
142.52
172.39
190.07
185.52
154.38
100.09
33.57
-29.65
-74.23
-90.02
-75.13
-36.10
14.82
63.98
100.22
117.19
113.89
93.62
62.22
26.32
-8.41
-38.19
-61.51
-79.06
-93.10
-106.48
-121.66
-139.45
-158.27
-174.19
-182.06
-177.47
-158.89
-128.82
-93.51
-60.70
-36.64
-23.58
-19.05
-17.28
-12.06
0.26
19.25
40.84
59.56
71.17
74.40
70.84
63.53
55.05
46.35
36.94
26.09
14.20
3.35
-3.42
-3.67
2.74
12.95
22.07
25.27
20.18
8.15
-6.42
-18.23
-23.97
-24.04
-22.24
-23.61
-31.42
-45.19
-60.93
-73.28
-78.45
-75.93
-68.17
-58.66
-49.60
-40.93
-30.97
-18.10
-2.07
15.78
33.88
51.76
70.80
93.14
119.70
148.35
173.28
186.55
181.22
154.62
110.39
58.01
9.72
-23.77
-37.44
-33.93
-21.76
-11.13
-8.61
-13.89
-19.88
-16.59
3.36
40.66
88.09
133.63
165.90
178.94
173.95
157.32
136.81
115.52
94.33
72.77
51.03
31.27
17.27
12.54
17.89
30.21
44.45
53.76
52.66
39.38
16.46
-10.19
-33.99
-50.30
-58.13
-60.29
-61.82
-68.00
-81.83
-102.46
-125.37
-144.12
-153.07
-149.48
-134.08
-110.25
-82.34
-54.49
-30.34
-13.27
-6.34
-11.28
-26.98
-48.98
-70.47
-84.90
-88.91
-83.59
-73.21
-62.38
-53.22
-44.81
-34.79
-22.18
-9.22
-0.91
-2.87
-18.37
-46.38
-81.60
-116.18
-142.79
-157.71
-162.26
-162.34
-165.40
-176.19
-193.46
-209.29
-212.63
-195.02
-155.86
-103.78
-52.67
-14.47
7.12
18.10
29.65
50.58
81.17
112.80
133.21
134.35
117.90
94.96
79.87
82.04
100.42
123.93
138.13
133.36
110.26
79.19
53.92
43.57
47.34
55.39
55.20
39.43
10.59
-19.99
-39.02
-38.74
-21.76
0.43
14.22
11.47
-5.69
-26.38
-37.27
-30.02
-6.02
24.61
49.13
59.15
55.36
46.36
42.83
50.82
67.52
82.74
85.30
69.79
40.66
10.25
-7.98
-6.66
11.11
33.52
46.97
43.48
25.29
3.14
-10.29
-7.64
8.52
27.15
35.52
26.38
2.64
-24.36
-41.29
-40.32
-23.79
-2.65
10.11
6.96
-9.58
-28.73
-37.92
-30.31
-9.13
14.09
26.41
20.96
1.31
-20.45
-30.75
-22.19
1.90
29.25
45.56
42.55
22.68
-2.31
-18.18
-16.20
1.96
25.15
39.27
35.38
14.78
-11.82
-30.71
-32.88
-19.26
0.16
12.50
9.71
-6.70
-26.53
-37.16
-31.02
-10.16
14.60
30.04
28.02
10.26
-12.49
-26.53
-22.98
-2.89
23.22
41.21
41.48
24.44
0.45
-16.16
-15.35
2.70
27.59
44.81
44.23
25.97
0.49
-17.92
-19.42
-4.48
16.42
29.34
25.15
5.03
-20.05
-35.92
-33.51
-14.05
11.42
28.71
28.37
11.13
-12.63
-29.16
-29.05
-12.67
10.02
25.49
24.25
6.37
-18.58
-37.22
-39.81
-25.87
-4.42
11.57
12.59
-1.80
-22.79
-37.73
-37.33
-21.34
1.16
17.40
18.00
2.80
-19.12
-34.63
-34.08
-16.87
7.94
26.99
29.99
15.74
-7.20
-25.45
-28.27
-13.86
9.62
28.95
33.38
21.13
0.29
-15.95
-17.14
-1.89
21.12
38.39
39.41
23.25
-0.87
-18.92
-20.16
-3.50
21.72
41.27
44.11
28.80
4.06
-16.19
-21.09
-9.04
11.42
26.63
25.80
7.52
-19.55
-41.41
-46.90
-34.20
-11.67
6.86
10.26
-3.32
-25.56
-42.64
-43.44
-26.15
0.60
22.40
27.30
12.76
-12.99
-35.39
-41.88
-29.00
-4.30
18.01
25.28
13.69
-9.60
-30.59
-36.68
-24.00
0.31
22.30
29.43
17.87
-5.18
-25.69
-31.08
-17.42
8.30
32.22
41.92
33.48
13.71
-4.09
-8.06
5.20
28.53
48.47
53.37
40.40
17.31
-2.06
-6.10
7.49
30.02
47.02
46.84
27.76
-0.57
-22.81
-26.90
-11.19
14.10
32.78
31.98
9.80
-23.15
-49.11
-52.70
-29.11
13.21
56.84
84.35
86.99
68.47
42.08
22.83
19.39
29.90
44.27
50.98
44.10
26.48
7.35
-3.92
-3.69
3.59
8.61
3.18
-14.22
-36.90
-53.43
-54.02
-36.32
-7.15
20.53
34.05
27.27
3.22
-27.96
-54.73
-70.21
-75.16
-76.50
-82.24
-95.79
-113.52
-126.54
-126.26
-110.01
-83.31
-57.49
-43.40
-45.39
-58.96
-73.46
-78.64
-70.67
-54.28
-39.75
-36.36
-46.49
-63.87
-76.94
-75.54
-56.82
-26.86
2.60
20.76
23.54
15.73
8.52
13.33
35.63
71.75
110.27
137.67
144.90
131.81
106.85
82.25
67.49
64.47
67.27
66.79
57.05
39.61
23.15
18.11
30.10
55.59
83.23
99.95
97.96
78.91
52.38
29.99
18.88
17.93
19.32
14.24
-1.48
-24.32
-45.03
-54.31
-48.32
-31.45
-14.35
-7.89
-17.37
-39.21
-62.81
-76.45
-73.52
-56.52
-35.74
-23.50
-27.46
-46.17
-70.19
-87.73
-91.35
-82.28
-69.14
-61.79
-65.06
-75.11
-81.95
-75.89
-53.86
-22.16
7.06
22.95
22.10
10.50
-0.43
-1.16
10.36
27.27
37.99
33.61
13.22
-14.69
-36.42
-40.35
-22.97
8.75
41.02
60.10
59.24
42.14
20.52
7.55
10.88
28.55
50.78
66.31
68.96
61.31
52.52
52.05
63.50
81.62
95.21
93.97
74.69
43.94
14.75
-0.57
3.05
20.41
39.04
46.28
36.20
13.03
-11.17
-23.30
-16.20
7.29
36.19
57.84
64.64
58.31
48.08
44.78
54.44
74.36
94.56
103.65
95.10
71.16
41.56
17.98
8.06
11.30
19.75
23.00
13.91
-7.13
-32.61
-52.24
-58.51
-50.88
-35.70
-21.90
-15.68
-16.53
-17.72
-10.86
8.44
36.72
63.32
75.93
67.16
39.31
3.66
-25.16
-36.37
-28.50
-9.86
5.93
6.88
-11.85
-46.44
-87.55
-125.56
-155.14
-176.47
-192.72
-206.18
-215.48
-216.15
-204.18
-180.19
-151.10
-127.97
-120.36
-130.87
-152.82
-172.79
-177.08
-158.02
-117.13
-63.59
-9.19
37.12
72.50
99.82
124.44
150.40
177.86
203.06
220.11
223.95
212.75
188.85
158.02
127.30
102.55
87.02
81.54
85.64
98.58
119.24
145.04
170.63
187.85
187.88
165.11
120.75
63.74
7.76
-34.09
-54.83
-55.79
-45.01
-32.65
-26.59
-29.20
-37.29
-44.67
-45.64
-37.84
-22.40
-2.36
19.14
39.79
57.58
71.14
78.30
77.23
67.61
50.97
30.26
8.45
-12.68
-33.03
-53.98
-78.00
-106.97
-141.78
-181.31
-221.42
-254.72
-272.09
-265.87
-233.79
-181.48
-121.23
-67.24
-29.72
-10.03
-0.59
10.72
33.88
71.32
117.01
160.26
191.35
206.11
206.40
197.21
182.62
163.61
138.99
108.61
76.15
49.04
35.39
39.22
57.85
82.03
100.09
103.03
88.14
59.36
24.50
-8.39
-33.82
-49.69
-56.59
-56.21
-50.55
-41.38
-30.37
-19.20
-9.16
-0.86
5.96
11.94
17.52
22.42
25.33
24.49
17.99
4.01
-18.81
-51.03
-91.30
-135.30
-175.56
-203.58
-213.03
-203.30
-180.62
-155.64
-138.59
-134.38
-140.10
-146.44
-142.41
-120.76
-81.38
-31.65
16.58
51.47
65.27
56.07
27.30
-14.61
-62.40
-109.00
-147.28
-169.33
-167.20
-135.87
-77.22
-2.51
69.36
118.35
132.05
111.37
70.65
30.87
10.36
17.51
49.09
94.21
141.04
181.93
214.47
239.20
256.00
262.40
254.72
230.75
191.98
143.86
93.76
47.84
8.98
-23.43
-51.88
-77.80
-99.70
-113.29
-113.31
-96.99
-66.72
-30.22
1.39
18.04
15.29
-3.96
-30.98
-55.80
-72.11
-79.68
-82.95
-86.82
-92.49
-96.03
-90.81
-72.11
-41.20
-6.06
21.69
32.45
23.09
-1.58
-31.39
-55.94
-69.18
-71.51
-68.18
-65.62
-67.14
-71.06
-71.73
-62.74
-40.39
-5.22
38.30
83.75
124.54
154.98
170.41
167.34
144.20
102.48
47.38
-12.87
-69.13
-113.90
-143.33
-158.10
-162.51
-162.58
-163.63
-168.14
-174.72
-178.56
-173.25
-153.31
-116.37
-64.17
-2.00
62.51
120.88
165.39
190.48
194.06
178.42
150.05
117.95
90.76
73.72
67.07
66.61
66.02
59.64
44.39
20.37
-9.82
-42.34
-73.08
-98.26
-114.91
-121.31
-117.49
-105.41
-88.53
-70.72
-54.84
-41.74
-30.35
-18.91
-6.79
4.54
12.03
12.78
6.24
-5.04
-16.24
-22.77
-22.67
-17.56
-11.44
-8.14
-9.11
-12.61
-15.15
-13.81
-8.21
-0.79
4.80
6.14
3.75
0.94
1.91
9.10
21.32
33.95
41.12
38.68
26.61
8.94
-8.13
-19.28
-22.53
-19.65
-14.51
-10.51
-8.45
-6.35
-1.01
9.39
23.31
35.88
41.02
34.66
17.38
-5.30
-25.12
-34.93
-32.13
-19.78
-4.89
5.13
6.14
-1.48
-13.80
-26.25
-36.44
-44.93
-54.01
-65.19
-77.27
-86.68
-89.31
-83.39
-71.06
-57.72
-49.48
-49.80
-57.50
-67.28
-72.42
-68.40
-55.49
-38.49
-24.41
-18.57
-21.69
-29.60
-35.49
-33.88
-23.79
-9.11
3.60
9.18
7.11
1.83
0.24
7.49
23.96
45.25
64.93
78.75
87.44
96.20
111.49
136.35
167.65
196.73
213.11
209.87
187.36
153.53
120.58
99.34
94.38
102.37
113.98
118.88
110.73
89.83
62.34
36.37
17.38
5.80
-2.61
-13.37
-29.38
-48.85
-66.08
-75.04
-73.08
-62.78
-50.87
-44.39
-46.68
-55.60
-64.60
-66.78
-58.88
-43.07
-25.87
-14.20
-11.45
-15.80
-21.37
-22.07
-15.45
-4.07
5.73
7.80
-0.01
-14.14
-26.74
-29.93
-20.21
-0.56
20.55
33.43
31.95
16.37
-7.07
-29.88
-45.75
-53.10
-54.89
-55.55
-57.49
-59.64
-58.43
-51.01
-38.03
-24.00
-15.21
-15.91
-25.37
-37.91
-45.41
-41.75
-26.19
-3.65
17.75
31.20
34.94
32.85
32.17
39.12
55.07
75.74
93.25
100.30
94.09
77.53
57.73
42.08
34.49
33.86
35.16
32.80
24.20
11.10
-1.36
-8.06
-7.24
-1.72
2.39
-0.59
-12.23
-28.93
-43.46
-49.10
-43.65
-30.70
-18.03
-13.41
-20.31
-36.35
-54.41
-66.49
-67.75
-58.48
-43.47
-28.96
-19.00
-13.73
-9.77
-2.91
8.54
22.27
32.89
34.91
26.46
10.68
-5.43
-14.59
-13.38
-4.10
6.65
11.68
7.68
-3.06
-13.99
-18.22
-12.89
-0.96
10.43
13.86
6.23
-9.58
-26.15
-35.43
-33.34
-21.79
-7.41
2.13
2.37
-6.18
-19.20
-31.61
-40.59
-46.68
-51.98
-57.74
-62.19
-61.27
-51.23
-31.48
-6.48
15.39
25.25
17.59
-6.65
-39.79
-70.15
-86.40
-82.57
-61.09
-31.95
-8.70
-2.12
-15.24
-41.94
-69.74
-86.04
-84.20
-66.29
-41.37
-20.24
-9.72
-9.87
-14.87
-16.98
-11.09
3.25
22.40
41.93
59.68
76.80
96.26
119.49
143.86
162.94
169.29
158.96
134.42
104.01
78.38
65.19
65.37
73.20
80.05
79.70
72.03
62.76
59.75
67.92
86.13
107.80
124.74
131.89
129.88
123.65
118.64
116.66
114.53
106.10
86.12
53.79
13.62
-26.76
-60.28
-83.72
-99.05
-111.98
-128.99
-153.74
-184.89
-216.27
-238.87
-244.45
-228.79
-193.33
-144.65
-91.71
-42.46
-1.85
28.44
48.55
58.66
58.85
50.06
35.84
22.83
18.89
29.66
54.99
87.92
116.92
130.78
124.04
99.84
68.63
43.43
33.82
41.82
61.96
84.75
101.89
109.98
110.80
108.71
106.79
104.32
97.29
81.01
53.23
15.88
-26.15
-67.87
-106.91
-144.41
-183.05
-224.04
-264.55
-297.68
-315.06
-310.63
-283.67
-239.41
-186.92
-135.82
-93.16
-61.93
-41.49
-29.26
-22.38
-18.54
-16.10
-13.89
-11.20
-8.05
-5.01
-2.73
-1.43
-0.58
1.26
5.74
14.32
27.81
46.32
69.56
96.64
125.24
151.05
168.40
172.18
161.01
138.87
114.18
97.31
96.00
111.29
136.60
160.84
173.43
169.63
151.35
123.99
93.67
64.41
37.09
11.62
-9.50
-20.32
-12.90
17.04
64.00
114.69
153.23
167.32
154.33
123.34
90.03
70.36
72.29
91.18
115.68
134.93
142.77
139.83
132.64
120.18
100.57
83.84
72.12
59.36
44.55
31.28
25.93
34.72
58.62
93.49
131.14
161.30
178.92
186.78
191.87
194.19
192.15
180.51
154.03
110.48
51.44
-16.37
-83.58
-142.83
-190.52
-225.37
-248.11
-259.11
-258.70
-247.32
-224.95
-192.03
-151.72
-110.13
-74.44
-51.61
-45.37
-54.94
-75.72
-100.84
-122.94
-137.15
-142.27
-139.68
-132.41
-123.39
-115.00
-109.46
-109.34
-117.75
-137.16
-167.51
-204.16
-238.15
-258.54
-256.67
-230.08
-184.26
-130.51
-81.29
-44.95
-22.78
-9.67
2.09
18.39
40.65
66.07
90.44
110.74
126.45
138.34
146.24
147.47
137.66
113.53
76.03
31.64
-9.73
-39.20
-53.63
-56.97
-57.59
-62.74
-73.90
-85.80
-89.76
-78.98
-52.02
-12.93
31.86
76.96
119.34
156.76
185.19
198.07
188.73
154.59
100.09
36.07
-23.98
-69.38
-95.54
-103.90
-99.27
-86.72
-69.50
-49.39
-28.01
-7.91
7.18
13.85
10.53
-1.73
-19.62
-38.46
-53.56
-60.71
-56.91
-41.32
-16.01
13.64
39.53
52.76
47.10
21.97
-16.14
-55.41
-83.24
-91.26
-78.81
-52.84
-24.04
-1.55
10.68
14.68
15.65
17.99
22.38
25.40
22.10
9.83
-9.39
-29.26
-42.48
-44.84
-37.74
-27.60
-22.28
-26.50
-39.03
-53.17
-60.64
-56.33
-41.46
-23.25
-11.02
-11.12
-23.52
-41.88
-57.27
-63.00
-58.00
-46.85
-36.66
-32.72
-35.53
-40.89
-42.70
-36.94
-23.95
-8.05
5.55
14.15
19.21
25.18
36.26
53.07
71.45
84.16
84.56
70.67
46.91
23.04
10.08
15.30
38.52
71.19
99.38
109.60
94.80
57.90
10.63
-32.23
-60.03
-71.17
-72.82
-75.50
-85.80
-101.83
-114.24
-112.36
-91.47
-56.90
-21.75
0.30
2.83
-9.56
-24.09
-27.57
-14.25
10.66
34.02
42.93
32.47
8.68
-14.93
-25.74
-19.64
-3.46
9.22
6.37
-15.19
-47.92
-77.93
-92.90
-88.67
-70.97
-51.35
-40.23
-41.58
-51.17
-59.56
-57.12
-38.39
-4.06
39.74
84.44
122.17
148.39
162.49
166.62
163.47
153.92
136.39
108.99
72.77
34.07
3.92
-6.79
6.63
38.53
74.59
98.46
100.36
82.49
57.74
43.08
50.98
83.15
130.40
178.19
213.87
232.67
238.47
239.72
243.62
251.53
257.88
253.66
231.26
188.66
130.80
66.91
5.95
-47.21
-93.26
-135.90
-177.73
-215.79
-242.17
-246.77
-222.87
-172.76
-108.91
-49.64
-11.14
0.54
-7.98
-21.85
-26.87
-18.02
-2.21
7.03
-0.94
-26.18
-57.50
-79.16
-81.08
-65.58
-46.69
-41.74
-60.77
-100.18
-144.64
-176.13
-184.52
-173.22
-156.56
-150.69
-163.57
-190.31
-216.22
-225.52
-209.64
-171.14
-121.30
-73.24
-35.65
-9.43
10.87
32.96
62.51
100.88
145.17
190.57
232.99
270.73
304.59
336.04
364.60
386.28
394.39
382.75
349.65
300.06
244.22
193.44
155.07
129.63
111.82
93.82
69.35
35.93
-5.18
-50.58
-95.94
-136.94
-169.23
-188.47
-191.40
-177.32
-149.23
-113.64
-78.77
-52.27
-39.20
-41.05
-55.87
-79.59
-107.44
-135.27
-160.50
-182.43
-201.82
-219.88
-237.04
-251.94
-261.65
-262.71
-252.98
-233.34
-207.92
-182.55
-161.99
-147.52
-136.26
-123.16
-104.48
-80.82
-58.06
-44.87
-48.31
-69.66
-102.99
-137.67
-163.40
-174.95
-174.19
-168.12
-164.18
-165.72
-170.13
-170.53
-160.04
-135.80
-100.52
-60.94
-24.48
3.48
21.03
29.24
30.88
29.35
27.97
29.83
37.49
52.62
74.82
101.74
130.01
156.64
179.69
198.21
211.75
219.68
221.84
218.21
209.25
196.58
183.37
173.93
173.08
184.98
211.80
253.57
305.88
360.18
405.87
433.74
439.60
425.93
400.79
368.67
334.51
299.94
262.73
219.00
166.56
107.14
45.82
-11.71
-61.92
-103.27
-136.26
-161.93
-180.50
-191.78
-196.70
-197.45
-197.62
-200.89
-208.48
-218.93
-228.18
-231.02
-223.60
-205.40
-179.54
-151.67
-127.85
-112.41
-108.23
-116.28
-135.29
-161.18
-186.69
-202.63
-200.33
-175.00
-127.53
-64.54
4.58
71.06
128.84
174.64
206.41
222.04
219.78
200.24
167.24
127.77
89.50
57.81
35.34
21.72
14.90
13.15
15.96
23.77
36.84
54.15
73.69
92.97
109.62
122.28
130.88
136.25
139.40
141.56
142.34
140.40
134.18
122.62
105.85
85.23
62.96
41.06
20.63
1.58
-17.02
-36.63
-59.12
-86.57
-120.95
-161.63
-206.14
-249.20
-283.40
-301.29
-298.89
-277.80
-245.04
-210.41
-182.62
-166.50
-162.11
-166.28
-175.03
-185.47
-195.79
-204.19
-207.91
-203.33
-187.60
-160.09
-123.15
-81.40
-40.18
-3.65
25.98
48.25
63.60
72.68
76.17
74.95
70.40
63.89
56.63
49.10
41.32
33.64
27.33
24.86
29.53
44.43
70.95
107.67
149.54
188.37
214.64
220.20
201.49
161.38
108.86
56.19
14.67
-8.83
-13.32
-2.55
17.42
40.79
63.21
82.25
96.83
107.04
114.04
119.52
124.83
129.94
133.21
131.94
124.04
109.46
90.33
69.60
49.18
28.68
5.64
-22.45
-55.92
-91.31
-122.01
-141.09
-144.56
-133.92
-116.28
-101.82
-99.93
-115.21
-145.01
-180.30
-209.22
-222.40
-217.55
-200.20
-180.39
-166.76
-161.24
-157.95
-147.34
-123.05
-87.50
-52.19
-31.95
-36.28
-63.05
-98.61
-124.42
-126.55
-102.44
-61.42
-19.08
10.68
21.82
17.35
6.17
-2.09
-0.97
11.77
35.15
66.62
102.60
138.09
166.46
180.92
177.32
157.23
128.96
105.03
96.92
109.90
140.56
178.53
211.58
230.57
232.49
220.18
199.68
176.84
155.05
134.61
113.24
88.41
59.30
28.15
0.28
-17.48
-19.84
-5.75
20.67
49.71
71.30
78.31
68.61
44.92
12.45
-24.44
-63.46
-102.36
-140.25
-174.14
-199.08
-210.09
-204.46
-182.82
-148.63
-107.07
-63.43
-22.39
13.18
42.08
64.66
82.50
97.42
110.38
120.63
126.06
124.02
113.62
96.51
76.61
58.58
45.50
37.67
33.05
29.14
24.68
20.49
18.37
19.37
22.60
25.40
24.59
17.57
4.56
-11.27
-25.27
-33.26
-33.22
-25.66
-12.73
3.13
20.12
37.20
53.92
69.85
84.22
95.92
104.09
108.37
109.20
108.37
106.71
104.56
101.49
96.49
88.39
76.61
61.59
44.95
29.02
15.77
6.38
0.69
-2.89
-6.61
-12.50
-21.59
-33.77
-46.54
-58.13
-67.90
-76.69
-86.66
-100.48
-120.39
-147.59
-181.77
-220.86
-261.30
-297.82
-324.05
-333.99
-323.82
-293.45
-247.05
-192.02
-136.65
-87.99
-49.91
-22.86
-5.20
5.29
10.06
9.51
3.81
-6.05
-17.51
-26.35
-28.15
-20.17
-3.19
18.43
38.29
50.74
53.72
49.69
44.40
43.74
50.57
63.24
76.80
85.71
86.79
80.43
69.55
57.33
44.95
31.08
13.28
-9.54
-35.35
-59.08
-74.80
-78.69
-71.28
-57.53
-44.51
-38.11
-40.31
-48.51
-57.30
-61.39
-58.33
-49.48
-38.87
-30.75
-27.18
-26.84
-25.96
-20.53
-8.97
6.54
20.92
28.87
28.06
20.83
13.10
11.24
18.25
31.86
45.58
52.24
48.11
35.10
19.62
9.13
7.97
15.09
25.12
31.71
31.51
26.31
21.86
24.33
36.26
54.57
71.93
80.87
77.85
65.26
49.62
37.64
32.35
31.76
30.86
25.28
14.50
2.44
-4.71
-2.09
11.02
30.66
50.02
62.72
65.63
60.16
51.07
43.93
42.33
46.20
52.05
55.16
52.38
44.04
33.82
26.54
25.22
29.28
34.92
37.87
36.39
32.83
32.53
40.57
58.39
82.34
105.34
120.53
124.91
120.60
112.95
106.90
103.73
100.55
92.27
74.95
48.27
15.70
-17.35
-46.31
-69.31
-87.27
-102.87
-118.95
-137.34
-158.39
-180.73
-201.21
-215.49
-219.36
-210.69
-190.90
-164.89
-138.91
-117.64
-102.01
-89.43
-76.42
-61.47
-46.59
-36.23
-34.15
-40.71
-52.47
-64.08
-71.68
-74.94
-76.53
-79.66
-85.26
-91.09
-93.30
-89.19
-79.33
-67.75
-59.97
-60.26
-69.48
-85.03
-102.45
-117.33
-126.66
-128.62
-121.96
-105.96
-80.70
-47.81
-10.77
25.68
57.37
79.87
90.31
88.09
74.80
53.19
26.24
-3.02
-31.40
-56.05
-74.38
-84.62
-86.47
-81.25
-71.38
-59.13
-45.61
-30.65
-13.03
8.46
34.44
64.61
97.80
132.34
166.24
196.73
220.43
234.05
235.61
226.15
210.15
194.36
185.28
186.28
196.24
210.35
222.71
228.88
227.13
217.60
200.42
174.30
136.97
87.26
27.66
-34.28
-86.96
-118.21
-119.97
-92.45
-45.54
3.68
36.84
41.32
15.04
-33.22
-87.86
-133.63
-161.30
-169.39
-161.80
-143.15
-115.68
-79.61
-36.24
9.13
46.95
67.41
65.91
46.37
19.88
-0.85
-7.97
-2.06
9.39
17.27
16.61
9.46
2.91
3.96
14.90
31.45
45.37
49.11
39.97
21.70
2.23
-10.61
-12.94
-6.42
3.48
11.02
13.13
10.42
5.69
1.06
-3.79
-11.03
-22.61
-37.74
-52.42
-60.95
-58.87
-45.13
-22.67
2.80
25.03
39.47
44.50
41.99
36.71
34.13
37.91
47.54
58.35
63.78
59.18
44.87
26.38
11.46
5.72
9.61
18.57
26.49
29.48
27.83
24.97
24.08
25.06
23.63
13.30
-10.44
-46.72
-88.24
-123.83
-143.56
-143.58
-128.55
-109.72
-99.49
-105.42
-126.64
-154.36
-176.52
-183.52
-171.98
-144.93
-108.69
-68.91
-28.03
14.10
57.54
99.37
133.30
151.79
150.26
130.04
98.63
66.61
42.83
30.71
27.50
26.65
22.20
12.06
-0.96
-11.17
-13.63
-7.06
5.37
17.72
24.44
23.25
16.12
8.10
4.44
7.68
16.09
24.81
28.43
23.89
12.10
-2.84
-15.80
-23.19
-24.41
-21.50
-17.38
-13.91
-10.92
-6.64
0.48
10.19
19.53
23.86
19.15
4.56
-16.17
-35.70
-46.13
-42.67
-26.01
-1.94
21.62
38.55
47.24
50.49
52.95
57.75
64.28
68.73
66.74
56.59
40.92
25.78
17.58
19.72
30.71
45.04
56.14
59.89
56.70
50.92
48.11
51.62
60.73
71.27
78.47
80.19
78.38
78.02
83.84
97.19
114.96
131.25
140.87
142.47
139.09
135.96
136.85
141.31
144.60
140.41
124.52
97.37
63.86
30.89
3.94
-15.05
-27.78
-37.71
-47.64
-58.18
-67.78
-74.09
-75.58
-72.65
-67.43
-62.84
-61.41
-64.56
-72.59
-85.02
-100.83
-118.30
-134.72
-146.43
-149.83
-142.64
-125.05
-100.00
-71.96
-45.08
-21.65
-1.93
14.78
28.57
38.13
41.37
36.85
25.04
8.54
-9.20
-25.91
-41.80
-59.44
-81.97
-110.52
-142.47
-171.40
-189.20
-189.32
-169.74
-133.95
-89.83
-46.89
-13.28
6.44
11.85
5.80
-7.13
-22.25
-35.36
-43.20
-43.93
-37.60
-26.40
-13.92
-3.62
2.95
6.62
10.86
19.63
35.02
55.59
76.53
91.79
96.78
90.12
72.39
45.68
11.98
-27.46
-71.61
-118.54
-164.93
-206.44
-239.14
-262.55
-278.75
-291.52
-304.51
-319.95
-338.21
-358.00
-377.22
-384.75
-372.31
-335.07
-273.42
-192.93
-102.76
-12.46
71.03
144.27
207.17
259.31
300.51
330.70
350.38
360.63
361.93
353.76
334.78
304.16
260.79
206.02
144.99
87.59
44.93
24.30
26.85
45.10
70.87
95.01
109.53
109.43
94.03
65.71
28.89
-10.31
-45.68
-70.33
-78.95
-70.97
-54.03
-34.30
-14.61
2.39
15.03
22.15
23.04
16.34
1.02
-22.31
-49.99
-76.81
-97.73
-108.90
-108.76
-97.99
-79.37
-56.55
-32.93
-10.93
6.74
17.03
17.80
9.13
-5.76
-21.36
-31.65
-32.21
-21.49
-1.57
22.98
47.28
67.67
82.43
91.22
94.24
91.68
83.92
71.68
56.49
41.04
28.54
21.50
20.51
23.74
27.86
29.72
27.82
22.93
17.39
13.56
12.43
13.12
13.81
13.05
10.90
8.82
8.72
11.64
16.91
22.36
25.50
24.74
20.33
14.15
8.82
6.47
7.69
11.39
15.57
18.58
20.29
22.27
26.72
34.91
45.90
56.66
63.58
64.43
59.72
52.32
45.72
42.00
40.75
39.63
36.27
30.00
22.37
15.94
12.20
10.19
6.68
-2.11
-18.16
-40.35
-64.78
-86.68
-102.79
-112.70
-118.63
-123.46
-128.62
-132.92
-133.25
-126.57
-112.30
-93.42
-75.77
-65.83
-67.91
-82.07
-103.62
-124.64
-137.03
-135.47
-119.33
-92.54
-61.79
-33.77
-12.80
0.31
7.75
12.98
18.83
26.21
34.07
40.39
43.49
42.96
39.86
36.22
34.40
36.40
43.20
54.38
67.93
80.70
89.30
91.26
86.07
75.37
62.25
49.78
39.78
32.36
26.49
21.06
15.65
10.64
6.60
3.83
2.20
1.56
2.19
4.78
9.79
16.93
24.89
31.83
36.21
37.41
35.74
31.88
26.10
18.10
7.49
-5.47
-19.26
-31.49
-39.79
-42.89
-41.17
-36.24
-29.86
-23.02
-15.39
-5.94
6.01
19.92
33.73
44.78
51.03
52.23
50.15
47.87
48.06
51.69
57.46
62.50
63.95
60.43
52.81
43.66
35.99
31.43
29.35
27.30
22.60
14.14
3.36
-6.20
-10.82
-8.17
1.31
14.92
29.49
43.22
56.55
71.26
88.66
105.02
114.63
111.37
91.78
57.08
12.66
-34.32
-78.06
-115.65
-147.18
-174.08
-197.86
-219.04
-237.04
-250.56
-258.09
-259.54
-254.96
-245.13
-231.12
-214.07
-194.74
-173.37
-149.80
-123.59
-94.78
-64.04
-32.96
-3.46
22.85
45.76
66.71
87.04
109.03
134.27
162.78
192.68
220.94
244.37
260.57
268.01
265.94
254.76
236.06
213.33
191.71
176.38
170.14
171.50
174.66
171.86
157.34
129.67
92.44
52.25
15.54
-13.63
-34.38
-48.19
-57.96
-66.51
-76.02
-86.59
-95.76
-99.15
-92.56
-75.41
-52.38
-32.05
-22.49
-26.53
-39.93
-54.14
-61.94
-62.18
-60.15
-62.72
-72.40
-83.74
-85.89
-69.60
-34.13
10.44
47.97
64.44
55.39
27.89
-4.17
-28.23
-39.54
-42.52
-46.53
-58.51
-77.94
-96.35
-102.29
-88.62
-57.33
-19.67
9.55
19.72
10.12
-9.65
-25.15
-25.37
-8.90
15.16
32.50
32.36
13.77
-13.26
-33.43
-34.97
-16.49
11.85
34.10
37.71
20.50
-7.93
-31.80
-38.41
-25.15
-1.17
18.13
20.22
2.44
-26.30
-50.80
-58.57
-46.81
-24.25
-5.87
-4.08
-21.56
-49.15
-70.94
-73.04
-51.15
-13.25
24.88
48.37
50.90
37.81
22.14
16.43
25.48
43.48
57.84
57.28
38.74
9.84
-15.37
-24.69
-14.81
6.44
24.75
27.79
12.43
-13.20
-34.50
-38.80
-22.80
4.91
28.66
34.80
19.17
-10.01
-36.97
-47.49
-36.11
-9.37
18.22
32.92
29.82
15.46
3.60
6.26
25.47
52.19
71.10
69.72
46.27
11.75
-15.74
-20.22
4.70
52.59
109.58
161.48
199.65
219.93
223.99
216.20
200.64
183.85
164.70
139.15
104.39
60.40
13.18
-28.00
-55.40
-67.08
-67.96
-67.51
-73.11
-85.81
-99.92
-106.57
-99.12
-77.65
-49.14
-23.72
-9.97
-9.91
-19.34
-31.20
-39.65
-43.18
-44.70
-48.64
-57.29
-68.88
-77.72
-77.78
-66.56
-47.19
-27.21
-14.52
-13.08
-20.62
-30.59
-36.14
-34.40
-28.18
-24.06
-27.99
-41.36
-59.70
-75.10
-80.70
-74.36
-59.79
-44.21
-34.25
-32.75
-37.58
-43.56
-45.67
-41.54
-32.25
-21.01
-10.54
-1.26
9.25
24.60
46.76
73.90
100.02
117.26
119.76
106.93
84.42
61.69
47.50
45.71
53.55
63.65
68.44
64.27
53.17
40.91
33.27
32.68
37.14
41.96
42.81
38.07
29.45
20.62
14.67
12.51
12.45
11.54
7.43
-0.46
-10.79
-21.23
-29.63
-34.90
-37.53
-39.60
-43.92
-52.88
-66.95
-83.94
-99.63
-109.56
-111.75
-107.94
-102.97
-102.08
-107.11
-114.78
-118.08
-110.18
-88.86
-58.29
-26.66
-1.78
13.79
23.80
35.32
53.57
77.64
99.99
110.36
101.83
75.09
38.32
2.55
-23.88
-38.63
-44.72
-46.26
-44.40
-35.49
-13.60
24.78
77.07
133.33
179.74
204.01
200.03
170.34
124.52
74.56
30.30
-3.98
-29.82
-51.05
-70.11
-84.54
-87.19
-70.11
-29.88
29.08
94.88
152.54
190.10
202.99
194.58
172.50
143.90
111.78
75.57
33.74
-13.46
-62.33
-106.90
-141.89
-165.19
-178.89
-188.62
-200.18
-216.99
-239.16
-263.83
-286.86
-304.78
-316.10
-317.17
-306.51
-283.91
-249.96
-206.24
-155.07
-99.18
-41.56
14.52
65.28
106.40
133.85
147.72
150.68
147.08
141.62
137.66
136.07
135.03
130.43
117.84
94.06
58.28
12.67
-37.38
-84.12
-119.28
-136.20
-132.27
-109.49
-73.94
-34.04
2.23
29.77
47.45
57.73
64.82
72.19
81.00
89.43
93.79
90.89
80.35
65.62
52.85
47.86
52.81
64.79
77.06
82.66
78.23
66.15
53.26
47.13
51.96
66.09
82.77
93.31
91.09
74.35
46.52
14.00
-16.65
-41.24
-58.48
-68.92
-73.31
-71.18
-61.10
-42.10
-15.44
14.23
39.57
53.08
50.19
31.74
4.22
-22.82
-40.54
-44.60
-36.58
-22.35
-8.74
0.15
4.38
7.05
11.37
17.88
23.77
24.79
18.15
5.04
-9.42
-18.98
-19.72
-12.53
-2.72
3.01
0.17
-11.13
-26.60
-40.68
-49.78
-54.49
-58.80
-67.23
-81.62
-99.42
-115.05
-122.94
-120.84
-111.64
-102.08
-98.88
-105.08
-117.85
-130.02
-134.53
-128.08
-113.22
-97.10
-87.48
-88.20
-97.00
-106.47
-108.33
-98.05
-76.25
-47.52
-17.77
8.52
30.22
49.21
68.85
91.22
114.20
133.03
142.93
141.20
129.48
113.71
101.72
100.74
113.61
136.49
162.51
185.77
203.90
218.98
235.68
253.01
266.70
276.65
277.03
257.40
213.58
149.44
76.14
8.76
-39.00
-58.43
-48.42
-16.35
26.52
68.97
101.53
117.84
114.92
92.65
53.49
1.51
-58.31
-118.04
-166.49
-191.83
-186.21
-150.35
-95.62
-41.09
-5.88
-1.47
-26.00
-65.41
-101.19
-119.28
-114.73
-91.18
-55.81
-14.34
30.08
75.50
118.20
151.36
166.89
158.80
126.58
75.95
16.79
-40.46
-88.01
-122.20
-143.03
-152.56
-152.35
-142.58
-122.54
-92.24
-54.80
-16.97
12.85
27.94
27.11
15.65
2.67
-3.59
-0.50
7.62
12.46
6.95
-9.99
-32.32
-50.07
-54.66
-43.96
-23.38
-2.60
9.55
9.99
2.51
-5.46
-7.68
-3.53
1.41
-0.79
-15.31
-40.03
-65.59
-79.97
-74.94
-51.21
-18.75
8.39
19.19
11.66
-6.58
-23.09
-27.71
-18.34
-1.62
11.68
13.22
2.33
-13.99
-25.49
-24.70
-11.35
7.79
23.21
27.98
21.64
10.12
1.98
3.41
14.49
29.05
38.36
35.89
21.40
1.07
-15.61
-20.90
-13.04
2.92
18.00
24.08
18.39
4.60
-9.33
-15.76
-11.57
0.53
13.85
21.86
22.14
17.44
13.80
16.51
26.32
38.66
45.87
41.78
25.72
3.24
-16.40
-25.41
-21.79
-10.31
0.26
2.51
-5.12
-17.45
-25.47
-21.87
-5.53
17.66
37.86
46.87
42.67
30.20
18.39
14.68
20.87
32.41
41.43
41.89
33.45
21.80
15.41
20.30
36.34
57.09
73.21
77.98
71.03
58.72
50.39
52.99
67.09
86.68
102.62
108.03
101.91
89.32
77.87
72.83
74.10
76.27
71.63
54.53
24.11
-15.07
-55.14
-88.29
-109.64
-118.58
-118.08
-112.17
-103.49
-91.85
-74.78
-49.97
-17.82
17.14
47.43
66.04
69.90
61.70
48.36
37.09
31.46
29.74
26.18
14.60
-8.33
-41.55
-80.65
-120.64
-158.21
-192.53
-224.02
-252.27
-274.88
-287.93
-288.05
-274.83
-251.73
-224.94
-200.62
-182.10
-168.64
-156.33
-140.79
-119.97
-95.28
-70.65
-50.14
-35.58
-25.73
-17.09
-5.83
10.45
31.91
56.78
82.13
104.89
122.50
133.34
137.01
134.21
126.41
115.25
101.97
87.27
71.62
55.91
41.74
30.94
24.64
22.43
22.24
21.39
18.05
12.32
6.23
2.34
2.17
5.09
8.53
9.43
6.16
-0.45
-7.40
-11.27
-10.25
-5.13
1.18
5.52
6.47
5.09
4.11
5.99
11.00
16.85
19.81
16.98
8.14
-3.83
-14.37
-19.62
-18.50
-13.33
-8.50
-8.25
-14.31
-25.10
-36.52
-43.84
-43.83
-35.85
-21.59
-3.90
14.69
32.73
49.81
65.77
79.78
89.91
93.68
89.20
76.66
58.90
40.85
27.65
22.35
24.48
30.40
35.16
35.37
30.93
24.81
21.01
21.71
25.68
28.95
27.32
19.28
7.34
-3.20
-7.22
-2.89
7.06
16.89
20.97
17.12
7.73
-1.74
-5.95
-2.78
5.48
13.68
16.87
13.33
5.57
-1.19
-2.16
4.07
14.63
23.94
26.90
21.95
12.00
2.82
-0.31
4.47
14.52
24.53
29.58
28.26
23.26
19.74
21.99
30.74
42.64
52.14
54.75
49.72
40.36
32.26
29.92
34.00
40.87
44.46
39.73
25.86
7.12
-8.89
-15.07
-8.58
7.31
24.35
32.92
26.55
4.77
-26.77
-59.31
-85.29
-101.62
-110.40
-116.68
-124.86
-135.95
-147.03
-153.42
-151.67
-141.79
-127.23
-112.67
-100.99
-91.45
-79.98
-61.54
-33.29
3.37
42.84
77.47
100.67
109.31
104.59
90.66
72.45
53.55
35.39
18.06
1.76
-11.95
-20.14
-19.92
-10.17
7.17
27.34
44.61
54.67
56.52
52.76
47.86
45.70
47.31
50.37
50.88
45.72
34.90
21.82
11.38
7.20
9.34
14.33
17.40
15.47
9.34
3.26
2.50
10.17
25.18
42.72
56.90
63.77
63.37
59.18
55.80
56.18
60.10
64.89
67.73
67.79
66.96
68.36
73.65
80.80
84.03
76.38
53.82
18.41
-21.21
-52.88
-65.90
-55.66
-25.60
14.37
51.99
77.17
84.89
75.45
52.89
22.52
-10.92
-43.86
-73.84
-99.10
-118.28
-130.56
-135.45
-132.94
-123.81
-110.08
-95.16
-83.19
-77.58
-79.15
-85.09
-89.57
-86.28
-71.25
-44.60
-10.12
26.85
61.74
91.88
115.74
131.25
134.69
121.33
87.79
34.71
-31.95
-101.94
-163.87
-209.00
-233.73
-239.95
-233.15
-219.32
-202.44
-183.50
-161.47
-135.35
-105.79
-75.44
-47.63
-24.49
-5.64
11.52
30.16
51.91
75.65
97.77
113.99
121.61
120.97
115.38
109.30
105.94
105.49
105.03
100.26
88.10
68.81
46.24
26.26
13.93
11.18
16.11
24.26
31.16
34.47
34.80
34.52
35.69
38.29
39.87
37.07
27.80
12.80
-4.32
-19.11
-28.72
-33.27
-35.47
-38.12
-41.55
-42.75
-36.89
-20.81
3.95
30.79
50.73
57.19
49.59
33.72
18.56
11.11
12.63
18.48
21.35
16.10
2.99
-12.62
-23.54
-25.31
-18.83
-9.78
-5.36
-9.98
-22.66
-37.54
-46.79
-44.94
-31.98
-13.40
2.31
8.19
2.54
-10.12
-21.32
-23.37
-13.71
3.63
20.15
27.92
24.17
12.78
1.98
-0.75
6.83
20.58
32.49
35.50
27.67
12.95
-1.26
-8.59
-7.30
-0.99
3.78
1.56
-8.53
-22.22
-32.26
-32.66
-22.19
-5.32
9.96
16.50
11.99
0.06
-11.80
-16.81
-12.81
-3.39
4.41
4.63
-3.87
-16.73
-26.67
-27.87
-19.45
-5.97
5.22
8.26
2.14
-8.89
-17.84
-19.10
-11.73
0.02
9.07
9.62
0.56
-13.85
-26.26
-30.35
-24.39
-12.22
-1.03
2.74
-2.75
-13.86
-23.51
-25.38
-17.56
-3.59
9.67
16.10
13.93
6.53
0.25
0.50
8.41
20.17
29.45
31.22
25.08
15.52
9.39
11.86
23.08
37.86
48.47
49.00
38.90
23.35
10.27
5.68
9.99
17.67
20.41
11.92
-8.13
-33.87
-56.38
-68.54
-68.72
-61.22
-53.35
-51.06
-55.47
-62.56
-65.74
-59.77
-43.94
-22.64
-3.01
8.70
10.52
5.58
0.21
0.37
8.21
20.70
31.46
34.31
27.05
12.81
-1.59
-9.39
-7.72
0.90
10.21
13.95
9.62
-0.35
-10.26
-14.69
-11.81
-4.36
2.42
4.01
-0.44
-7.55
-11.94
-9.38
0.50
13.74
24.11
26.41
19.30
6.06
-7.24
-14.83
-14.28
-7.66
-0.14
2.80
-1.38
-11.08
-21.61
-27.87
-27.38
-21.70
-15.34
-13.18
-17.53
-26.88
-36.98
-43.29
-43.74
-40.07
-36.57
-37.91
-46.27
-59.81
-73.27
-80.23
-76.26
-60.98
-38.20
-13.61
8.69
28.49
49.18
74.83
106.25
138.25
160.76
163.08
140.14
96.58
46.00
5.39
-12.99
-7.48
12.86
33.57
42.93
37.99
25.26
15.86
18.16
32.27
49.95
59.48
52.73
30.09
0.27
-24.45
-34.86
-28.97
-12.21
6.33
19.31
24.66
25.45
26.73
31.17
36.54
37.31
28.41
9.50
-13.53
-31.34
-36.12
-26.32
-8.24
7.19
9.99
-3.74
-29.80
-58.37
-79.07
-85.99
-80.02
-67.44
-56.04
-50.93
-52.21
-55.80
-56.15
-49.84
-37.59
-23.69
-13.40
-9.64
-10.90
-12.34
-8.65
2.36
17.71
30.69
34.56
26.56
10.11
-6.96
-16.65
-15.08
-4.80
6.97
12.68
8.85
-1.75
-11.90
-14.19
-5.35
11.75
29.64
40.39
39.68
28.91
13.86
1.25
-4.86
-5.17
-4.11
-6.80
-15.67
-28.61
-40.05
-44.23
-38.61
-25.92
-12.95
-6.89
-11.35
-23.92
-37.47
-44.20
-40.26
-28.31
-16.34
-12.98
-22.56
-42.44
-63.98
-77.04
-74.58
-55.31
-22.91
17.05
59.74
101.99
140.96
172.12
189.18
185.73
158.38
109.35
46.63
-17.71
-70.94
-103.30
-110.52
-94.86
-64.55
-31.19
-6.24
3.08
-3.73
-20.80
-38.95
-50.19
-51.16
-43.42
-30.73
-15.96
1.05
22.31
48.96
78.75
105.86
123.50
127.56
119.27
105.24
94.38
93.31
103.09
118.87
132.75
138.31
134.00
123.64
113.74
108.76
108.00
105.60
94.17
69.91
35.88
1.09
-24.10
-33.85
-30.39
-22.89
-22.53
-36.22
-63.20
-95.78
-123.98
-141.16
-147.21
-147.85
-150.43
-158.78
-170.57
-178.51
-174.54
-154.89
-123.21
-89.09
-63.31
-52.24
-54.13
-60.40
-60.53
-48.08
-24.71
0.79
17.75
19.89
9.49
-3.89
-8.98
0.63
22.45
46.55
61.28
59.97
44.99
26.25
15.44
19.32
35.63
54.46
64.03
57.35
36.51
11.49
-5.61
-7.17
5.59
23.41
34.64
31.83
16.02
-3.91
-16.80
-15.65
-1.82
15.58
25.38
20.77
3.59
-16.50
-27.82
-23.39
-5.25
16.51
29.65
26.99
10.60
-9.22
-20.18
-15.23
3.25
24.61
36.29
31.10
11.17
-13.09
-29.33
-30.22
-17.30
0.12
10.91
8.71
-4.66
-20.34
-28.30
-23.40
-8.38
7.82
15.82
11.76
-0.30
-10.47
-9.27
6.59
31.99
55.89
67.40
61.74
42.20
18.11
-0.65
-8.78
-7.38
-2.03
1.44
0.99
-0.84
1.15
10.79
27.34
45.13
56.05
53.86
37.74
12.85
-11.87
-28.03
-31.63
-24.47
-12.73
-3.48
-0.86
-4.57
-10.60
-14.01
-12.12
-5.89
0.75
3.60
1.34
-3.28
-4.53
3.02
20.89
44.98
66.98
78.40
75.24
60.24
41.75
29.53
29.71
41.89
59.50
73.48
77.03
68.70
52.66
36.01
24.73
21.02
22.94
26.56
29.16
30.70
33.35
38.63
44.88
46.90
38.38
15.94
-17.57
-53.41
-80.45
-90.77
-83.72
-66.04
-48.16
-38.40
-38.63
-43.87
-45.65
-37.61
-19.69
1.51
16.11
16.64
2.60
-19.04
-37.44
-43.86
-36.74
-22.47
-12.12
-15.24
-34.54
-64.70
-95.04
-115.43
-121.32
-115.43
-105.46
-99.08
-99.44
-104.03
-106.72
-102.23
-89.52
-72.27
-56.23
-45.13
-37.85
-29.07
-12.55
14.31
47.89
79.43
99.08
101.19
87.29
65.46
46.38
38.18
43.05
57.05
72.81
83.71
86.99
84.37
80.26
78.66
81.03
85.80
89.75
90.39
87.51
83.14
79.96
79.13
79.35
77.53
70.83
59.09
45.58
35.88
35.09
44.90
62.60
82.12
96.77
102.16
97.56
85.53
70.07
54.53
40.61
28.59
18.18
9.56
3.55
1.26
3.42
9.57
18.00
25.95
30.30
28.75
20.86
8.83
-3.11
-10.34
-10.21
-3.72
4.64
8.77
3.64
-12.54
-37.91
-68.41
-99.67
-128.66
-153.92
-174.93
-191.35
-202.56
-207.46
-204.45
-191.46
-166.49
-128.99
-81.60
-31.12
12.16
37.45
37.44
11.50
-33.31
-84.59
-128.90
-156.02
-161.34
-145.69
-113.07
-68.64
-17.70
34.00
79.54
111.21
122.72
112.52
85.77
53.74
29.66
22.81
34.14
55.57
73.35
73.92
49.40
0.17
-65.66
-135.29
-195.19
-234.23
-245.57
-227.13
-181.42
-115.02
-37.85
38.07
100.66
140.00
150.85
133.94
95.76
46.69
-2.64
-44.62
-76.94
-102.07
-124.57
-147.44
-169.94
-187.77
-195.49
-189.63
-170.43
-141.55
-108.13
-74.40
-42.20
-11.48
18.19
46.06
70.40
90.08
106.22
122.28
142.48
168.86
198.93
225.45
238.76
230.58
197.95
144.54
79.40
14.52
-38.17
-69.35
-74.31
-53.75
-13.47
37.65
89.76
134.76
166.11
180.91
180.70
170.44
157.27
145.95
138.57
134.67
131.58
125.00
110.46
85.13
49.30
6.51
-37.62
-77.03
-107.46
-127.86
-140.15
-147.72
-153.54
-158.79
-163.05
-165.37
-165.27
-163.67
-162.52
-163.07
-163.94
-160.58
-147.34
-121.22
-85.06
-47.31
-18.60
-6.68
-12.44
-29.94
-50.01
-65.24
-73.23
-76.23
-77.46
-77.73
-74.42
-63.07
-41.10
-10.14
23.98
54.48
75.10
83.13
80.12
70.35
58.35
46.45
34.30
19.82
1.10
-21.98
-46.79
-68.53
-82.94
-86.75
-79.49
-63.58
-43.13
-22.11
-2.60
15.79
35.31
58.60
87.63
123.04
163.95
207.16
248.04
280.53
297.96
295.10
271.35
232.80
191.46
161.08
151.19
162.56
186.75
210.18
220.45
211.76
186.15
150.66
112.52
75.81
41.08
7.33
-25.45
-55.35
-79.16
-94.74
-102.61
-106.09
-109.89
-118.12
-132.70
-152.85
-176.57
-201.46
-226.03
-250.22
-275.05
-301.66
-330.15
-358.83
-380.21
-386.53
-371.60
-333.14
-273.97
-201.23
-124.08
-50.93
12.71
64.80
105.39
136.04
158.68
174.83
185.30
190.47
190.61
186.84
181.11
175.28
170.95
168.78
168.26
167.88
166.45
161.50
150.97
133.28
107.26
73.11
33.12
-7.79
-42.25
-63.06
-66.93
-55.69
-35.74
-15.33
-0.98
4.70
3.11
-2.09
-7.60
-11.95
-15.09
-17.51
-19.36
-20.24
-19.69
-17.80
-15.22
-12.91
-11.71
-11.56
-11.71
-11.38
-10.28
-8.89
-8.13
-8.67
-10.48
-12.62
-13.64
-12.37
-8.94
-4.95
-2.81
-4.50
-10.42
-18.84
-26.70
-31.05
-30.54
-26.39
-21.52
-19.23
-21.83
-30.01
-43.43
-61.53
-83.84
-108.32
-130.80
-145.09
-145.02
-127.67
-95.95
-58.56
-26.24
-6.68
-0.33
-0.53
2.38
14.94
36.34
58.69
71.88
69.92
55.03
36.82
26.59
30.83
47.09
65.17
73.19
64.47
42.04
17.05
2.51
5.67
23.71
45.11
56.33
49.57
27.47
1.56
-14.25
-11.74
6.88
30.14
44.04
40.02
19.95
-5.02
-20.83
-18.69
-0.06
23.96
39.19
36.38
16.64
-9.30
-27.11
-27.11
-9.73
14.74
31.98
31.85
14.18
-11.40
-30.84
-33.70
-18.84
5.07
24.57
28.74
15.49
-7.39
-26.46
-30.48
-16.81
7.01
27.44
32.76
19.81
-4.19
-25.59
-32.33
-20.72
2.37
23.45
30.20
18.65
-4.73
-26.51
-34.17
-23.27
0.05
22.45
31.22
21.63
-0.46
-21.88
-29.87
-19.46
3.65
26.28
35.46
26.01
3.39
-19.34
-29.25
-20.95
0.34
21.80
30.58
21.36
-0.71
-22.84
-32.31
-23.76
-2.35
19.17
28.03
18.88
-3.12
-25.11
-34.19
-24.80
-2.04
21.16
31.70
23.83
2.45
-19.67
-29.47
-21.12
0.50
22.66
32.28
23.63
1.62
-20.90
-30.81
-22.32
-0.37
22.12
31.94
23.30
1.16
-21.46
-31.25
-22.25
0.62
24.34
35.46
27.90
6.36
-16.33
-26.86
-19.13
2.26
24.62
34.83
27.01
5.85
-16.05
-25.79
-17.68
3.43
25.00
34.25
25.74
4.47
-17.03
-26.18
-17.73
3.09
23.71
31.55
21.53
-0.98
-23.23
-32.53
-23.61
-1.75
20.34
29.80
21.22
-0.45
-22.68
-32.80
-25.30
-5.04
15.61
24.01
14.68
-7.56
-30.34
-40.90
-33.48
-12.72
9.14
19.24
11.60
-9.42
-31.69
-42.25
-34.84
-13.59
9.54
21.56
16.05
-3.07
-23.98
-33.80
-26.17
-5.14
17.28
28.05
20.85
-0.16
-22.73
-33.62
-26.35
-5.18
17.51
28.50
21.45
0.80
-20.89
-30.41
-21.57
0.87
24.03
34.58
26.44
4.51
-18.28
-28.57
-20.33
1.46
23.83
33.55
24.78
2.68
-19.67
-28.96
-19.29
4.17
28.21
39.32
31.43
9.56
-13.22
-23.48
-15.02
7.28
30.40
40.93
32.69
10.41
-13.04
-24.42
-17.51
3.08
24.69
34.24
25.72
3.84
-18.73
-28.89
-20.47
1.88
25.45
37.02
30.24
9.47
-12.85
-23.60
-16.41
4.49
26.72
37.28
29.90
8.79
-13.83
-25.06
-18.68
1.11
22.12
31.63
23.61
2.37
-19.93
-30.53
-23.35
-2.73
19.15
29.48
22.14
1.32
-20.89
-31.64
-24.58
-3.75
18.77
30.03
23.54
3.08
-19.48
-31.29
-25.82
-6.73
14.21
24.27
17.12
-3.42
-25.49
-36.33
-29.62
-9.29
12.63
23.24
16.12
-4.76
-27.28
-38.34
-31.35
-10.17
12.98
24.85
18.70
-1.67
-24.06
-35.16
-28.21
-6.94
16.29
28.04
21.43
0.21
-23.25
-35.31
-28.94
-7.73
16.01
28.66
23.12
2.91
-19.76
-31.35
-24.78
-3.60
19.88
32.05
25.77
4.58
-19.12
-31.59
-25.57
-4.46
19.33
31.93
25.95
4.77
-19.20
-32.00
-26.13
-4.88
19.38
32.65
27.35
6.72
-16.98
-29.82
-24.26
-3.53
20.14
32.85
27.09
6.11
-17.83
-30.86
-25.49
-4.92
18.61
31.22
25.42
4.45
-19.41
-32.19
-26.33
-4.94
19.75
33.75
29.37
9.63
-13.47
-26.12
-20.77
-0.53
22.52
34.57
28.15
6.48
-18.12
-31.67
-26.48
-5.68
18.46
31.84
26.65
5.88
-18.28
-31.68
-26.43
-5.33
19.54
34.08
30.28
10.75
-12.74
-26.41
-22.42
-3.38
19.02
31.16
25.42
4.68
-19.23
-32.60
-27.78
-7.58
16.15
29.69
25.33
5.80
-17.20
-30.07
-25.18
-5.22
18.16
31.48
27.11
7.77
-15.02
-27.89
-23.29
-3.96
18.53
30.81
25.31
4.82
-19.05
-32.76
-28.61
-9.21
13.89
27.21
23.05
3.95
-18.67
-31.37
-26.51
-6.62
16.81
30.29
26.11
6.78
-16.32
-29.77
-25.83
-7.02
15.28
27.68
22.52
2.36
-21.31
-35.02
-30.92
-11.40
12.11
26.18
22.93
4.66
-17.47
-30.16
-25.63
-6.22
16.85
30.23
26.15
6.88
-16.39
-30.36
-27.13
-8.94
13.10
25.75
21.20
1.76
-21.45
-35.07
-31.09
-11.65
12.14
26.97
24.76
7.49
-13.99
-26.50
-22.01
-2.49
21.20
35.79
33.23
15.40
-6.90
-20.46
-17.10
1.35
24.11
37.96
34.66
16.00
-7.38
-22.23
-20.23
-3.04
18.62
31.38
26.84
6.61
-18.57
-35.13
-34.28
-17.29
5.24
19.72
17.40
-0.41
-23.05
-36.86
-33.03
-13.03
12.21
28.72
27.55
10.17
-12.53
-26.64
-23.39
-4.43
19.03
33.08
29.08
9.13
-15.26
-29.88
-26.11
-6.00
18.75
33.83
30.52
10.86
-13.57
-28.56
-25.39
-5.97
18.28
33.23
30.12
10.74
-13.74
-29.28
-26.99
-8.36
15.68
31.18
29.11
10.67
-13.43
-29.27
-27.69
-9.65
14.30
30.17
28.69
10.65
-13.54
-29.87
-28.97
-11.51
12.23
28.20
26.87
8.75
-16.01
-33.37
-33.64
-17.08
6.27
22.44
21.65
4.02
-20.48
-37.92
-38.46
-22.08
1.36
18.03
18.24
2.04
-20.71
-36.29
-35.14
-17.46
6.84
24.01
24.54
8.72
-13.46
-28.17
-25.77
-6.52
19.48
38.17
39.69
24.15
1.68
-13.65
-11.97
6.41
31.11
47.71
46.23
26.93
0.32
-19.07
-21.00
-5.47
17.34
33.26
32.28
14.38
-10.49
-28.47
-29.77
-14.42
7.77
23.07
21.81
4.03
-20.48
-38.00
-38.77
-22.66
0.60
17.37
18.02
2.65
-18.92
-32.96
-29.96
-10.32
15.70
33.91
34.42
17.38
-7.05
-24.64
-25.27
-8.82
14.76
31.36
30.80
12.82
-12.74
-31.84
-34.19
-19.32
3.04
18.81
17.76
-0.53
-26.23
-45.04
-46.43
-29.71
-4.47
15.13
18.63
5.31
-15.42
-29.69
-27.36
-8.00
18.63
38.32
40.69
25.26
1.82
-15.25
-15.36
2.03
27.09
45.29
45.93
28.34
2.35
-17.49
-20.34
-5.29
18.07
35.54
36.46
19.94
-4.64
-23.39
-25.92
-11.45
10.68
26.63
26.06
8.24
-17.49
-37.16
-40.30
-25.86
-3.04
14.42
16.25
1.75
-19.73
-34.35
-31.90
-12.01
15.52
36.18
39.12
23.43
-1.42
-21.01
-24.36
-10.13
12.51
29.50
29.96
12.62
-13.42
-34.10
-38.47
-25.09
-2.92
14.10
15.22
-0.79
-24.89
-43.00
-44.36
-27.65
-1.98
18.51
22.94
9.95
-11.41
-27.05
-26.06
-7.18
20.29
41.83
46.17
31.78
7.82
-11.19
-13.84
1.44
25.44
43.61
44.53
26.66
-0.69
-22.89
-28.27
-14.87
8.46
27.50
30.80
16.32
-7.55
-27.04
-31.18
-18.03
4.05
21.49
23.49
8.34
-15.52
-34.43
-37.52
-22.99
0.67
19.79
23.51
10.21
-11.52
-27.96
-28.29
-11.08
14.74
34.99
38.40
23.16
-2.00
-22.93
-28.09
-15.19
7.48
26.12
29.32
14.81
-9.33
-29.35
-33.91
-20.64
2.32
21.09
24.16
9.03
-16.25
-37.77
-43.80
-31.50
-8.60
11.27
16.56
4.51
-17.27
-35.24
-37.98
-22.83
2.43
24.03
30.40
18.78
-3.02
-21.16
-23.87
-8.35
17.47
39.42
45.42
32.53
8.73
-11.70
-16.57
-2.90
21.24
41.51
45.76
31.05
5.50
-16.60
-23.06
-10.83
12.18
31.92
36.36
22.42
-2.24
-23.88
-30.66
-19.43
2.36
21.13
25.05
10.93
-13.91
-35.89
-43.03
-31.81
-9.32
11.02
17.32
6.16
-15.40
-33.99
-37.85
-23.79
0.81
22.38
29.11
17.99
-3.54
-21.89
-25.37
-11.08
13.32
34.14
39.65
26.95
3.64
-16.68
-22.29
-10.12
12.36
31.67
36.07
22.52
-1.57
-22.59
-28.64
-16.42
6.78
27.22
32.72
19.73
-4.63
-26.53
-33.60
-22.08
1.00
21.74
27.63
14.84
-9.59
-31.72
-38.98
-27.44
-4.20
16.74
22.71
9.75
-15.12
-37.94
-46.04
-35.31
-12.59
8.40
15.17
3.61
-19.53
-40.65
-47.31
-35.29
-11.17
11.64
20.81
12.17
-7.83
-25.90
-29.82
-15.49
10.53
34.63
44.20
34.82
12.86
-8.13
-15.39
-4.17
19.25
41.30
49.19
38.25
14.93
-7.08
-14.85
-3.76
19.50
40.84
47.17
33.97
8.25
-15.63
-24.32
-13.27
10.43
32.27
38.86
25.64
-0.38
-24.69
-33.90
-23.29
0.42
23.11
31.56
21.09
-1.89
-23.67
-31.39
-20.40
2.91
24.90
32.54
20.98
-3.61
-27.66
-37.96
-29.21
-7.22
14.62
22.92
12.15
-12.22
-36.85
-48.21
-40.32
-18.29
4.79
15.56
8.11
-12.54
-33.41
-41.27
-30.42
-6.16
18.26
29.45
21.74
0.45
-21.13
-29.66
-19.44
4.11
27.76
38.20
29.84
8.15
-13.61
-22.09
-11.65
12.16
35.87
45.88
36.35
12.75
-11.22
-21.62
-12.36
11.13
34.86
44.47
33.57
7.54
-19.35
-32.37
-24.78
-1.85
22.05
31.95
21.04
-5.38
-32.79
-46.14
-38.45
-15.03
9.63
20.49
10.67
-14.52
-40.65
-52.76
-43.92
-19.30
6.88
19.90
12.90
-9.04
-31.98
-41.41
-30.62
-4.63
22.58
36.43
29.97
7.91
-16.11
-27.64
-19.63
3.51
28.37
40.73
33.69
11.73
-11.85
-22.89
-14.42
9.04
33.99
46.01
37.92
14.11
-12.05
-26.02
-20.33
0.93
24.53
36.09
28.28
5.32
-19.61
-32.17
-25.15
-2.92
21.16
32.73
24.76
1.84
-22.56
-34.11
-25.85
-2.53
22.22
33.90
25.49
1.72
-23.73
-36.30
-28.80
-5.69
19.56
32.50
25.98
4.39
-19.04
-30.08
-21.71
1.64
26.72
39.18
31.91
9.19
-15.82
-28.84
-22.57
-0.98
23.07
35.37
28.51
6.18
-18.97
-32.74
-27.48
-6.60
17.55
30.78
25.32
4.26
-20.27
-34.13
-29.40
-9.01
15.07
28.69
23.84
3.24
-21.18
-35.25
-30.78
-10.36
14.19
28.63
24.62
4.53
-19.88
-34.40
-30.51
-10.49
14.05
28.86
25.42
5.87
-18.24
-32.67
-28.79
-8.70
16.09
31.28
28.15
8.63
-15.86
-31.04
-28.07
-8.83
15.31
29.96
26.25
5.98
-19.38
-35.34
-32.81
-13.49
11.21
26.80
24.20
5.01
-19.40
-34.58
-31.42
-11.59
13.53
29.37
26.80
7.40
-17.42
-33.01
-30.00
-9.91
15.81
32.33
30.05
10.22
-15.80
-33.04
-31.66
-12.68
12.71
29.63
28.21
9.35
-15.88
-32.71
-31.33
-12.65
12.28
28.84
27.29
8.63
-16.12
-32.32
-30.23
-10.91
14.52
31.41
30.13
11.87
-12.14
-27.24
-23.94
-3.72
21.78
37.72
34.67
14.32
-11.48
-27.72
-24.87
-4.55
21.36
37.85
35.32
15.21
-10.91
-28.23
-27.12
-8.82
15.44
31.09
28.55
8.93
-16.76
-34.15
-33.67
-16.24
7.26
22.63
20.48
1.79
-22.52
-38.31
-36.22
-17.34
7.23
23.09
20.78
1.49
-23.49
-39.49
-36.89
-16.72
9.62
27.29
26.47
8.16
-16.31
-32.06
-29.24
-8.82
17.82
35.77
35.20
17.09
-7.17
-22.63
-19.36
1.76
29.24
47.91
47.51
28.57
2.26
-16.27
-16.55
1.25
26.37
43.88
43.47
25.24
-0.21
-18.22
-18.61
-1.52
22.56
39.10
38.02
19.45
-6.27
-24.77
-25.98
-9.91
13.29
29.38
28.36
10.16
-15.25
-33.74
-35.22
-19.42
3.87
20.57
20.63
3.75
-20.30
-37.49
-37.70
-20.61
3.95
21.77
22.55
5.87
-18.47
-36.22
-37.00
-20.32
3.99
21.59
22.02
4.86
-19.98
-38.05
-38.85
-21.88
2.94
21.15
22.26
5.78
-18.42
-35.95
-36.30
-18.95
6.34
25.27
27.38
12.10
-10.94
-27.65
-27.74
-10.73
13.67
31.25
31.57
14.03
-11.63
-31.00
-33.27
-17.43
7.11
26.05
28.60
13.66
-9.55
-26.94
-27.88
-11.40
13.07
31.26
32.45
15.63
-9.71
-29.18
-31.80
-16.28
8.10
27.08
29.71
14.62
-9.12
-27.43
-29.46
-13.79
10.53
29.42
31.99
16.76
-7.29
-26.11
-28.73
-13.56
10.46
29.18
31.51
15.75
-9.15
-28.86
-32.01
-16.67
8.35
28.66
32.80
18.78
-4.59
-22.95
-24.82
-8.16
18.08
39.31
43.78
29.24
4.45
-16.09
-20.55
-6.48
17.54
37.08
40.42
25.30
0.46
-19.63
-23.19
-8.06
16.76
36.39
38.78
21.71
-5.66
-28.22
-33.61
-19.42
5.33
25.56
29.02
13.38
-12.37
-33.31
-37.32
-22.12
3.35
24.32
28.75
14.28
-10.43
-30.93
-35.41
-21.41
2.60
22.37
25.97
10.70
-15.27
-37.74
-44.52
-32.35
-8.91
11.95
18.15
6.48
-15.56
-34.25
-37.61
-22.54
3.21
25.66
32.71
21.26
-1.06
-20.27
-24.40
-10.47
13.68
34.10
38.96
25.58
1.98
-17.82
-22.04
-8.06
15.91
35.78
39.69
24.96
-0.29
-21.94
-28.01
-15.58
7.51
27.20
31.40
16.93
-8.62
-31.28
-38.80
-27.72
-5.36
14.33
18.96
4.89
-20.62
-43.57
-51.35
-39.98
-16.50
5.22
12.66
1.89
-20.12
-39.59
-44.19
-30.21
-4.87
17.99
26.11
15.95
-5.15
-23.46
-27.08
-13.10
10.49
29.35
31.39
14.01
-14.19
-38.26
-45.74
-34.13
-12.57
3.49
1.13
-22.17
-56.82
-86.53
-97.61
-86.82
-63.56
-44.40
-43.57
-64.83
-99.10
-129.40
-140.75
-128.45
-100.61
-73.28
-61.16
-69.29
-91.10
-113.22
-123.48
-116.99
-96.38
-66.84
-30.55
15.09
74.22
146.50
223.62
291.82
338.52
359.64
362.07
359.98
366.91
388.69
420.92
449.36
459.18
440.91
393.32
322.24
236.71
145.23
53.50
-35.50
-120.17
-198.40
-267.62
-325.57
-371.13
-404.75
-428.53
-445.36
-457.86
-467.41
-474.12
-475.23
-466.45
-443.46
-403.42
-345.71
-271.66
-183.60
-84.16
22.62
130.73
231.46
314.31
369.58
391.60
381.14
345.50
295.52
242.13
193.42
153.31
122.32
99.55
83.66
73.24
66.68
61.29
53.99
42.34
25.52
5.48
-12.80
-22.28
-16.57
8.06
48.67
96.75
141.08
171.47
182.38
173.91
150.40
115.87
75.32
31.92
-12.62
-55.86
-94.99
-125.38
-141.69
-140.04
-119.90
-84.66
-42.20
-2.41
25.75
36.47
29.84
11.29
-10.87
-29.10
-38.83
-39.97
-35.53
-29.03
-23.16
-19.20
-17.90
-20.05
-26.10
-34.83
-42.99
-45.82
-38.99
-20.99
5.26
32.81
53.60
62.08
57.50
43.24
24.46
5.52
-11.83
-28.08
-44.32
-60.70
-75.91
-87.23
-91.41
-86.17
-71.87
-51.80
-31.88
-18.82
-17.50
-28.80
-49.24
-72.40
-91.41
-101.20
-99.28
-85.42
-60.82
-27.73
10.69
48.89
80.19
98.58
100.45
85.80
57.72
21.27
-18.01
-54.81
-84.64
-104.03
-110.01
-101.03
-77.89
-44.74
-8.87
20.52
35.29
31.50
11.34
-17.36
-44.21
-60.18
-60.79
-46.79
-22.67
5.92
34.08
58.33
75.92
84.18
81.01
65.69
40.02
8.49
-22.82
-47.97
-63.48
-69.03
-67.04
-61.13
-54.32
-47.76
-40.38
-30.14
-15.58
2.65
21.65
37.12
45.24
44.45
36.39
25.54
17.80
18.59
30.97
54.40
84.30
113.06
131.91
133.61
115.24
79.74
35.50
-6.32
-35.92
-48.71
-46.93
-38.55
-33.30
-38.03
-53.62
-74.79
-92.62
-98.46
-87.37
-59.59
-20.28
22.75
61.55
89.86
104.22
104.05
91.07
67.97
37.68
3.50
-30.11
-56.69
-68.37
-57.79
-21.54
36.79
105.65
168.12
207.20
211.83
180.56
121.40
48.37
-23.82
-84.36
-127.78
-153.42
-163.23
-159.41
-143.40
-116.35
-80.31
-39.34
1.07
35.47
60.21
74.36
79.52
78.86
75.42
71.12
66.45
60.92
53.91
45.22
35.55
26.19
18.61
13.93
12.63
14.54
19.07
25.52
33.05
40.88
48.24
54.44
59.14
62.43
64.73
66.56
68.76
71.01
72.20
70.54
63.73
49.37
25.52
-8.44
-50.53
-95.06
-133.51
-157.01
-159.76
-141.80
-109.42
-72.60
-41.07
-20.48
-10.95
-8.67
-8.83
-8.43
-7.08
-5.97
-6.17
-8.15
-12.43
-20.61
-35.41
-58.88
-90.20
-124.69
-155.47
-175.35
-180.35
-171.30
-152.95
-131.20
-110.03
-90.26
-70.48
-49.23
-26.81
-5.67
11.19
22.25
28.72
33.96
41.43
52.43
65.02
74.89
77.66
71.48
58.45
43.79
33.39
30.82
35.54
43.30
48.61
47.59
40.08
29.52
20.90
17.91
20.82
26.40
29.82
27.57
19.57
9.34
2.06
1.46
7.44
15.89
20.86
18.00
7.22
-7.01
-18.02
-20.62
-14.06
-2.43
7.49
9.95
3.44
-8.50
-19.31
-23.01
-17.50
-5.61
6.22
11.14
4.94
-12.38
-37.22
-64.47
-89.72
-110.47
-125.72
-135.05
-137.60
-131.86
-116.29
-90.48
-55.98
-16.32
23.82
60.13
89.63
111.38
126.16
135.68
141.59
144.96
146.09
144.80
140.96
134.77
127.01
118.84
111.27
105.02
100.30
96.92
94.50
92.73
91.42
90.75
90.98
92.24
94.43
97.09
99.52
100.79
100.50
97.48
90.77
79.81
64.45
45.06
22.43
-2.21
-27.42
-51.69
-73.91
-93.11
-108.61
-120.04
-127.21
-130.06
-128.63
-123.14
-114.24
-103.19
-91.41
-80.25
-70.67
-62.98
-56.84
-51.43
-45.87
-39.79
-33.72
-28.63
-25.57
-25.10
-26.92
-30.03
-33.06
-35.17
-34.98
-32.79
-29.66
-26.72
-24.70
-23.97
-25.12
-29.03
-36.24
-46.05
-55.75
-61.20
-59.02
-48.79
-33.69
-19.02
-9.33
-3.76
0.91
8.72
21.54
37.18
50.42
56.40
53.65
44.78
34.53
26.61
22.19
20.10
18.34
15.59
11.88
8.35
6.39
6.81
9.13
12.13
14.30
14.52
12.49
8.77
4.51
0.78
-1.87
-3.70
-5.48
-8.07
-12.11
-17.67
-24.38
-31.52
-38.50
-45.14
-51.72
-58.72
-66.63
-75.75
-85.99
-96.96
-107.90
-118.15
-127.11
-134.33
-139.36
-141.75
-141.05
-136.85
-129.57
-118.96
-104.87
-87.33
-66.58
-43.04
-17.27
10.03
38.11
66.14
93.32
118.69
141.18
159.75
173.42
181.37
183.03
178.09
166.50
148.61
124.85
95.71
61.78
23.73
-17.59
-61.06
-105.54
-149.78
-192.44
-232.31
-268.35
-299.69
-325.55
-345.19
-357.94
-363.22
-360.72
-350.64
-333.95
-312.43
-288.37
-264.12
-241.74
-222.40
-206.31
-192.94
-181.43
-171.18
-162.02
-154.15
-147.81
-142.65
-137.44
-130.19
-118.56
-100.69
-75.76
-44.26
-7.57
32.64
75.31
120.34
168.70
221.86
281.57
349.57
427.06
513.75
606.68
699.55
782.37
844.89
879.81
885.44
866.03
829.74
785.10
737.75
689.31
638.35
582.90
522.24
457.26
389.73
321.00
251.57
181.48
111.15
42.00
-23.36
-81.92
-131.39
-170.91
-201.18
-224.05
-241.72
-255.94
-267.51
-276.17
-281.19
-281.96
-278.47
-271.48
-262.29
-252.26
-242.43
-233.16
-224.19
-214.99
-205.03
-194.13
-182.51
-170.67
-159.16
-148.39
-138.48
-129.28
-120.54
-111.98
-103.50
-95.12
-86.99
-79.27
-72.11
-65.53
-59.52
-54.03
-48.99
-44.34
-40.07
-36.16
-32.59
-29.35
-26.44
-23.72
-21.25
-19.02
-17.04
-15.29
-13.75
-12.39
-11.20
-10.14
-9.22
-8.42
-7.72
-7.10
-6.56
-6.07
-5.63
-5.24
-4.88
-4.55
-4.26
-4.00
-3.77
-3.56
-3.36
-3.17
-3.00
-2.84
-2.69
-2.56
-2.44
-2.33
-2.23
-2.13
-2.04
-1.95
-1.88
-1.80
-1.73
-1.66
-1.60
-1.55
-1.50
-1.45
-1.39
-1.35
-1.31
-1.26
-1.23
-1.19
-1.16
-1.12
-1.09
-1.06
-1.03
-1.00
-0.97
-0.94
-0.92
-0.90
-0.87
-0.85
-0.83
-0.81
-0.79
-0.76
-0.74
-0.72
-0.70
-0.69
-0.67
-0.66
-0.67
-0.68
-0.70
-0.74
-0.78
-0.81
-0.86
-0.89
-0.91
-0.91
-0.90
-0.85
-0.79
-0.71
-0.62
-0.52
-0.42
-0.33
-0.24
-0.18
-0.12
-0.07
-0.04
-0.00
0.03
0.05
0.07
0.08
0.08
0.07
0.07
0.05
0.04
0.05
0.08
0.13
0.18
0.27
0.38
0.53
0.70
0.92
1.18
1.49
1.88
2.30
2.81
3.38
4.02
4.75
5.57
6.47
7.45
8.52
9.57
10.61
11.70
12.85
14.25
16.10
18.68
22.45
27.84
35.04
44.24
55.28
67.65
80.50
92.71
102.85
109.56
111.71
108.55
99.88
86.03
67.85
46.62
24.14
2.06
-18.12
-35.22
-48.53
-57.84
-63.37
-65.94
-65.96
-64.23
-61.51
-58.32
-55.01
-51.76
-48.66
-45.78
-43.14
-40.58
-38.14
-35.85
-33.71
-31.64
-29.62
-27.62
-25.65
-23.78
-22.05
-20.58
-19.39
-18.40
-17.50
-16.54
-15.45
-14.28
-13.17
-12.36
-12.05
-12.24
-12.82
-13.46
-13.89
-13.92
-13.64
-13.30
-13.28
-13.89
-15.17
-16.91
-18.77
-20.42
-21.69
-22.65
-23.45
-24.26
-25.20
-26.38
-28.16
-30.94
-34.79
-39.03
-41.94
-41.31
-35.36
-23.99
-8.95
6.47
18.85
25.97
27.47
24.68
19.31
12.39
3.91
-6.44
-18.43
-30.74
-41.20
-48.02
-50.62
-50.09
-48.52
-47.59
-47.48
-46.93
-44.09
-37.98
-29.33
-20.41
-14.08
-12.67
-16.83
-25.49
-36.96
-49.38
-61.30
-71.92
-79.70
-82.37
-77.38
-62.97
-39.55
-10.85
16.81
36.72
44.32
39.55
27.13
13.98
6.69
9.54
23.68
47.94
79.05
112.25
141.95
162.56
169.68
161.49
139.56
107.88
71.43
34.38
-0.53
-31.54
-57.36
-76.75
-88.51
-91.93
-87.47
-76.14
-59.51
-39.26
-16.91
5.85
27.08
44.84
57.53
63.54
62.66
55.58
44.16
30.85
18.25
8.43
2.51
0.81
2.52
6.95
12.65
18.14
22.14
24.07
23.87
21.64
18.10
14.03
11.37
11.11
13.34
17.33
22.05
26.39
29.20
29.89
28.22
25.85
23.89
22.79
22.25
21.78
20.97
19.34
17.39
5.70
-18.97
-56.26
-102.69
-153.62
-204.58
-250.58
-292.23
-330.11
-364.45
-393.80
-417.31
-433.19
-441.08
-441.48
-435.14
-423.29
-406.25
-384.76
-358.85
-329.42
-297.52
-264.58
-231.59
-198.74
-165.93
-131.72
-95.02
-54.91
-11.97
32.04
74.00
110.08
136.41
149.44
148.27
133.11
105.39
67.17
21.76
-26.77
-73.44
-113.17
-141.78
-153.16
-143.90
-114.64
-69.80
-15.60
42.09
99.20
153.66
204.67
258.47
320.12
389.99
463.53
533.72
594.30
640.95
671.40
684.67
690.38
696.87
706.88
717.33
723.62
723.90
720.36
717.86
721.59
747.83
807.35
899.91
1014.26
1134.08
1244.85
1337.00
1404.94
1371.00
1196.46
895.06
528.38
166.80
-144.60
-391.26
-577.26
-714.31
-814.89
-877.22
-900.40
-889.91
-858.37
-820.38
-787.82
-765.59
-753.24
-747.37
-733.86
-701.23
-645.73
-572.06
-487.63
-401.40
-319.77
-247.64
-189.90
-146.05
-116.34
-101.91
-103.08
-116.88
-136.68
-154.38
-164.73
-166.94
-160.82
-147.85
-130.11
-109.86
-89.39
-70.76
-55.53
-44.97
-39.43
-36.96
-34.86
-30.80
-23.75
-14.33
-4.16
5.13
12.31
17.33
21.15
25.32
31.59
41.02
53.46
67.54
81.53
93.06
100.43
102.53
99.05
90.39
77.15
60.08
39.75
17.48
-5.64
-28.29
-49.47
-68.35
-84.28
-97.18
-107.32
-115.19
-121.25
-127.10
-131.76
-134.55
-134.68
-131.24
-123.59
-111.38
-94.53
-73.54
-49.53
-23.56
2.90
28.47
52.00
72.53
89.25
101.40
108.11
108.59
102.40
89.44
70.12
45.76
18.41
-9.40
-35.30
-57.40
-74.46
-85.87
-91.27
-90.49
-83.04
-68.62
-47.20
-19.68
11.83
44.07
73.17
95.64
109.20
112.97
107.24
93.52
73.40
47.79
16.20
-23.27
-73.62
-134.82
-205.68
-282.49
-358.23
-422.91
-465.80
-478.79
-459.46
-411.97
-346.31
-275.39
-211.18
-161.20
-127.88
-110.24
-105.63
-110.97
-122.11
-135.54
-149.71
-165.86
-185.20
-207.58
-229.59
-245.10
-246.99
-227.74
-184.74
-121.69
-47.99
28.54
102.97
173.84
240.02
299.66
353.02
399.03
435.54
458.82
469.35
468.46
458.31
438.98
409.88
375.40
340.35
308.64
281.30
262.78
256.47
265.67
290.36
302.20
283.25
230.63
192.31
187.67
224.70
286.58
361.79
438.58
506.94
563.58
606.96
602.04
527.46
390.83
219.59
45.76
-110.85
-242.63
-346.21
-422.13
-472.29
-503.85
-519.32
-521.35
-511.85
-494.05
-470.31
-439.54
-399.93
-348.48
-287.03
-219.52
-153.40
-95.32
-50.40
-20.61
-4.15
2.13
1.40
-3.20
-8.07
-11.83
-13.91
-14.90
-15.84
-17.06
-18.85
-21.20
-23.87
-22.76
-19.35
-15.01
-10.88
-8.24
-8.09
-10.90
-16.43
-23.72
-31.29
-38.60
-45.26
-50.97
-56.03
-60.60
-64.13
-64.96
-60.75
-48.52
-25.60
5.53
43.27
85.54
130.34
176.51
223.95
273.16
325.05
380.31
439.68
503.74
571.21
638.01
697.02
739.13
755.94
742.86
701.10
637.41
561.36
481.72
404.29
331.36
263.00
198.64
138.46
83.15
33.08
-13.72
-59.75
-106.49
-153.54
-199.18
-241.39
-278.53
-309.92
-336.02
-361.19
-388.77
-419.56
-451.71
-482.55
-510.08
-533.14
-551.21
-564.53
-579.52
-601.08
-630.16
-663.36
-695.54
-722.02
-739.36
-745.63
-740.50
-731.83
-725.14
-720.48
-712.88
-696.94
-670.69
-636.56
-600.26
-524.89
-397.91
-232.97
-61.65
89.59
211.16
305.40
377.99
433.23
474.08
496.50
500.04
489.51
473.48
459.18
449.78
444.99
443.50
443.69
438.82
424.61
400.65
369.90
335.33
298.46
259.68
219.91
181.80
144.62
108.37
74.60
45.93
24.10
9.23
0.25
-4.27
-5.67
-6.79
-9.57
-14.53
-20.78
-27.38
-33.55
-38.53
-41.85
-43.21
-43.53
-43.93
-45.29
-47.84
-51.68
-56.50
-61.69
-66.73
-71.19
-75.51
-80.51
-88.64
-98.99
-110.22
-119.97
-125.22
-123.35
-112.75
-93.73
-68.27
-39.53
-10.96
13.61
30.73
38.02
34.94
23.62
8.59
-3.88
-9.26
-6.52
0.87
6.92
6.41
-2.71
-18.46
-36.37
-52.19
-63.58
-70.50
-74.24
-75.93
-75.39
-71.78
-64.61
-54.43
-42.86
-31.97
-23.59
-18.55
-16.59
-16.29
-16.26
-15.83
-15.17
-15.19
-17.01
-21.40
-28.53
-37.96
-48.33
-58.54
-67.89
-76.10
-83.04
-88.43
-91.49
-90.62
-88.25
-84.64
-79.89
-74.04
-67.08
-58.82
-48.91
-36.81
-22.16
-5.00
14.73
36.38
58.99
81.66
103.94
125.97
148.40
172.13
197.82
226.10
256.47
287.37
316.38
340.90
358.74
368.99
372.34
370.82
367.40
364.49
363.17
362.94
362.22
359.40
353.86
346.41
338.62
331.89
326.16
319.74
310.01
294.61
272.39
243.51
208.84
168.98
123.87
72.96
16.08
-45.62
-109.15
-170.14
-224.01
-267.09
-297.64
-316.07
-324.75
-327.56
-329.51
-336.12
-352.55
-382.13
-424.64
-475.37
-525.79
-566.02
-588.24
-589.51
-572.23
-542.46
-506.60
-468.72
-429.62
-388.07
-342.78
-293.96
-243.35
-192.79
-143.15
-93.79
-43.55
7.94
59.55
109.02
153.84
192.35
224.03
249.04
267.51
279.31
284.35
283.36
278.26
271.67
265.90
261.93
259.07
255.65
250.15
242.07
232.16
221.68
211.84
203.34
196.40
190.97
187.08
184.82
184.20
185.07
186.91
189.18
191.36
193.13
194.36
195.21
196.19
198.08
201.80
207.80
216.14
226.33
237.39
247.83
255.81
259.16
255.47
242.37
217.60
180.55
132.81
78.20
21.68
-31.77
-78.20
-114.98
-141.14
-158.37
-169.01
-175.22
-178.59
-180.49
-182.73
-187.21
-195.42
-207.98
-226.35
-250.30
-277.39
-303.41
-324.15
-336.89
-341.00
-337.51
-328.01
-316.62
-306.20
-297.49
-289.36
-281.05
-273.84
-271.40
-278.57
-281.82
-271.66
-245.51
-209.97
-174.74
-145.63
-122.39
-99.89
-71.38
-31.31
19.22
74.49
126.50
168.77
198.73
217.65
228.76
234.18
233.25
220.29
189.91
141.35
81.05
21.51
-23.47
-43.41
-35.22
-3.49
40.30
84.01
119.41
143.91
158.76
165.26
162.54
147.06
116.01
69.64
13.88
-40.95
-84.50
-110.66
-121.78
-122.31
-118.23
-113.50
-108.98
-102.96
-93.50
-80.23
-64.87
-50.29
-38.57
-30.62
-25.57
-21.53
-16.89
-11.44
-6.40
-3.79
-5.22
-10.52
-18.08
-24.88
-28.08
-26.29
-20.29
-13.14
-8.93
-11.56
-22.80
-41.32
-62.34
-78.76
-83.48
-71.99
-43.96
-3.56
41.93
84.74
118.72
140.69
150.64
151.31
146.00
139.59
136.42
137.90
141.07
139.06
124.18
92.25
45.52
-7.78
-57.21
-95.28
-120.68
-137.43
-151.19
-165.32
-179.34
-190.47
-196.62
-198.25
-198.03
-198.75
-200.61
-201.00
-196.24
-184.30
-166.43
-146.91
-130.70
-121.25
-119.27
-122.81
-128.47
-132.44
-131.71
-125.42
-115.97
-109.26
-113.33
-134.83
-175.23
-228.60
-282.85
-324.39
-343.80
-339.60
-317.92
-288.56
-259.85
-235.36
-213.88
-192.05
-167.58
-141.06
-115.18
-92.85
-75.20
-61.02
-47.37
-31.17
-10.57
14.20
41.12
67.39
90.70
110.19
126.78
142.65
160.36
181.83
207.85
238.16
271.59
306.18
339.03
366.42
384.60
391.45
388.02
379.27
372.91
376.27
392.87
420.24
450.51
473.33
480.00
466.34
433.45
386.69
333.54
281.88
238.67
208.73
193.75
191.69
197.34
203.85
205.06
197.08
179.23
153.25
122.21
89.48
58.35
32.25
14.75
9.40
18.73
43.58
82.32
130.62
182.06
229.12
264.80
284.52
287.34
275.92
255.19
230.05
203.53
176.47
148.60
120.22
93.30
70.83
54.96
45.39
39.15
32.28
22.41
10.21
-1.29
-9.12
-12.83
-15.25
-20.60
-31.91
-48.98
-68.79
-87.58
-102.99
-114.91
-124.86
-134.75
-145.92
-159.19
-175.01
-193.29
-212.85
-231.18
-244.57
-249.39
-243.38
-226.85
-203.07
-177.47
-156.25
-144.63
-144.99
-155.79
-171.84
-186.03
-192.09
-187.50
-174.80
-160.91
-154.91
-164.67
-193.98
-240.87
-297.87
-353.79
-396.87
-418.12
-413.69
-385.30
-338.35
-279.62
-215.42
-151.02
-91.31
-41.35
-5.68
13.33
17.18
11.61
4.58
3.11
10.33
24.46
40.41
52.65
58.36
58.65
57.78
60.70
70.62
87.72
109.65
133.02
155.20
174.96
191.85
205.05
212.78
212.92
204.50
188.94
170.13
153.14
142.14
138.99
142.90
151.23
160.80
168.76
172.91
171.62
163.78
148.87
127.15
99.75
68.54
36.08
5.53
-19.68
-36.45
-42.96
-39.48
-28.69
-14.76
-1.98
6.88
11.18
12.16
12.04
12.96
16.33
22.61
31.49
41.85
51.99
59.61
62.30
58.06
46.04
27.19
4.39
-17.82
-34.54
-42.39
-41.14
-34.09
-26.61
-23.53
-26.51
-33.54
-40.64
-44.90
-46.38
-47.93
-52.90
-62.68
-75.63
-88.04
-96.60
-100.02
-99.51
-97.46
-95.83
-95.19
-94.71
-93.04
-88.97
-82.17
-73.54
-65.18
-59.82
-59.65
-65.11
-74.12
-82.54
-85.77
-80.63
-66.51
-45.30
-20.30
5.51
30.58
55.19
80.90
109.42
141.17
174.38
205.00
227.68
237.88
233.52
216.26
191.11
164.94
144.46
134.36
136.33
148.67
167.11
186.23
201.53
211.00
215.34
216.71
216.67
214.43
207.02
191.13
165.28
131.18
93.12
55.77
22.12
-7.84
-36.83
-68.79
-106.65
-150.59
-196.79
-237.90
-265.61
-273.94
-262.82
-239.23
-215.08
-202.48
-208.59
-233.05
-268.72
-305.51
-334.30
-349.54
-349.44
-335.31
-310.95
-282.09
-255.62
-237.24
-229.16
-228.61
-229.27
-224.57
-211.23
-190.79
-168.15
-148.39
-133.70
-122.70
-111.81
-98.37
-82.80
-68.65
-61.18
-64.70
-80.95
-108.39
-142.76
-178.19
-208.46
-228.39
-234.80
-227.08
-206.71
-176.70
-140.31
-100.49
-59.73
-20.04
17.18
51.23
81.97
109.18
131.71
147.35
153.55
148.91
134.56
114.37
93.86
78.19
70.83
73.05
84.09
101.88
123.39
145.01
163.14
175.08
179.68
177.30
168.71
154.25
133.81
107.97
79.71
54.25
37.27
31.86
37.19
49.23
63.94
80.15
99.98
126.44
159.68
195.06
224.73
241.91
245.12
239.49
233.77
234.95
243.90
254.68
257.50
244.21
212.06
164.28
107.50
48.19
-9.69
-64.49
-114.86
-158.14
-189.97
-205.96
-204.35
-187.51
-161.80
-135.78
-117.23
-110.64
-116.07
-129.64
-145.58
-158.64
-165.65
-165.95
-160.37
-149.95
-135.15
-116.20
-94.07
-71.30
-51.59
-38.37
-33.26
-35.17
-40.98
-47.12
-51.19
-52.53
-51.62
-48.83
-43.78
-35.57
-23.85
-9.65
4.52
15.76
22.18
23.93
23.23
23.32
26.79
34.30
43.84
50.82
49.05
32.48
-2.51
-54.86
-117.72
-179.60
-227.58
-251.60
-247.74
-219.07
-173.80
-121.98
-72.16
-29.71
3.28
27.16
43.75
55.97
67.26
80.81
98.25
118.79
139.21
155.07
162.72
160.51
149.21
131.30
109.72
86.96
64.85
44.62
26.99
12.32
0.25
-10.44
-21.68
-35.67
-54.48
-79.81
-112.82
-153.94
-202.12
-254.32
-305.34
-348.51
-377.19
-386.59
-375.23
-345.37
-302.39
-253.44
-205.83
-165.74
-137.42
-123.14
-123.26
-136.58
-160.72
-192.38
-227.52
-261.50
-289.33
-306.12
-307.82
-291.93
-258.07
-208.03
-145.21
-73.78
2.12
79.15
154.96
228.16
298.31
365.77
431.32
495.13
555.44
607.77
645.35
661.15
650.83
615.02
559.88
495.16
431.05
375.14
330.89
298.07
274.48
257.73
246.07
238.26
232.82
227.54
219.66
206.68
187.21
161.42
131.23
99.53
69.26
42.57
20.44
2.88
-10.64
-20.57
-27.10
-30.15
-30.00
-27.53
-24.52
-23.33
-26.03
-33.71
-45.94
-61.09
-77.24
-93.53
-110.87
-131.79
-159.19
-194.56
-236.82
-282.20
-325.37
-361.11
-385.83
-398.09
-398.34
-387.99
-368.64
-341.77
-308.72
-270.90
-229.81
-186.87
-143.28
-100.42
-60.59
-27.71
-6.74
-1.63
-12.66
-34.69
-57.75
-70.21
-63.47
-35.83
6.92
54.53
97.45
131.35
158.71
186.61
222.05
267.51
319.06
367.57
402.34
414.97
401.95
365.43
311.98
250.41
189.46
136.33
95.58
69.06
56.08
53.95
58.89
66.78
74.15
79.01
81.42
83.34
87.98
98.52
116.51
140.44
165.35
183.85
188.26
173.57
139.68
92.30
41.74
-0.01
-23.08
-23.02
-1.97
32.38
69.81
101.19
121.10
128.37
124.81
113.39
96.78
77.21
56.95
38.63
24.63
15.79
10.30
3.90
-8.40
-30.00
-60.77
-96.98
-132.82
-162.94
-184.40
-197.29
-204.04
-207.93
-211.57
-215.99
-220.36
-222.42
-219.28
-208.71
-190.10
-164.96
-136.38
-107.83
-81.64
-57.91
-34.58
-8.35
23.72
62.62
106.49
150.74
189.10
215.42
225.54
218.74
197.96
168.99
138.60
112.14
92.13
77.60
64.51
47.18
20.09
-19.90
-71.62
-128.78
-180.95
-216.54
-226.96
-210.53
-173.76
-129.32
-91.05
-68.41
-63.31
-70.59
-81.63
-88.99
-89.21
-82.84
-72.47
-60.59
-48.67
-37.56
-28.14
-21.07
-16.11
-11.44
-4.58
5.85
18.19
27.77
29.24
19.83
1.78
-17.94
-30.63
-29.78
-13.95
12.95
43.98
72.44
94.39
109.35
119.22
126.38
132.24
136.77
139.13
138.87
136.65
134.23
133.45
134.90
137.37
138.38
135.57
127.96
116.73
104.70
94.86
89.02
86.74
85.19
80.29
68.21
47.10
18.25
-13.94
-43.23
-63.64
-71.55
-67.04
-53.58
-36.53
-20.97
-9.85
-3.26
0.84
5.45
12.81
23.53
36.29
48.21
55.74
55.63
45.62
24.65
-7.00
-47.47
-92.66
-135.86
-168.24
-180.84
-167.63
-128.38
-69.51
-2.06
62.47
116.20
156.60
185.14
204.17
214.20
213.74
201.39
178.22
148.55
118.49
93.39
76.20
67.49
66.63
73.01
85.96
103.47
121.13
132.63
131.98
116.12
86.39
47.68
6.27
-32.56
-65.49
-90.47
-105.72
-109.31
-100.05
-78.98
-50.79
-23.47
-6.41
-7.09
-28.41
-67.57
-117.94
-171.90
-224.01
-272.33
-317.77
-362.17
-406.50
-450.05
-491.00
-526.94
-555.14
-572.33
-574.76
-559.26
-524.87
-474.55
-414.87
-354.10
-299.05
-252.91
-215.11
-182.96
-154.08
-127.60
-104.13
-84.17
-66.80
-49.31
-28.29
-0.60
35.39
79.53
129.38
179.94
223.70
251.88
257.09
236.42
193.56
138.57
84.90
44.89
25.88
28.74
49.11
80.58
117.65
157.26
198.55
241.26
284.23
324.55
358.27
381.70
392.70
391.52
380.03
360.46
334.24
301.74
263.43
221.29
179.66
144.35
120.57
110.57
112.61
121.88
132.84
141.75
147.42
150.57
151.97
151.05
145.80
134.24
116.19
94.04
72.15
54.64
43.70
38.40
35.34
30.19
19.55
2.19
-20.71
-46.28
-70.68
-90.09
-101.55
-103.89
-98.45
-89.76
-84.90
-91.55
-114.67
-153.60
-200.81
-244.05
-271.06
-274.87
-257.45
-229.42
-206.07
-201.10
-220.88
-261.81
-311.65
-354.49
-376.58
-371.19
-339.97
-291.22
-235.95
-183.79
-140.34
-106.74
-81.46
-62.19
-47.17
-34.77
-23.04
-10.21
3.52
13.97
12.93
-8.85
-56.53
-126.90
-207.18
-278.83
-324.85
-337.28
-320.33
-287.77
-255.79
-235.30
-227.68
-225.88
-219.61
-201.10
-168.15
-123.67
-72.44
-18.01
38.62
97.68
158.37
217.54
270.06
311.63
341.07
361.18
377.33
394.68
415.45
437.93
457.42
468.62
468.25
456.58
437.45
416.90
401.10
394.29
397.85
410.38
428.48
448.17
465.93
479.30
486.66
486.81
478.95
463.04
440.26
412.71
382.34
349.64
313.13
269.90
217.50
155.88
88.12
19.58
-44.08
-98.99
-144.11
-180.84
-211.90
-240.08
-267.58
-295.77
-324.69
-353.01
-377.65
-394.49
-399.39
-389.57
-365.56
-331.47
-294.35
-262.09
-240.66
-232.40
-235.48
-245.18
-255.83
-262.74
-263.05
-255.71
-240.76
-218.95
-191.51
-160.31
-127.97
-97.46
-71.40
-51.19
-36.83
-27.19
-20.97
-17.16
-15.08
-14.06
-12.39
-6.84
7.28
34.66
78.14
137.51
209.08
287.02
364.91
437.02
498.85
546.54
576.79
587.31
577.57
549.33
506.30
452.69
391.73
324.67
250.69
167.91
74.83
-28.14
-137.51
-246.28
-345.04
-423.85
-475.52
-498.17
-496.04
-477.92
-453.85
-431.25
-412.71
-396.02
-376.28
-348.84
-311.79
-266.81
-218.05
-170.15
-126.21
-87.37
-53.52
-24.67
-1.88
12.68
16.81
9.68
-7.51
-31.63
-58.69
-84.94
-107.14
-122.28
-127.30
-119.29
-96.93
-61.86
-19.15
23.83
59.72
83.64
94.33
93.61
84.65
69.96
50.20
24.55
-7.48
-44.19
-80.84
-110.19
-124.66
-119.24
-93.48
-52.15
-3.84
41.84
77.20
98.71
107.12
105.95
99.06
88.60
74.45
55.05
28.97
-3.82
-41.84
-82.28
-121.38
-154.81
-177.64
-185.15
-174.07
-143.95
-98.20
-43.97
9.41
52.84
79.68
87.13
76.16
50.87
17.64
-16.04
-42.88
-57.32
-57.25
-44.67
-24.93
-4.55
11.31
20.78
25.21
27.60
30.44
34.15
37.10
37.17
33.59
27.73
22.59
20.85
23.25
28.14
32.33
32.89
28.45
19.45
7.24
-6.59
-20.48
-32.52
-40.04
-40.16
-31.06
-13.63
7.99
27.63
39.61
41.31
34.18
22.82
12.42
6.33
4.96
6.23
7.36
6.48
3.51
-0.14
-2.56
-2.57
-0.31
2.83
4.95
4.65
1.71
-2.90
-7.65
-11.31
-13.69
-15.58
-18.08
-21.90
-26.74
-31.39
-34.34
-34.46
-31.40
-25.68
-18.44
-11.06
-5.04
-1.66
-1.59
-4.75
-10.23
-16.57
-22.37
-26.85
-30.16
-33.31
-37.70
-44.59
-54.78
-68.47
-85.03
-102.95
-119.72
-132.30
-138.02
-135.90
-127.50
-116.69
-108.46
-107.15
-115.16
-132.54
-157.77
-188.65
-222.96
-258.24
-290.97
-316.39
-329.34
-326.21
-306.53
-273.65
-233.51
-192.32
-154.29
-120.23
-87.85
-53.30
-12.87
35.82
93.63
159.70
231.07
302.25
365.50
412.27
436.14
436.13
418.06
393.03
373.08
366.23
373.22
387.98
401.03
404.27
393.91
370.56
337.22
297.27
253.68
209.71
169.58
138.19
119.47
114.59
120.89
132.84
144.11
149.70
146.94
134.97
114.05
85.01
49.46
10.37
-27.98
-60.74
-84.19
-96.94
-100.12
-96.56
-89.63
-81.96
-75.03
-69.33
-64.94
-62.16
-61.75
-64.66
-71.37
-81.30
-92.61
-102.57
-108.57
-109.06
-104.23
-95.86
-86.42
-77.86
-70.73
-64.10
-56.38
-46.56
-35.06
-23.87
-15.72
-12.87
-16.09
-24.31
-34.94
-44.79
-51.00
-51.82
-46.93
-37.30
-24.83
-11.83
-0.41
7.85
12.24
12.78
10.14
5.30
-0.67
-6.74
-12.12
-16.24
-18.84
-19.90
-19.52
-17.76
-14.68
-10.39
-5.26
0.02
4.62
7.89
9.57
9.88
9.35
8.41
7.19
5.55
3.42
1.07
-0.83
-1.58
-0.82
1.13
3.45
5.20
5.90
5.83
5.84
6.86
9.41
13.35
17.94
22.17
25.13
26.21
25.10
21.76
16.40
9.54
2.01
-5.06
-10.61
-14.01
-15.31
-15.39
-15.53
-17.01
-20.38
-25.32
-30.62
-34.76
-36.40
-34.86
-30.34
-23.73
-16.27
-9.10
-3.12
1.19
3.67
4.39
3.56
1.42
-1.80
-5.87
-10.42
-14.92
-18.66
-20.94
-21.33
-19.69
-16.32
-11.78
-6.69
-1.51
3.38
7.60
10.74
12.24
11.71
9.04
4.58
-0.89
-6.44
-11.17
-14.47
-16.04
-15.96
-14.51
-12.12
-9.24
-6.21
-3.27
-0.48
2.17
4.69
6.98
8.86
10.05
10.33
9.60
7.80
5.03
1.38
-2.93
-7.52
-11.85
-15.24
-17.07
-17.01
-15.17
-12.06
-8.43
-5.06
-2.48
-0.89
-0.24
-0.32
-0.86
-1.55
-2.02
-1.79
-0.34
2.77
7.53
13.45
19.50
24.51
27.56
28.41
27.52
25.88
24.61
24.36
25.17
26.51
27.48
27.21
25.16
21.24
15.84
9.76
3.87
-1.04
-4.50
-6.46
-7.19
-7.16
-6.71
-6.03
-5.13
-4.08
-3.17
-2.95
-4.15
-7.32
-12.44
-18.74
-24.84
-29.25
-30.99
-30.08
-27.59
-25.29
-24.87
-27.29
-32.28
-38.50
-44.23
-48.17
-49.96
-50.18
-49.73
-49.21
-48.70
-48.31
-48.44
-50.07
-53.85
-59.03
-62.65
-60.53
-49.89
-31.79
-11.61
3.58
8.90
4.26
-5.88
-15.20
-19.00
-15.82
-6.63
7.55
27.48
55.46
93.26
139.81
190.52
238.75
278.27
305.26
318.83
320.06
310.73
292.52
266.84
234.67
196.96
154.74
109.56
63.43
18.70
-22.31
-57.78
-86.52
-108.19
-122.96
-131.26
-133.31
-129.05
-118.46
-102.14
-81.94
-61.32
-44.82
-36.44
-37.71
-46.40
-57.08
-63.56
-62.39
-55.41
-49.38
-52.90
-71.25
-102.83
-138.85
-166.95
-176.54
-162.60
-126.76
-75.24
-16.19
42.26
92.20
125.73
135.70
118.38
76.46
20.09
-35.17
-73.21
-82.71
-60.63
-12.18
51.90
119.36
180.15
228.12
261.18
280.03
286.50
282.07
267.28
242.29
207.60
165.08
117.99
70.49
26.41
-12.13
-44.70
-72.01
-94.73
-112.80
-125.42
-131.82
-132.06
-127.61
-121.39
-117.38
-120.21
-134.13
-161.65
-201.93
-249.88
-297.01
-333.69
-352.22
-349.15
-325.63
-286.43
-238.39
-189.21
-146.94
-119.00
-110.37
-121.13
-145.07
-170.80
-185.50
-179.86
-151.66
-106.13
-52.90
-1.55
41.90
76.30
104.39
130.74
159.32
191.94
227.09
259.76
282.40
287.32
269.12
227.20
166.77
97.82
33.40
-13.93
-35.33
-27.89
5.26
55.32
110.51
159.46
193.79
211.15
214.88
211.73
208.98
212.53
224.03
241.07
258.92
272.04
278.32
279.55
279.94
283.80
293.64
307.14
318.04
319.28
305.01
275.46
236.11
194.68
149.43
99.56
44.19
-15.88
-68.03
-106.70
-128.84
-133.64
-126.45
-113.87
-102.36
-98.26
-106.11
-127.43
-162.74
-209.23
-262.15
-315.77
-363.60
-398.75
-416.67
-416.32
-399.92
-373.40
-342.09
-308.96
-274.04
-235.12
-189.68
-137.28
-83.69
-36.13
-3.08
10.01
2.36
-22.22
-56.07
-89.90
-115.99
-130.55
-133.85
-130.43
-125.51
-122.29
-120.69
-117.40
-109.20
-95.82
-81.47
-72.59
-75.31
-91.00
-115.22
-140.45
-159.79
-169.78
-170.85
-165.17
-153.78
-136.63
-112.26
-78.45
-33.80
21.47
85.57
155.71
228.84
303.01
375.10
440.02
490.65
519.44
521.09
495.03
445.83
375.54
291.19
201.46
114.63
37.25
-26.16
-72.60
-100.37
-109.98
-104.94
-90.78
-74.81
-64.16
-63.19
-71.03
-83.23
-93.01
-93.98
-82.50
-58.23
-24.50
12.77
47.37
74.71
93.05
104.32
113.43
126.91
149.14
182.06
222.15
260.08
283.09
279.32
242.61
174.91
85.58
-11.64
-102.82
-177.45
-229.84
-258.63
-265.83
-255.58
-233.54
-205.98
-178.72
-155.95
-139.71
-129.75
-124.06
-119.75
-114.06
-105.30
-93.34
-79.55
-66.24
-55.88
-50.07
-48.80
-50.49
-52.66
-52.87
-49.75
-43.32
-34.75
-25.80
-18.10
-12.70
-9.92
-9.58
-10.97
-13.06
-14.65
-14.61
-12.27
-7.75
-1.97
3.74
8.16
10.73
11.66
11.69
11.58
11.77
12.19
12.45
12.18
11.29
9.97
8.58
7.38
6.44
5.62
4.72
3.63
2.45
1.37
0.63
0.33
0.40
0.63
0.72
0.38
-0.52
-1.98
-3.88
-5.98
-8.12
-10.11
-11.76
-12.84
-13.03
-12.03
-9.78
-6.52
-2.77
0.78
3.55
5.26
5.89
5.55
4.38
2.42
-0.16
-2.98
-5.42
-6.82
-6.74
-5.26
-2.96
-0.71
0.70
0.90
0.04
-1.42
-2.88
-3.88
-4.25
-4.12
-3.79
-3.57
-3.65
-4.03
-4.69
-5.53
-6.53
-7.69
-8.96
-10.10
-10.79
-10.67
-9.49
-7.29
-4.32
-1.04
2.06
4.63
6.47
7.55
7.94
7.78
7.26
6.62
6.01
5.56
5.24
5.01
4.78
4.56
4.42
4.47
4.76
5.21
5.61
5.72
5.38
4.60
3.53
2.42
1.45
0.72
0.18
-0.29
-0.81
-1.41
-2.05
-2.65
-3.17
-3.63
-4.11
-4.65
-5.25
-5.87
-6.42
-6.89
-7.30
-7.69
-8.03
-8.17
-7.83
-6.80
-4.97
-2.45
0.44
3.28
5.74
7.59
8.78
9.33
9.30
8.80
7.91
6.76
5.53
4.43
3.61
3.18
3.09
3.21
3.39
3.48
3.42
3.25
3.10
3.04
3.13
3.28
3.37
3.27
2.91
2.27
1.39
0.33
-0.84
-2.00
-2.99
-3.74
-4.23
-4.61
-5.14
-5.99
-7.25
-8.71
-10.00
-10.64
-10.28
-8.76
-6.21
-2.94
0.54
3.78
6.40
8.23
9.29
9.71
9.68
9.28
8.58
7.59
6.37
5.13
4.10
3.45
3.16
3.11
3.07
2.87
2.47
1.97
1.52
1.24
1.17
1.27
1.45
1.61
1.68
1.59
1.33
0.91
0.38
-0.14
-0.55
-0.76
-0.79
-0.73
-0.78
-1.14
-1.95
-3.20
-4.70
-6.16
-7.23
-7.60
-7.07
-5.60
-3.30
-0.51
2.40
5.01
6.96
8.13
8.57
8.50
8.12
7.58
6.93
6.20
5.44
4.76
4.29
4.07
4.03
4.02
3.90
3.63
3.27
2.91
2.59
2.27
1.87
1.34
0.76
0.26
-0.02
-0.02
0.20
0.47
0.64
0.59
0.22
-0.45
-1.41
-2.59
-3.89
-5.17
-6.28
-7.17
-7.84
-8.40
-8.96
-9.58
-10.16
-10.54
-10.45
-9.67
-8.10
-5.72
-2.77
0.39
3.37
5.80
7.43
8.21
8.22
7.64
6.74
5.74
4.83
4.12
3.66
3.41
3.30
3.29
3.27
3.24
3.14
2.96
2.72
2.40
2.01
1.56
1.06
0.50
-0.04
-0.54
-0.96
-1.27
-1.49
-1.67
-1.82
-1.93
-1.98
-1.96
-1.92
-1.97
-2.24
-2.77
-3.54
-4.42
-5.33
-6.21
-7.03
-7.71
-8.17
-8.24
-7.72
-6.51
-4.56
-2.04
0.76
3.53
5.95
7.73
8.77
9.03
8.57
7.58
6.28
4.92
3.73
2.85
2.36
2.25
2.45
2.84
3.33
3.80
4.15
4.26
4.09
3.65
3.07
2.50
1.98
1.47
0.83
-0.09
-1.28
-2.56
-3.69
-4.46
-4.86
-5.08
-5.32
-5.77
-6.39
-6.99
-7.35
-7.38
-7.14
-6.78
-6.41
-6.02
-5.44
-4.49
-3.06
-1.20
0.88
2.91
4.60
5.79
6.43
6.55
6.22
5.53
4.54
3.32
1.99
0.70
-0.37
-1.05
-1.26
-1.04
-0.53
0.11
0.67
1.07
1.30
1.39
1.46
1.54
1.64
1.68
1.59
1.25
0.66
-0.10
-0.93
-1.71
-2.34
-2.76
-2.97
-3.02
-3.05
-3.22
-3.68
-4.50
-5.55
-6.54
-7.04
-6.69
-5.31
-3.04
-0.22
2.69
5.27
7.26
8.55
9.12
9.06
8.42
7.30
5.86
4.27
2.72
1.40
0.39
-0.29
-0.68
-0.87
-0.97
-1.06
-1.19
-1.34
-1.47
-1.53
-1.50
-1.40
-1.27
-1.16
-1.07
-1.02
-1.05
-1.16
-1.36
-1.62
-1.88
-2.09
-2.24
-2.36
-2.57
-2.97
-3.59
-4.38
-5.13
-5.62
-5.62
-4.99
-3.71
-1.91
0.21
2.36
4.31
5.81
6.74
7.10
6.92
6.31
5.41
4.30
3.04
1.73
0.44
-0.62
-1.28
-1.49
-1.29
-0.87
-0.39
-0.00
0.27
0.47
0.64
0.77
0.79
0.64
0.24
-0.37
-1.12
-1.91
-2.63
-3.17
-3.48
-3.53
-3.37
-3.12
-2.92
-2.87
-3.01
-3.34
-3.80
-4.29
-4.68
-4.79
-4.44
-3.48
-1.88
0.23
2.51
4.58
6.08
6.90
7.06
6.78
6.24
5.53
4.61
3.44
2.07
0.65
-0.53
-1.21
-1.32
-0.92
-0.23
0.46
0.96
1.18
1.13
0.89
0.53
0.13
-0.25
-0.57
-0.80
-0.97
-1.13
-1.34
-1.66
-2.11
-2.62
-3.11
-3.50
-3.71
-3.78
-3.75
-3.72
-3.76
-3.97
-4.37
-4.95
-5.60
-6.12
-6.23
-5.70
-4.40
-2.38
0.05
2.46
4.42
5.62
5.96
5.56
4.69
3.66
2.74
2.04
1.60
1.32
1.16
1.08
1.05
1.13
1.27
1.43
1.54
1.59
1.57
1.54
1.58
1.66
1.70
1.59
1.26
0.68
-0.00
-0.71
-1.34
-1.90
-2.44
-3.00
-3.56
-3.99
-4.21
-4.19
-4.01
-3.83
-3.80
-3.99
-4.33
-4.67
-4.78
-4.47
-3.65
-2.33
-0.65
1.14
2.78
4.08
4.98
5.48
5.66
5.58
5.23
4.59
3.63
2.44
1.23
0.23
-0.41
-0.65
-0.59
-0.41
-0.26
-0.14
0.00
0.24
0.59
1.01
1.36
1.54
1.51
1.28
0.90
0.38
-0.31
-1.22
-2.32
-3.54
-4.69
-5.57
-6.09
-6.22
-6.07
-5.80
-5.58
-5.50
-5.60
-5.79
-5.87
-5.66
-4.97
-3.77
-2.16
-0.37
1.33
2.68
3.59
4.08
4.21
4.13
3.91
3.57
3.12
2.56
1.93
1.29
0.74
0.38
0.30
0.49
0.89
1.41
1.89
2.20
2.27
2.05
1.58
0.91
0.11
-0.74
-1.51
-2.13
-2.48
-2.52
-2.28
-1.90
-1.52
-1.29
-1.29
-1.47
-1.75
-2.04
-2.36
-2.71
-3.11
-3.53
-3.81
-3.78
-3.29
-2.34
-1.03
0.43
1.87
3.18
4.40
5.58
6.74
7.74
8.40
8.48
7.87
6.62
4.96
3.22
1.72
0.65
0.06
-0.12
-0.07
0.06
0.14
0.16
0.14
0.19
0.36
0.60
0.82
0.91
0.77
0.37
-0.23
-0.91
-1.56
-2.11
-2.56
-2.97
-3.41
-3.91
-4.41
-4.89
-5.34
-5.85
-6.52
-7.43
-8.46
-9.33
-9.67
-9.22
-7.96
-6.17
-4.25
-2.60
-1.41
-0.66
-0.22
0.07
0.27
0.33
0.21
-0.08
-0.35
-0.39
-0.07
0.62
1.53
2.45
3.18
3.63
3.81
3.83
3.77
3.70
3.58
3.27
2.67
1.70
0.38
-1.14
-2.64
-3.91
-4.85
-5.46
-5.90
-6.29
-6.73
-7.21
-7.69
-8.14
-8.57
-8.94
-9.19
-9.17
-8.64
-7.42
-5.48
-3.03
-0.40
1.97
3.78
4.90
5.45
5.60
5.51
5.24
4.76
4.02
3.06
2.05
1.24
0.85
0.95
1.46
2.20
2.94
3.56
3.98
4.19
4.19
3.94
3.43
2.72
1.89
1.02
0.19
-0.56
-1.22
-1.79
-2.24
-2.55
-2.69
-2.72
-2.76
-2.91
-3.34
-4.10
-5.20
-6.44
-7.58
-8.26
-8.18
-7.20
-5.29
-2.69
0.23
3.05
5.41
7.05
7.88
8.00
7.55
6.75
5.76
4.68
3.63
2.73
2.15
1.99
2.28
2.86
3.48
3.85
3.85
3.53
3.05
2.63
2.45
2.49
2.64
2.72
2.55
2.06
1.23
0.13
-1.13
-2.42
-3.63
-4.73
-5.70
-6.62
-7.59
-8.72
-10.03
-11.45
-12.71
-13.47
-13.39
-12.26
-10.07
-7.06
-3.67
-0.37
2.43
4.47
5.65
6.02
5.75
5.06
4.20
3.34
2.58
1.96
1.49
1.17
1.02
1.07
1.30
1.69
2.17
2.67
3.09
3.31
3.23
2.78
1.94
0.75
-0.66
-2.15
-3.56
-4.81
-5.88
-6.82
-7.70
-8.62
-9.76
-11.17
-12.86
-14.59
-15.96
-16.51
-15.85
-13.87
-10.72
-6.81
-2.65
1.28
4.56
6.89
8.13
8.34
7.68
6.47
5.06
3.76
2.73
2.09
1.84
1.98
2.48
3.21
4.10
4.96
5.68
6.17
6.34
6.14
5.49
4.34
2.71
0.76
-1.28
-3.13
-4.54
-5.45
-5.96
-6.31
-6.85
-7.86
-9.42
-11.39
-13.45
-15.16
-16.05
-15.83
-14.38
-11.79
-8.36
-4.45
-0.45
3.26
6.38
8.70
10.11
10.65
10.52
9.95
9.20
8.47
7.84
7.32
6.87
6.48
6.19
6.10
6.23
6.56
6.97
7.30
7.39
7.12
6.46
5.45
4.20
2.75
1.19
-0.39
-1.93
-3.34
-4.60
-5.74
-6.87
-8.12
-9.58
-11.18
-12.68
-13.73
-13.87
-12.82
-10.52
-7.18
-3.26
0.75
4.45
7.66
10.32
12.45
14.00
14.87
14.96
14.36
13.29
12.06
10.98
10.15
9.57
9.08
8.57
8.03
7.54
7.23
7.10
7.06
6.94
6.56
5.85
4.85
3.68
2.44
1.28
0.26
-0.58
-1.29
-1.94
-2.72
-3.81
-5.27
-6.99
-8.58
-9.54
-9.35
-7.80
-5.00
-1.36
2.55
6.24
9.36
11.79
13.49
14.45
14.65
14.07
12.81
11.06
9.18
7.52
6.40
5.97
6.15
6.70
7.33
7.78
7.95
7.85
7.53
7.06
6.40
5.48
4.26
2.77
1.16
-0.43
-1.88
-3.21
-4.55
-6.09
-7.97
-10.15
-12.41
-14.31
-15.32
-15.00
-13.10
-9.75
-5.35
-0.52
4.13
8.10
11.13
13.18
14.27
14.48
13.89
12.56
10.67
8.47
6.28
4.41
3.08
2.30
1.99
1.96
2.02
2.03
1.96
1.81
1.62
1.40
1.05
0.46
-0.45
-1.66
-3.02
-4.35
-5.57
-6.73
-8.05
-9.72
-11.67
-13.54
-14.76
-14.74
-13.13
-10.04
-5.95
-1.47
2.80
6.56
9.64
12.00
13.55
14.24
14.04
13.08
11.68
10.23
9.00
8.08
7.39
6.77
6.16
5.60
5.24
5.16
5.35
5.65
5.80
5.61
4.98
3.93
2.52
0.89
-0.80
-2.52
-4.26
-6.12
-8.21
-10.53
-12.87
-14.75
-15.55
-14.71
-12.10
-7.99
-3.02
2.05
6.58
10.22
12.89
14.62
15.43
15.31
14.28
12.40
9.97
7.37
5.04
3.41
2.67
2.82
3.59
4.59
5.37
5.59
5.16
4.14
2.82
1.44
0.13
-1.07
-2.23
-3.51
-4.98
-6.72
-8.71
-10.84
-12.89
-14.48
-15.19
-14.64
-12.68
-9.47
-5.47
-1.26
2.63
5.85
8.25
9.89
10.88
11.24
11.03
10.33
9.27
8.14
7.17
6.58
6.40
6.60
7.03
7.54
8.01
8.32
8.36
8.02
7.26
6.10
4.60
2.92
1.21
-0.44
-2.00
-3.51
-4.98
-6.40
-7.61
-8.33
-8.22
-6.98
-4.47
-0.82
3.63
8.36
12.82
16.60
19.48
21.43
22.60
23.18
23.31
23.05
22.43
21.53
20.44
19.36
18.45
17.76
17.21
16.70
16.10
15.41
14.68
14.00
13.41
12.81
12.12
11.22
10.13
8.93
7.79
6.78
5.92
5.16
4.45
3.84
3.50
3.70
4.60
6.26
8.52
11.09
13.58
15.72
17.31
18.27
18.54
18.06
16.80
14.80
12.28
9.57
7.09
5.20
4.12
3.89
4.33
5.18
6.13
6.87
7.11
6.64
5.35
3.30
0.71
-2.09
-4.79
-7.21
-9.36
-11.40
-13.49
-15.67
-17.82
-19.60
-20.63
-20.57
-19.28
-16.82
-13.46
-9.56
-5.56
-1.90
1.08
3.18
4.44
5.04
5.29
5.47
5.79
6.21
6.63
6.90
6.92
6.72
6.38
5.98
5.56
5.10
4.62
4.14
3.65
3.05
2.14
0.62
-1.73
-4.97
-8.90
-13.04
-16.88
-19.95
-21.99
-22.92
-22.74
-21.46
-19.13
-15.88
-11.94
-7.71
-3.63
-0.12
2.63
4.63
6.03
7.02
7.71
8.11
8.15
7.88
7.36
6.76
6.24
5.87
5.56
5.14
4.45
3.39
2.05
0.60
-0.77
-1.96
-2.97
-3.87
-4.86
-6.13
-7.89
-10.27
-13.28
-16.77
-20.40
-23.68
-26.10
-27.24
-26.93
-25.27
-22.62
-19.46
-16.33
-13.64
-11.69
-10.58
-10.28
-10.67
-11.54
-12.74
-14.04
-15.18
-15.82
-15.71
-14.75
-13.12
-11.24
-9.62
-8.71
-8.67
-9.38
-10.46
-11.53
-12.39
-13.04
-13.64
-14.36
-15.33
-16.51
-17.81
-19.10
-20.20
-20.97
-21.17
-20.56
-18.93
-16.17
-12.42
-8.08
-3.66
0.36
3.70
6.25
8.07
9.27
9.89
9.96
9.60
9.01
8.63
8.92
10.29
12.86
16.41
20.44
24.38
27.75
30.32
32.13
33.43
34.57
35.79
37.16
38.56
39.76
40.47
40.50
39.73
38.27
36.43
34.72
33.77
34.06
35.62
37.82
39.35
38.66
34.49
26.41
15.02
1.75
-11.70
-23.82
-33.65
-40.74
-44.96
-46.44
-45.47
-42.48
-38.13
-33.22
-28.48
-24.40
-21.17
-18.76
-17.02
-15.87
-15.23
-15.02
-15.10
-15.29
-15.42
-15.39
-15.30
-15.33
-15.72
-16.61
-17.97
-19.60
-21.22
-22.45
-22.97
-22.50
-20.94
-18.38
-15.17
-11.83
-8.85
-6.50
-4.77
-3.43
-2.31
-1.41
-0.95
-1.23
-2.30
-3.92
-5.55
-6.68
-7.15
-7.20
-7.33
-7.93
-9.04
-10.27
-11.09
-11.00
-9.88
-7.95
-5.66
-3.49
-1.83
-0.87
-0.58
-0.89
-1.56
-2.40
-3.22
-3.85
-4.22
-4.30
-4.00
-3.29
-2.16
-0.68
0.93
2.36
3.38
3.89
4.02
4.09
4.39
4.99
5.70
6.09
5.83
4.89
3.57
2.39
1.81
1.93
2.49
2.96
2.87
2.03
0.65
-0.83
-1.98
-2.55
-2.61
-2.43
-2.32
-2.46
-2.82
-3.28
-3.71
-4.12
-4.56
-5.04
-5.48
-5.58
-5.07
-3.74
-1.68
0.75
3.15
5.16
6.62
7.56
8.03
8.06
7.63
6.76
5.66
4.58
3.82
3.51
3.53
3.61
3.40
2.79
1.89
1.01
0.45
0.35
0.57
0.80
0.74
0.23
-0.63
-1.60
-2.44
-3.08
-3.62
-4.26
-5.15
-6.21
-7.21
-7.76
-7.57
-6.48
-4.60
-2.20
0.40
2.90
5.10
6.86
8.09
8.78
8.95
8.68
8.07
7.18
6.05
4.76
3.37
2.08
1.09
0.61
0.71
1.26
1.98
2.58
2.81
2.62
2.09
1.36
0.55
-0.30
-1.18
-2.09
-3.01
-3.83
-4.52
-5.11
-5.70
-6.38
-7.10
-7.67
-7.76
-7.10
-5.54
-3.17
-0.30
2.66
5.29
7.30
8.55
9.08
8.96
8.28
7.09
5.52
3.70
1.83
0.22
-0.87
-1.25
-0.93
-0.12
0.84
1.65
2.10
2.10
1.73
1.14
0.45
-0.28
-1.03
-1.82
-2.62
-3.34
-3.96
-4.47
-4.95
-5.49
-6.16
-6.91
-7.55
-7.80
-7.41
-6.22
-4.30
-1.93
0.51
2.69
4.40
5.57
6.25
6.52
6.41
5.94
5.18
4.19
3.15
2.24
1.56
1.15
0.98
1.01
1.21
1.54
1.99
2.48
2.90
3.12
3.03
2.57
1.72
0.57
-0.76
-2.12
-3.38
-4.44
-5.34
-6.16
-6.95
-7.67
-8.12
-8.03
-7.18
-5.56
-3.32
-0.85
1.46
3.32
4.63
5.43
5.87
6.03
5.94
5.64
5.15
4.54
3.96
3.53
3.29
3.24
3.26
3.24
3.09
2.74
2.22
1.63
1.02
0.46
0.00
-0.33
-0.50
-0.54
-0.48
-0.46
-0.64
-1.23
-2.30
-3.74
-5.28
-6.54
-7.15
-6.89
-5.72
-3.78
-1.37
1.20
3.62
5.64
7.13
8.06
8.49
8.48
8.12
7.42
6.42
5.18
3.81
2.46
1.30
0.47
-0.02
-0.23
-0.28
-0.30
-0.43
-0.74
-1.24
-1.87
-2.54
-3.18
-3.73
-4.22
-4.63
-5.01
-5.35
-5.67
-5.98
-6.30
-6.59
-6.74
-6.63
-6.06
-4.92
-3.22
-1.15
1.03
3.03
4.60
5.62
6.04
5.88
5.23
4.19
2.86
1.45
0.17
-0.78
-1.25
-1.23
-0.83
-0.20
0.42
0.91
1.17
1.16
0.92
0.48
-0.11
-0.85
-1.69
-2.63
-3.63
-4.70
-5.79
-6.84
-7.70
-8.14
-7.96
-6.97
-5.19
-2.83
-0.21
2.29
4.36
5.82
6.65
6.89
6.67
6.08
5.19
4.10
2.89
1.73
0.81
0.29
0.24
0.60
1.20
1.78
2.08
1.93
1.32
0.34
-0.84
-2.07
-3.22
-4.19
-4.91
-5.35
-5.55
-5.68
-5.97
-6.59
-7.59
-8.73
-9.62
-9.81
-9.01
-7.21
-4.68
-1.85
0.87
3.19
5.04
6.42
7.40
8.03
8.31
8.25
7.97
7.56
7.17
6.92
6.78
6.71
6.60
6.38
6.02
5.56
5.06
4.57
4.11
3.66
3.19
2.67
2.06
1.29
0.31
-0.88
-2.26
-3.71
-5.16
-6.49
-7.63
-8.53
-9.12
-9.29
-8.89
-7.83
-6.10
-3.86
-1.42
0.86
2.68
3.86
4.44
4.58
4.48
4.23
3.86
3.32
2.58
1.76
1.07
0.70
0.75
1.07
1.40
1.47
1.20
0.71
0.29
0.18
0.43
0.93
1.40
1.58
1.35
0.75
-0.09
-1.03
-1.95
-2.80
-3.58
-4.29
-5.00
-5.79
-6.71
-7.72
-8.64
-9.20
-9.11
-8.21
-6.49
-4.14
-1.48
1.18
3.54
5.36
6.50
6.87
6.47
5.41
3.90
2.24
0.73
-0.40
-1.06
-1.26
-1.14
-0.86
-0.58
-0.40
-0.34
-0.43
-0.69
-1.19
-2.03
-3.29
-4.97
-7.03
-9.31
-11.62
-13.71
-15.45
-16.77
-17.68
-18.34
-18.79
-19.09
-19.23
-19.16
-18.90
-18.59
-18.30
-18.05
-17.68
-16.88
-15.33
-12.85
-9.52
-5.64
-1.72
1.80
4.62
6.62
7.87
8.52
8.74
8.69
8.49
8.34
8.35
8.64
9.25
10.11
11.13
12.17
13.13
13.93
14.50
14.81
14.81
14.54
14.09
13.55
13.00
12.41
11.70
10.73
9.46
7.95
6.36
4.86
3.55
2.44
1.40
0.33
-0.79
-1.95
-3.06
-4.05
-4.91
-5.59
-5.95
-5.79
-4.85
-3.01
-0.37
2.73
5.75
8.19
9.69
10.21
9.87
8.94
7.67
6.24
4.83
3.63
2.84
2.64
3.08
4.09
5.48
7.00
8.40
9.48
10.12
10.29
10.06
9.48
8.70
7.78
6.75
5.62
4.34
2.91
1.38
-0.18
-1.71
-3.13
-4.38
-5.39
-6.11
-6.54
-6.77
-6.98
-7.37
-8.07
-9.01
-9.94
-10.56
-10.51
-9.61
-7.86
-5.42
-2.56
0.42
3.26
5.73
7.65
8.96
9.63
9.70
9.28
8.50
7.53
6.57
5.80
5.37
5.34
5.66
6.20
6.87
7.56
8.23
8.88
9.42
9.78
9.84
9.52
8.85
7.95
6.96
6.04
5.25
4.57
3.94
3.35
2.78
2.27
1.88
1.55
1.19
0.68
-0.07
-1.09
-2.34
-3.72
-5.06
-6.18
-6.84
-6.81
-5.91
-4.14
-1.68
1.10
3.74
5.88
7.32
8.01
8.09
7.70
6.99
6.06
4.98
3.86
2.81
1.98
1.49
1.40
1.68
2.21
2.81
3.29
3.54
3.54
3.34
3.05
2.76
2.49
2.22
1.94
1.66
1.37
1.09
0.84
0.58
0.29
-0.06
-0.47
-0.94
-1.43
-1.96
-2.51
-3.07
-3.63
-4.23
-4.93
-5.75
-6.67
-7.52
-8.05
-8.00
-7.29
-5.96
-4.26
-2.49
-0.81
0.70
2.08
3.38
4.57
5.50
6.06
6.17
5.86
5.29
4.57
3.84
3.21
2.73
2.45
2.35
2.34
2.34
2.27
2.08
1.81
1.45
0.95
0.27
-0.68
-1.84
-3.08
-4.19
-5.07
-5.68
-6.17
-6.73
-7.42
-8.20
-8.85
-9.20
-9.17
-8.92
-8.72
-8.83
-9.46
-10.51
-11.79
-12.97
-13.71
-13.81
-13.16
-11.85
-10.07
-8.06
-6.01
-4.12
-2.47
-1.13
-0.15
0.46
0.71
0.65
0.37
-0.02
-0.47
-0.90
-1.28
-1.64
-1.96
-2.23
-2.46
-2.66
-2.84
-3.06
-3.37
-3.86
-4.59
-5.52
-6.55
-7.51
-8.24
-8.72
-9.03
-9.42
-10.06
-11.04
-12.20
-13.27
-13.95
-14.04
-13.52
-12.52
-11.17
-9.61
-7.87
-5.96
-3.90
-1.68
0.78
3.54
6.68
10.17
13.79
17.16
19.82
21.43
21.92
21.55
20.76
19.98
19.52
19.47
19.81
20.45
21.30
22.29
23.36
24.41
25.43
26.49
27.71
29.17
30.76
32.22
33.19
33.39
32.73
31.33
29.35
26.89
23.96
20.63
17.09
13.67
10.75
8.53
7.09
6.20
5.57
4.97
4.35
3.75
3.30
3.07
3.01
2.91
2.38
0.88
-2.05
-6.65
-12.71
-19.59
-26.29
-31.89
-35.72
-37.60
-37.74
-36.52
-34.36
-31.66
-28.76
-25.98
-23.63
-21.92
-20.83
-20.15
-19.55
-18.78
-17.81
-16.69
-15.62
-14.72
-14.03
-13.45
-12.93
-12.38
-11.76
-11.07
-10.28
-9.37
-8.39
-7.50
-6.87
-6.63
-6.83
-7.36
-8.06
-8.77
-9.35
-9.73
-9.76
-9.26
-8.06
-6.10
-3.50
-0.60
2.16
4.41
5.93
6.67
6.76
6.36
5.65
4.76
3.81
2.90
2.18
1.72
1.58
1.72
2.07
2.47
2.79
2.91
2.79
2.48
1.99
1.35
0.54
-0.46
-1.68
-3.03
-4.43
-5.72
-6.78
-7.58
-8.19
-8.75
-9.41
-10.23
-11.06
-11.68
-11.80
-11.17
-9.73
-7.57
-4.93
-2.06
0.78
3.46
5.80
7.64
8.81
9.22
8.90
8.02
6.89
5.75
4.81
4.07
3.46
2.89
2.27
1.65
1.07
0.63
0.43
0.49
0.77
1.10
1.28
1.09
0.45
-0.55
-1.69
-2.73
-3.49
-3.98
-4.37
-4.85
-5.63
-6.73
-8.13
-9.64
-11.01
-11.94
-12.12
-11.38
-9.70
-7.26
-4.37
-1.38
1.41
3.80
5.67
6.98
7.72
7.89
7.59
7.03
6.43
6.01
5.86
5.96
6.20
6.43
6.53
6.43
6.14
5.71
5.22
4.78
4.42
4.12
3.75
3.16
2.25
1.01
-0.45
-1.96
-3.38
-4.67
-5.84
-6.92
-7.96
-8.96
-9.92
-10.90
-11.89
-12.80
-13.45
-13.50
-12.67
-10.80
-8.00
-4.62
-1.13
2.05
4.62
6.47
7.64
8.25
8.42
8.25
7.81
7.22
6.64
6.26
6.19
6.48
7.10
7.93
8.82
9.66
10.36
10.82
10.99
10.79
10.23
9.39
8.40
7.38
6.39
5.39
4.29
3.06
1.75
0.52
-0.48
-1.16
-1.60
-1.96
-2.38
-2.95
-3.68
-4.50
-5.37
-6.19
-6.82
-6.99
-6.38
-4.66
-1.76
2.18
6.73
11.35
15.68
19.50
22.93
26.16
29.33
32.45
35.33
37.83
39.90
41.73
43.68
46.12
49.33
53.35
58.02
63.01
67.99
72.66
76.88
80.69
84.25
87.76
91.26
94.53
97.05
98.08
96.89
93.01
86.34
77.12
65.68
52.28
36.91
19.44
-0.10
-21.33
-43.48
-65.49
-86.26
-104.57
-119.19
-128.83
-132.27
-128.56
-117.29
-98.84
-74.27
-45.10
-12.93
20.75
54.28
86.07
114.63
138.86
158.29
173.20
184.54
193.66
201.78
208.36
211.76
209.75
200.48
183.46
160.07
133.41
107.61
86.71
71.44
60.76
52.59
45.09
37.33
28.92
19.33
7.52
-8.06
-32.27
-69.10
-119.93
-182.44
-251.27
-320.23
-384.43
-441.27
-490.53
-537.80
-588.92
-647.57
-713.50
-782.78
-850.00
-910.57
-961.80
-974.68
-928.30
-814.64
-645.15
-446.41
-247.22
-67.80
82.87
204.03
299.11
368.41
412.46
433.00
434.58
424.02
408.41
393.23
381.52
374.34
368.02
358.59
343.44
322.88
299.63
277.25
258.67
245.35
237.49
232.16
226.45
218.39
207.94
196.83
187.36
181.36
179.35
180.94
182.84
181.57
174.37
160.04
139.09
113.01
84.05
54.16
24.61
-4.48
-33.08
-60.72
-86.06
-106.91
-121.36
-127.84
-126.17
-118.06
-106.72
-95.79
-88.61
-87.72
-91.78
-102.18
-118.01
-135.32
-147.89
-149.19
-135.09
-106.06
-67.67
-28.46
3.00
22.28
29.74
29.13
24.93
19.99
15.01
9.39
2.75
-4.57
-11.10
-15.64
-18.24
-20.13
-23.22
-29.11
-38.10
-48.98
-59.77
-68.09
-72.15
-71.93
-67.66
-60.34
-51.17
-41.00
-30.12
-18.72
-6.95
4.63
15.17
23.63
28.98
30.73
29.11
24.96
19.40
13.47
7.73
2.50
-2.34
-7.12
-12.03
-16.95
-21.51
-25.36
-28.45
-31.13
-33.57
-36.13
-39.05
-42.22
-45.10
-47.01
-47.50
-46.82
-45.93
-45.28
-45.38
-46.31
-47.45
-47.44
-44.67
-37.79
-26.25
-13.92
-2.89
4.95
8.52
7.41
2.12
-6.47
-17.21
-28.58
-38.62
-42.83
-38.24
-24.81
-6.17
12.37
26.81
37.40
49.00
68.48
103.70
157.01
224.41
297.52
367.86
430.43
484.83
533.71
563.55
564.09
529.86
464.34
379.39
289.92
208.12
140.30
86.90
44.00
8.98
-20.29
-44.62
-63.71
-76.91
-83.70
-84.69
-81.83
-78.57
-76.34
-75.96
-77.17
-78.91
-79.80
-78.51
-73.88
-65.40
-53.67
-39.97
-27.76
-22.15
-28.19
-48.34
-80.56
-118.18
-152.01
-174.12
-180.36
-172.15
-155.14
-136.34
-120.88
-110.51
-103.66
-97.01
-87.33
-72.60
-52.62
-28.89
-4.14
18.88
37.51
49.67
54.22
50.95
40.46
24.16
4.17
-16.89
-35.91
-50.27
-58.51
-60.83
-59.24
-56.24
-53.40
-50.38
-44.93
-34.22
-16.96
5.45
29.12
49.13
61.77
65.74
62.08
53.15
41.03
27.23
13.21
1.13
-6.24
-6.22
2.10
16.26
31.17
40.51
39.59
27.62
8.26
-11.16
-21.99
-17.36
5.10
42.06
85.03
123.26
147.25
151.86
137.41
108.96
75.23
45.72
27.60
23.68
32.72
50.83
72.94
94.23
110.37
117.73
113.70
97.24
69.33
33.23
-5.98
-42.92
-72.66
-91.99
-99.66
-96.59
-85.69
-70.89
-56.19
-44.54
-37.44
-34.70
-35.25
-37.53
-40.39
-43.22
-45.82
-48.07
-49.57
-49.71
-47.68
-42.94
-35.60
-26.62
-17.58
-9.62
-2.37
6.73
21.40
44.44
75.20
108.28
134.73
145.43
134.89
103.62
57.86
6.85
-40.62
-78.62
-104.71
-118.85
-122.31
-117.07
-106.15
-93.66
-84.22
-81.52
-86.86
-98.86
-114.09
-128.98
-141.07
-149.62
-154.98
-157.72
-158.02
-155.73
-151.07
-144.86
-138.44
-132.94
-128.67
-124.77
-119.83
-112.53
-102.42
-90.14
-77.06
-64.53
-53.29
-43.38
-34.29
-25.44
-16.51
-7.61
0.80
8.16
14.08
18.47
21.59
23.87
25.84
28.04
30.83
34.22
37.88
41.12
42.84
41.88
37.33
28.92
17.32
4.26
-8.10
-17.69
-23.24
-24.80
-23.46
-20.90
-18.77
-18.21
-19.11
-20.68
-21.75
-21.51
-19.96
-17.79
-16.11
-15.96
-17.83
-21.34
-25.60
-29.65
-33.08
-36.10
-39.26
-43.14
-47.97
-53.11
-57.19
-58.37
-54.97
-46.05
-31.95
-14.11
5.35
24.26
41.07
54.99
65.93
74.09
79.88
83.47
85.05
84.75
82.74
79.44
75.26
70.55
65.34
59.30
51.82
42.56
31.98
21.68
14.03
11.20
14.25
22.46
33.57
44.56
52.77
56.77
56.55
53.21
48.27
43.18
38.83
35.43
32.56
29.41
25.15
19.28
11.90
3.83
-3.54
-8.53
-9.77
-6.54
0.84
11.01
21.65
29.98
33.65
31.64
24.73
15.28
6.12
-0.78
-5.23
-8.91
-14.13
-22.52
-33.89
-46.20
-56.29
-61.08
-58.68
-48.64
-31.98
-10.83
11.86
32.49
47.43
53.78
50.43
38.47
21.34
3.67
-10.00
-16.60
-15.45
-8.13
2.14
11.98
18.90
22.10
22.31
20.99
19.67
19.01
18.89
18.49
17.06
14.08
9.55
3.81
-2.48
-8.41
-12.88
-14.94
-14.06
-10.52
-5.25
0.47
5.62
9.71
12.68
14.46
14.59
12.38
7.12
-1.03
-11.02
-21.01
-28.95
-33.13
-32.58
-27.23
-17.71
-5.56
7.35
19.01
28.03
33.96
37.33
39.22
40.31
40.34
38.23
32.88
24.18
13.57
3.75
-2.66
-4.21
-1.50
3.19
7.18
8.73
7.80
5.73
4.22
3.96
4.37
3.92
1.38
-3.32
-8.78
-12.76
-13.54
-10.70
-5.68
-0.85
1.42
-0.13
-5.38
-13.08
-21.55
-29.17
-34.74
-37.42
-36.70
-32.34
-24.47
-13.83
-1.78
9.85
19.20
24.79
26.04
23.29
17.76
11.02
4.39
-1.43
-6.38
-10.80
-14.84
-18.14
-19.93
-19.48
-16.71
-12.23
-7.16
-2.67
0.43
1.62
0.42
-3.73
-11.59
-23.53
-39.00
-56.25
-72.89
-86.97
-97.99
-107.39
-117.79
-131.49
-148.83
-167.30
-181.95
-187.46
-179.92
-158.60
-126.33
-88.52
-51.33
-19.79
3.63
19.68
31.46
43.29
58.67
78.58
100.41
118.55
126.48
119.57
97.93
66.88
36.38
17.63
19.10
43.01
84.05
130.73
168.63
185.24
172.11
129.27
65.31
-4.38
-61.62
-91.04
-85.36
-48.20
8.15
63.91
102.40
114.43
100.56
69.60
33.85
4.28
-13.00
-15.74
-10.43
-4.28
-4.66
-16.53
-40.49
-72.36
-104.39
-128.08
-134.96
-125.95
-103.49
-71.57
-32.97
12.55
67.26
133.00
192.17
257.09
315.92
360.24
385.31
391.15
381.65
362.45
339.43
317.58
302.99
294.55
290.58
286.02
273.85
247.81
205.02
147.50
80.87
13.59
-51.32
-111.41
-165.36
-210.89
-243.98
-260.34
-257.99
-239.40
-209.96
-179.17
-154.14
-138.32
-131.27
-129.99
-131.24
-133.00
-134.87
-136.79
-139.63
-142.67
-144.13
-141.90
-134.51
-121.90
-105.49
-87.69
-70.97
-57.61
-48.54
-43.47
-41.10
-39.71
-37.81
-34.55
-29.89
-24.57
-19.55
-15.77
-13.64
-13.05
-13.38
-13.94
-14.12
-13.65
-12.60
-11.25
-9.97
-9.05
-8.60
-8.58
-8.84
-9.13
-9.17
-8.84
-8.12
-7.18
-6.34
-5.81
-5.66
-5.69
-5.54
-4.87
-3.59
-1.90
-0.18
1.26
2.37
3.39
4.66
6.24
7.85
8.85
8.67
7.15
4.66
1.98
-0.00
-0.79
-0.40
0.66
1.72
2.25
2.12
1.46
0.61
-0.11
-0.51
-0.61
-0.54
-0.49
-0.58
-0.84
-1.14
-1.30
-1.14
-0.64
0.03
0.56
0.68
0.24
-0.57
-1.37
-1.79
-1.60
-0.88
0.12
1.17
2.19
3.36
4.95
7.08
9.52
11.67
12.86
12.65
11.10
8.65
5.99
3.65
1.89
0.57
-0.52
-1.51
-2.32
-2.67
-2.36
-1.40
-0.01
1.36
2.31
2.61
2.20
1.20
-0.24
-1.99
-3.95
-5.97
-7.89
-9.45
-10.46
-10.81
-10.49
-9.58
-8.23
-6.62
-4.87
-3.14
-1.45
0.21
1.94
3.78
5.78
7.73
9.31
10.21
10.17
9.18
7.52
5.61
3.88
2.70
2.14
2.07
2.23
2.36
2.28
1.92
1.26
0.29
-0.89
-2.24
-3.64
-4.85
-5.69
-6.05
-5.99
-5.73
-5.53
-5.56
-5.99
-6.75
-7.62
-8.29
-8.36
-7.52
-5.62
-2.80
0.58
4.00
7.00
9.32
10.86
11.67
11.76
11.09
9.64
7.57
5.22
3.10
1.63
0.93
0.89
1.21
1.63
2.00
2.30
2.51
2.48
1.99
0.78
-1.07
-3.35
-5.65
-7.62
-9.04
-9.88
-10.24
-10.22
-9.99
-9.67
-9.47
-9.55
-9.96
-10.60
-11.19
-11.49
-11.44
-11.20
-11.09
-11.33
-11.88
-12.44
-12.58
-12.00
-10.70
-9.03
-7.41
-6.24
-5.61
-5.41
-5.41
-5.40
-5.33
-5.25
-5.27
-5.40
-5.59
-5.64
-5.35
-4.57
-3.32
-1.81
-0.42
0.46
0.58
-0.11
-1.33
-2.66
-3.68
-4.21
-4.25
-4.02
-3.73
-3.46
-3.26
-3.17
-3.26
-3.65
-4.33
-5.00
-5.24
-4.57
-2.77
0.00
3.23
6.30
8.73
10.38
11.37
11.84
11.86
11.38
10.37
8.87
7.16
5.55
4.34
3.64
3.36
3.22
2.88
1.99
0.40
-1.90
-4.93
-8.76
-13.62
-19.81
-27.68
-37.48
-49.24
-62.54
-76.49
-89.92
-101.39
-109.39
-112.55
-109.90
-101.10
-86.59
-67.45
-45.31
-22.03
0.60
21.03
38.14
51.26
60.25
65.47
67.60
67.48
65.81
63.18
59.89
56.24
52.59
49.40
47.14
45.95
45.66
45.77
45.80
45.36
44.33
42.80
40.97
38.97
36.73
34.14
31.13
27.83
24.50
21.53
19.24
17.64
16.57
15.62
14.48
13.08
11.62
10.37
9.55
9.16
8.90
8.47
7.67
6.56
5.42
4.50
3.91
3.52
3.12
2.55
1.84
1.15
0.61
0.25
-0.09
-0.61
-1.46
-2.56
-3.73
-4.78
-5.65
-6.44
-7.31
-8.38
-9.54
-10.60
-11.34
-11.64
-11.46
-10.90
-9.94
-8.51
-6.57
-4.17
-1.54
0.95
3.04
4.63
5.88
7.06
8.33
9.58
10.49
10.67
9.87
8.21
6.11
4.16
2.82
2.29
2.43
2.92
3.42
3.74
3.87
3.91
3.95
4.01
4.01
3.89
3.62
3.26
2.94
2.77
2.78
2.86
2.90
2.75
2.39
1.82
1.10
0.32
-0.48
-1.29
-2.15
-3.06
-4.01
-4.90
-5.60
-6.02
-6.16
-6.13
-6.10
-6.24
-6.55
-6.85
-6.75
-5.92
-4.16
-1.56
1.50
4.57
7.23
9.21
10.36
10.62
10.02
8.66
6.84
4.91
3.28
2.23
1.89
2.13
2.78
3.64
4.56
5.47
6.25
6.76
6.90
6.68
6.20
5.62
5.04
4.46
3.80
2.96
1.98
0.97
0.14
-0.35
-0.51
-0.51
-0.68
-1.23
-2.22
-3.50
-4.80
-5.92
-6.77
-7.37
-7.82
-8.15
-8.39
-8.55
-8.65
-8.74
-8.87
-8.89
-8.57
-7.56
-5.64
-2.79
0.71
4.32
7.45
9.64
10.68
10.67
9.91
8.81
7.61
6.49
5.43
4.43
3.57
2.98
2.81
3.06
3.56
3.96
3.96
3.43
2.50
1.53
0.85
0.59
0.70
0.91
0.91
0.60
0.03
-0.64
-1.18
-1.53
-1.80
-2.09
-2.53
-3.15
-3.80
-4.32
-4.60
-4.68
-4.70
-4.91
-5.45
-6.31
-7.33
-8.15
-8.40
-7.76
-6.08
-3.45
-0.22
3.14
6.06
8.04
8.83
8.42
7.11
5.31
3.45
1.82
0.60
-0.20
-0.64
-0.73
-0.53
-0.05
0.62
1.34
1.96
2.44
2.74
2.89
2.97
2.91
2.65
2.10
1.26
0.24
-0.74
-1.47
-1.88
-2.05
-2.22
-2.60
-3.33
-4.32
-5.39
-6.37
-7.14
-7.73
-8.24
-8.78
-9.28
-9.54
-9.25
-8.15
-6.15
-3.46
-0.43
2.45
4.79
6.37
7.13
7.10
6.38
5.05
3.20
1.08
-0.98
-2.60
-3.49
-3.54
-2.90
-1.85
-0.67
0.46
1.43
2.20
2.64
2.65
2.14
1.23
0.15
-0.76
-1.28
-1.41
-1.34
-1.37
-1.66
-2.24
-2.90
-3.43
-3.70
-3.68
-3.48
-3.24
-3.08
-3.06
-3.10
-3.10
-2.92
-2.48
-1.78
-0.90
0.12
1.26
2.47
3.76
4.95
5.80
6.02
5.41
4.01
2.13
0.23
-1.21
-1.89
-1.84
-1.32
-0.70
-0.36
-0.55
-1.22
-2.18
-3.08
-3.61
-3.62
-3.22
-2.69
-2.37
-2.51
-3.11
-3.97
-4.83
-5.45
-5.77
-5.88
-5.91
-5.96
-6.03
-6.07
-5.98
-5.72
-5.25
-4.52
-3.53
-2.26
-0.78
0.78
2.33
3.67
4.70
5.33
5.50
5.24
4.69
4.01
3.31
2.64
1.93
1.03
-0.15
-1.59
-3.06
-4.25
-4.87
-4.80
-4.16
-3.21
-2.35
-1.86
-1.92
-2.53
-3.57
-4.85
-6.15
-7.26
-8.04
-8.43
-8.44
-8.19
-7.70
-7.02
-6.12
-4.89
-3.30
-1.37
0.73
2.81
4.66
6.13
7.08
7.43
7.13
6.15
4.58
2.58
0.44
-1.52
-3.02
-3.93
-4.36
-4.54
-4.81
-5.42
-6.36
-7.50
-8.65
-9.68
-10.64
-11.82
-13.65
-16.67
-21.37
-27.98
-36.64
-47.27
-59.57
-72.93
-86.47
-99.05
-109.40
-116.24
-118.43
-115.12
-105.94
-91.04
-71.20
-47.76
-22.47
2.73
25.98
45.77
61.09
71.53
77.27
78.94
77.49
74.00
69.50
64.76
60.31
56.43
53.14
50.38
47.92
45.58
43.20
40.76
38.28
35.75
33.20
30.60
27.96
25.27
22.62
20.05
17.58
15.16
12.78
10.40
8.07
5.82
3.72
1.80
0.05
-1.53
-3.01
-4.31
-5.35
-5.85
-5.62
-4.57
-2.80
-0.55
1.85
4.14
6.17
7.89
9.27
10.21
10.55
10.12
8.92
7.16
5.24
3.62
2.64
2.39
2.74
3.39
4.07
4.64
5.11
5.59
6.14
6.71
7.17
7.39
7.29
6.88
6.23
5.36
4.22
2.75
0.83
-1.46
-3.95
-6.31
-8.28
-9.66
-10.44
-10.76
-10.76
-10.65
-10.56
-10.62
-10.88
-11.24
-11.45
-11.12
-9.87
-7.53
-4.26
-0.51
3.01
5.77
7.51
8.33
8.55
8.52
8.45
8.31
8.02
7.50
6.81
6.18
5.89
6.12
6.81
7.71
8.39
8.59
8.23
7.47
6.64
5.98
5.60
5.39
5.13
4.60
3.77
2.72
1.66
0.74
0.08
-0.33
-0.59
-0.80
-1.11
-1.56
-2.19
-2.89
-3.56
-4.15
-4.65
-5.15
-5.74
-6.55
-7.60
-8.86
-10.25
-11.56
-12.54
-12.89
-12.31
-10.62
-7.89
-4.45
-0.78
2.60
5.36
7.35
8.56
9.05
8.88
8.09
6.81
5.24
3.73
2.66
2.32
2.81
3.98
5.41
6.66
7.36
7.27
6.46
5.17
3.77
2.60
1.92
1.75
1.97
2.36
2.62
2.57
2.18
1.60
1.02
0.65
0.53
0.55
0.58
0.51
0.31
0.03
-0.29
-0.70
-1.35
-2.33
-3.63
-5.04
-6.28
-7.10
-7.51
-7.66
-7.75
-7.89
-7.94
-7.54
-6.31
-4.10
-1.03
2.35
5.27
6.99
7.08
5.54
2.91
-0.01
-2.35
-3.44
-3.00
-1.23
1.38
4.12
6.39
7.72
7.94
7.15
5.65
3.77
1.92
0.42
-0.56
-0.85
-0.42
0.63
2.09
3.65
4.94
5.57
5.32
4.15
2.23
-0.07
-2.30
-4.09
-5.19
-5.56
-5.31
-4.66
-3.91
-3.33
-3.07
-3.26
-3.85
-4.71
-5.61
-6.29
-6.59
-6.41
-5.75
-4.65
-3.24
-1.62
0.04
1.60
2.91
3.87
4.42
4.55
4.30
3.74
2.95
2.11
1.37
0.90
0.81
1.10
1.67
2.33
2.86
3.09
2.98
2.59
2.11
1.78
1.73
2.02
2.53
3.07
3.38
3.27
2.62
1.43
-0.10
-1.70
-3.01
-3.77
-3.86
-3.44
-2.87
-2.61
-2.95
-3.96
-5.40
-6.80
-7.65
-7.61
-6.60
-4.80
-2.59
-0.39
1.49
2.84
3.65
4.00
3.99
3.66
3.04
2.18
1.16
0.18
-0.53
-0.82
-0.65
-0.12
0.56
1.17
1.57
1.70
1.64
1.45
1.25
1.10
1.00
0.92
0.75
0.39
-0.26
-1.18
-2.21
-3.16
-3.81
-4.08
-4.02
-3.80
-3.70
-3.90
-4.45
-5.20
-5.91
-6.26
-6.01
-5.09
-3.50
-1.38
1.03
3.47
5.62
7.15
7.77
7.35
5.95
3.86
1.52
-0.55
-1.95
-2.51
-2.31
-1.61
-0.79
-0.16
0.13
0.04
-0.25
-0.54
-0.66
-0.58
-0.37
-0.25
-0.44
-0.99
-1.85
-2.84
-3.74
-4.50
-5.21
-6.05
-7.18
-8.64
-10.31
-11.87
-13.04
-13.62
-13.50
-12.77
-11.66
-10.63
-10.37
-11.73
-15.47
-22.04
-31.46
-43.34
-56.80
-70.72
-83.83
-94.92
-102.74
-106.16
-104.27
-96.50
-82.95
-64.50
-42.70
-19.59
2.78
22.79
39.31
51.86
60.42
65.30
66.90
65.83
62.68
58.15
52.90
47.41
42.08
37.23
33.20
30.33
28.90
29.02
30.48
32.74
35.10
36.89
37.74
37.54
36.38
34.41
31.62
28.02
23.76
19.22
15.04
11.83
9.96
9.30
9.45
9.81
9.84
9.37
8.46
7.35
6.24
5.15
3.95
2.48
0.74
-1.24
-3.28
-5.29
-7.17
-8.89
-10.29
-11.25
-11.66
-11.45
-10.65
-9.38
-7.80
-5.97
-3.86
-1.46
1.09
3.55
5.59
6.89
7.41
7.21
6.52
5.61
4.71
3.81
2.96
2.23
1.65
1.37
1.50
2.01
2.80
3.77
4.76
5.70
6.53
7.10
7.35
7.16
6.50
5.31
3.71
1.90
0.05
-1.63
-3.17
-4.50
-5.67
-6.69
-7.46
-7.96
-8.10
-7.92
-7.39
-6.65
-5.57
-4.06
-2.17
0.13
2.59
4.92
6.80
8.06
8.51
8.25
7.44
6.22
4.85
3.59
2.69
2.19
2.15
2.38
2.79
3.27
3.67
4.03
4.29
4.45
4.47
4.39
4.25
4.11
3.99
3.69
3.12
2.19
0.95
-0.43
-1.82
-3.09
-4.27
-5.46
-6.78
-8.15
-9.50
-10.69
-11.71
-12.67
-13.60
-14.40
-14.70
-14.04
-12.05
-8.68
-4.25
0.70
5.51
9.73
13.00
15.24
16.35
16.32
15.13
12.91
10.06
6.98
4.21
2.04
0.70
0.24
0.54
1.34
2.36
3.42
4.24
4.68
4.64
4.13
3.26
2.20
1.00
-0.24
-1.49
-2.70
-3.83
-4.86
-5.73
-6.39
-6.84
-7.08
-7.06
-6.81
-6.34
-5.73
-5.11
-4.61
-4.25
-3.95
-3.45
-2.37
-0.60
1.75
4.27
6.33
7.36
7.07
5.55
3.20
0.72
-1.35
-2.66
-3.08
-2.69
-1.64
-0.06
1.94
4.24
6.60
8.73
10.24
10.92
10.66
9.53
7.76
5.67
3.42
1.17
-0.98
-2.99
-4.72
-6.07
-6.89
-7.07
-6.58
-5.62
-4.41
-3.24
-2.40
-1.97
-2.00
-2.40
-3.08
-3.95
-5.02
-6.21
-7.40
-8.47
-9.02
-8.77
-7.46
-5.11
-2.03
1.26
4.24
6.48
7.71
7.97
7.33
5.93
4.05
2.01
0.09
-1.26
-1.77
-1.34
0.05
2.14
4.51
6.78
8.56
9.54
9.69
9.04
7.71
5.97
4.03
2.15
0.58
-0.54
-1.12
-1.14
-0.74
-0.07
0.77
1.62
2.32
2.75
2.68
1.99
0.76
-1.02
-3.25
-5.64
-7.99
-10.03
-11.43
-11.82
-10.95
-8.66
-5.19
-1.04
3.20
6.87
9.54
11.09
11.58
11.18
10.08
8.36
6.09
3.47
0.72
-1.79
-3.75
-4.99
-5.53
-5.50
-5.23
-4.95
-4.68
-4.50
-4.35
-4.17
-3.98
-3.79
-3.53
-3.23
-2.87
-2.48
-2.17
-2.06
-2.20
-2.55
-2.96
-3.20
-3.14
-2.70
-1.97
-1.16
-0.44
0.14
0.54
0.82
1.10
1.43
1.84
2.32
2.70
2.84
2.52
1.53
-0.36
-3.28
-7.46
-13.15
-20.50
-29.73
-40.77
-53.51
-67.48
-81.96
-95.87
-107.98
-116.89
-121.26
-119.96
-112.37
-98.73
-79.83
-57.07
-32.15
-6.99
16.63
37.18
53.50
65.03
71.66
73.95
72.76
69.13
64.09
58.29
52.37
46.83
42.13
38.73
36.97
36.82
37.96
40.05
42.34
44.24
45.08
44.37
41.80
37.47
31.74
25.32
19.26
14.33
11.11
9.64
9.58
10.35
11.35
12.14
12.43
12.12
11.03
9.10
6.33
2.76
-1.27
-5.40
-9.17
-12.20
-14.18
-15.05
-14.64
-13.00
-10.32
-7.02
-3.76
-1.14
0.27
0.33
-0.98
-3.06
-5.40
-7.41
-8.75
-9.30
-9.14
-8.30
-6.75
-4.54
-1.71
1.46
4.63
7.37
9.49
10.73
11.14
10.84
10.02
8.76
7.15
5.39
3.66
2.14
0.94
0.10
-0.25
-0.07
0.72
2.05
3.72
5.49
6.99
8.08
8.58
8.65
8.43
8.09
7.53
6.47
4.61
1.79
-1.89
-6.20
-10.60
-14.57
-17.56
-19.09
-18.87
-16.97
-13.66
-9.46
