1539692542.00
64.000000
-0.00
-0.00
-0.00
-0.00
-0.00
-0.00
-0.00
-0.00
-0.00
-0.00
0.00
0.01
0.01
-0.00
-0.03
-0.05
-0.05
0.00
0.13
0.36
0.66
1.01
1.37
1.72
2.06
2.40
2.79
3.24
3.80
4.42
5.06
5.66
6.20
6.68
7.15
7.68
8.31
9.15
10.10
11.07
11.93
12.64
13.26
13.95
14.92
16.32
18.40
20.94
23.68
26.32
28.70
30.88
33.17
36.02
39.73
44.68
50.51
56.72
62.71
68.12
73.03
77.91
83.47
90.23
98.73
108.47
118.64
128.38
137.10
144.85
152.24
160.62
168.70
178.75
191.35
206.62
223.35
238.64
248.15
247.24
232.58
203.31
161.82
111.94
58.00
3.22
-50.84
-103.94
-156.23
-207.32
-256.37
-301.88
-342.96
-378.89
-409.10
-432.72
-448.38
-454.42
-449.10
-431.50
-401.68
-361.27
-312.84
-259.47
-204.17
-149.43
-97.83
-50.76
-8.91
27.45
58.14
83.16
102.69
117.24
127.58
134.65
139.60
143.34
146.47
149.25
151.67
153.55
154.73
155.01
154.28
152.60
150.00
146.45
141.90
136.30
129.63
122.44
115.08
107.86
101.02
94.65
88.66
82.84
76.88
70.42
63.09
54.53
44.46
32.77
19.50
4.87
-10.71
-26.60
-42.00
-56.00
-67.78
-76.62
-82.04
-83.89
-82.44
-78.40
-72.84
-67.12
-62.65
-60.78
-62.46
-68.12
-77.55
-89.86
-103.68
-117.32
-129.04
-137.23
-140.62
-138.37
-130.14
-116.09
-96.93
-73.83
-48.31
-22.18
2.74
24.85
43.01
56.67
65.88
71.17
73.27
72.80
70.17
65.54
58.97
50.75
41.53
32.38
24.54
18.99
15.97
14.75
13.80
11.40
6.38
-1.24
-10.18
-18.41
-24.16
-26.94
-28.00
-29.92
-35.48
-46.25
-61.55
-78.48
-93.07
-102.24
-105.30
-104.47
-103.91
-107.97
-119.40
-138.44
-163.16
-190.17
-215.53
-235.07
-245.01
-242.90
-228.91
-206.49
-181.14
-158.43
-141.25
-128.39
-114.92
-94.72
-64.17
-25.71
11.30
34.30
33.09
5.19
-41.74
-92.47
-130.63
-145.99
-140.06
-125.58
-119.00
-132.02
-166.08
-212.89
-259.72
-296.28
-318.48
-324.04
-314.33
-289.77
-248.81
-190.16
-116.31
-35.24
38.43
95.81
133.59
153.23
159.52
158.39
154.98
153.69
158.12
171.82
197.33
232.85
271.41
303.08
319.75
318.63
302.92
279.11
253.44
228.75
203.49
172.49
132.55
85.64
37.67
-2.57
-30.44
-44.68
-45.64
-33.30
-4.91
43.06
113.98
207.53
313.88
415.08
490.00
520.23
496.61
430.82
338.98
238.96
146.71
74.42
27.85
10.04
18.67
45.37
77.44
100.98
107.85
98.46
80.26
62.85
52.89
50.87
52.53
53.14
50.12
45.37
42.92
45.21
50.99
55.87
54.48
43.03
20.46
-12.92
-55.28
-103.70
-154.02
-200.72
-237.99
-261.51
-270.21
-266.66
-256.26
-243.29
-231.15
-221.45
-214.11
-208.45
-204.25
-201.61
-200.01
-197.68
-193.07
-183.54
-167.73
-146.49
-122.57
-99.36
-79.24
-62.38
-46.79
-29.62
-8.53
17.31
47.26
80.06
114.27
148.15
179.48
205.25
222.15
228.28
223.86
211.31
193.99
174.42
153.36
130.45
105.76
81.14
60.81
49.58
50.60
63.58
84.94
108.39
128.34
141.53
147.33
147.63
144.88
140.60
134.79
126.39
114.47
99.06
82.62
66.33
50.93
36.70
23.68
11.68
0.33
-10.84
-22.27
-34.39
-47.67
-61.72
-75.57
-87.98
-98.09
-105.87
-112.01
-117.72
-124.18
-132.25
-142.33
-154.69
-169.59
-187.22
-206.82
-225.62
-239.18
-243.16
-236.13
-220.65
-201.63
-183.61
-168.25
-153.84
-136.89
-114.92
-88.27
-57.66
-25.81
5.68
37.22
70.19
104.49
136.74
160.24
167.52
154.47
121.00
72.81
19.91
-26.47
-57.82
-70.95
-68.74
-55.37
-38.13
-24.34
-18.28
-21.05
-29.04
-36.67
-37.94
-27.96
-3.57
34.25
79.97
125.40
162.59
185.34
192.50
188.44
180.22
173.60
170.35
168.82
166.39
161.44
153.78
143.44
129.46
110.83
83.84
46.37
0.08
-49.36
-93.86
-125.87
-141.52
-139.11
-123.86
-105.08
-91.37
-87.30
-92.70
-104.17
-117.57
-129.84
-138.91
-143.57
-142.24
-132.75
-113.74
-86.41
-56.79
-31.75
-18.44
-20.46
-35.22
-53.35
-61.77
-50.16
-16.45
31.60
79.40
111.47
117.58
96.00
53.77
3.39
-41.48
-69.70
-74.95
-55.73
-16.61
32.30
78.29
111.41
127.49
128.49
120.46
109.97
100.26
92.82
87.87
85.61
87.85
96.56
111.25
127.60
138.41
136.06
115.84
79.62
31.90
-18.71
-62.75
-93.09
-107.02
-106.68
-97.56
-84.17
-72.49
-68.32
-74.16
-89.08
-109.14
-128.85
-142.74
-146.85
-141.93
-129.23
-110.44
-85.34
-52.59
-11.21
37.41
88.08
133.05
165.11
181.37
181.26
170.79
159.18
153.38
154.80
158.55
157.20
145.23
123.37
94.64
64.08
36.06
13.15
-4.53
-19.35
-35.51
-58.09
-89.67
-129.87
-172.41
-207.04
-223.84
-218.74
-196.31
-167.68
-144.32
-131.88
-127.95
-124.35
-113.84
-95.32
-74.32
-58.62
-52.87
-55.44
-60.44
-62.06
-58.05
-50.38
-43.11
-39.16
-38.48
-38.52
-36.10
-28.65
-14.40
8.18
40.17
80.87
126.21
168.55
198.89
210.06
200.25
174.08
140.80
110.32
89.20
78.37
74.35
72.22
68.15
60.69
49.90
35.97
18.95
-0.17
-18.09
-29.12
-27.33
-10.45
17.64
47.35
67.55
71.22
58.82
37.14
14.12
-6.28
-25.88
-49.17
-77.90
-106.80
-124.22
-117.65
-81.30
-21.00
46.70
100.90
125.07
113.99
75.51
26.89
-12.79
-30.32
-23.35
-0.50
23.49
35.25
29.46
11.06
-7.82
-15.02
-5.11
17.55
41.44
54.05
48.72
27.53
-0.86
-26.74
-44.91
-56.29
-65.53
-76.06
-86.55
-91.00
-83.28
-62.50
-35.72
-15.63
-13.89
-34.11
-68.73
-102.71
-121.68
-119.62
-101.52
-78.95
-62.40
-54.79
-50.80
-41.63
-21.66
7.45
37.93
60.82
71.41
71.11
65.84
61.86
62.57
67.53
73.62
76.79
73.20
60.21
37.50
8.82
-17.93
-33.27
-30.96
-12.59
11.81
28.49
27.99
10.87
-12.64
-29.00
-29.62
-15.34
5.28
22.33
30.16
28.75
21.13
9.04
-8.21
-31.20
-56.82
-77.57
-84.98
-75.47
-53.30
-28.55
-10.68
-2.67
-0.01
4.64
15.01
28.22
36.99
35.38
23.94
9.85
2.01
4.42
12.72
16.60
6.83
-17.80
-48.77
-72.65
-79.43
-68.78
-50.11
-36.39
-35.42
-44.40
-51.68
-44.33
-16.91
24.38
65.10
90.81
95.04
81.58
59.96
38.54
20.16
3.40
-12.95
-26.01
-29.86
-20.58
-0.90
19.62
30.04
25.06
8.67
-8.57
-16.52
-11.73
1.26
13.91
19.74
17.86
12.34
8.50
9.16
13.73
19.54
23.81
24.92
22.16
15.77
7.02
-1.50
-6.55
-6.12
-1.09
4.76
7.07
3.99
-2.29
-6.67
-4.45
5.51
20.11
33.95
42.48
44.34
41.08
35.42
29.09
21.98
12.89
1.25
-11.71
-22.98
-29.03
-27.87
-20.61
-11.55
-6.37
-8.88
-18.43
-29.37
-33.84
-26.57
-8.55
12.80
27.98
30.94
22.48
9.15
-1.25
-4.19
-0.25
6.71
12.72
15.70
15.69
13.85
11.67
11.14
14.58
23.24
35.23
44.50
43.23
26.71
-1.87
-31.34
-48.02
-44.08
-22.63
4.28
23.16
27.05
18.40
5.51
-4.21
-8.67
-10.60
-13.61
-18.23
-21.40
-18.72
-7.85
9.81
29.67
45.77
52.39
45.64
25.15
-4.66
-35.00
-55.47
-58.75
-44.32
-18.71
8.14
27.99
37.94
40.07
38.38
35.24
29.88
19.99
4.73
-13.65
-30.36
-40.66
-43.03
-39.86
-35.82
-34.46
-35.33
-33.86
-24.26
-4.36
21.29
42.51
49.21
37.92
14.59
-8.58
-20.47
-17.87
-6.75
2.37
1.80
-8.30
-20.56
-26.13
-21.02
-8.88
1.62
2.79
-7.20
-23.29
-36.71
-39.94
-30.59
-12.09
8.12
22.47
26.73
21.81
12.78
5.74
4.33
7.74
11.79
11.94
6.47
-2.35
-9.88
-12.33
-9.39
-4.38
-2.09
-5.86
-16.09
-30.56
-45.74
-57.92
-63.96
-62.01
-52.49
-38.79
-26.04
-18.47
-16.62
-16.86
-14.30
-6.92
2.05
6.53
2.52
-7.87
-17.38
-18.86
-11.16
-0.29
5.08
0.47
-10.82
-20.33
-21.18
-13.26
-2.95
2.38
0.00
-6.59
-11.31
-10.55
-5.46
0.26
4.55
8.94
16.50
27.64
38.33
42.35
36.25
22.53
8.50
1.14
2.35
8.36
13.38
14.52
13.74
15.47
21.88
30.46
35.57
32.92
23.40
13.00
8.44
12.31
20.71
26.03
22.48
10.52
-3.22
-10.55
-7.50
2.64
11.89
13.16
5.17
-7.05
-16.36
-18.97
-16.88
-15.45
-18.19
-22.90
-22.89
-12.32
7.82
28.41
36.87
25.44
-2.52
-33.19
-49.51
-41.39
-12.17
22.99
45.63
45.16
24.82
-0.29
-13.09
-5.19
17.73
39.84
45.75
30.47
2.59
-22.04
-31.09
-23.95
-11.47
-7.64
-19.11
-39.81
-54.67
-49.52
-21.05
20.05
54.66
66.35
50.91
18.67
-11.36
-22.82
-11.01
14.83
37.69
43.43
28.97
3.36
-18.94
-27.61
-22.60
-12.53
-7.50
-11.48
-20.26
-25.60
-22.02
-10.90
1.59
9.85
13.32
15.84
21.54
30.72
39.30
42.07
36.61
24.58
10.02
-3.60
-15.23
-25.24
-33.38
-37.75
-35.83
-26.51
-11.04
7.81
27.93
48.50
68.91
86.94
97.83
95.82
77.13
42.52
-2.19
-47.36
-82.09
-97.44
-89.26
-60.41
-20.92
14.97
34.37
31.79
12.05
-11.88
-25.32
-19.15
6.40
42.83
78.57
104.02
114.02
107.53
85.58
50.56
7.20
-36.17
-69.26
-83.65
-77.80
-58.63
-38.85
-30.96
-41.60
-69.24
-105.79
-142.15
-169.29
-182.61
-182.25
-171.28
-153.18
-130.27
-107.17
-85.81
-68.58
-57.90
-55.01
-59.07
-66.81
-74.19
-78.68
-79.88
-78.52
-75.95
-74.32
-72.92
-68.07
-54.40
-26.43
19.39
81.51
153.31
224.14
283.04
320.80
333.93
325.63
304.17
278.74
255.27
235.16
216.28
195.69
172.25
148.83
127.18
108.24
91.64
76.18
60.72
44.64
27.78
10.85
-5.07
-18.99
-29.92
-37.48
-42.35
-45.45
-48.07
-51.77
-57.77
-66.97
-80.31
-98.56
-121.97
-149.67
-178.91
-205.30
-224.82
-234.98
-236.01
-230.83
-223.11
-215.30
-207.62
-197.90
-179.28
-147.02
-100.06
-41.63
21.88
84.01
140.27
188.04
225.74
252.46
267.32
270.70
264.36
251.00
233.56
215.71
197.61
177.71
154.54
127.18
96.31
63.98
31.82
0.69
-29.46
-59.27
-90.07
-122.66
-158.57
-199.74
-244.16
-290.14
-334.81
-374.06
-397.09
-397.21
-373.91
-334.42
-289.43
-247.20
-210.16
-174.82
-136.54
-94.42
-56.73
-31.19
-23.22
-31.44
-46.77
-55.75
-46.42
-13.42
40.26
105.13
170.84
228.74
274.40
306.43
323.90
325.65
311.89
286.49
257.16
233.56
222.34
224.01
232.91
239.81
235.95
215.90
177.86
122.62
53.27
-24.26
-100.61
-163.98
-203.39
-213.04
-195.03
-159.11
-119.04
-86.98
-69.58
-66.26
-70.60
-73.82
-68.51
-51.03
-22.51
11.94
44.76
68.06
75.91
66.54
43.53
14.77
-10.52
-25.90
-31.18
-32.47
-38.58
-55.47
-81.87
-108.79
-124.25
-120.38
-98.58
-69.56
-47.45
-41.90
-52.29
-68.15
-75.76
-66.59
-42.03
-12.15
10.66
19.05
14.28
4.81
0.89
9.45
31.49
63.31
99.31
134.12
162.95
180.63
181.71
162.75
125.14
76.38
27.72
-10.98
-35.97
-50.64
-61.76
-73.86
-85.31
-89.35
-79.64
-56.58
-29.66
-13.47
-19.58
-49.08
-90.52
-125.74
-139.42
-127.17
-97.14
-64.20
-41.11
-31.48
-29.41
-24.81
-10.85
11.93
37.30
58.94
75.49
91.46
113.28
143.62
178.21
207.43
222.04
218.83
202.61
183.34
170.38
167.62
172.08
176.32
172.51
155.90
126.16
87.28
46.48
12.12
-8.76
-13.04
-3.22
13.18
26.61
29.43
18.80
-2.96
-30.14
-56.35
-76.36
-86.88
-86.34
-75.10
-56.39
-36.11
-21.23
-16.27
-19.95
-25.35
-23.88
-11.54
7.59
22.89
23.90
7.97
-17.08
-37.14
-41.14
-28.67
-10.91
-3.77
-17.63
-50.61
-89.79
-119.45
-130.52
-125.28
-114.49
-109.93
-117.06
-132.88
-149.06
-158.25
-158.56
-153.71
-150.17
-152.67
-161.79
-174.10
-184.26
-187.77
-182.54
-169.44
-151.13
-130.78
-110.64
-90.95
-69.78
-43.21
-6.91
41.38
99.31
159.35
210.63
243.09
251.84
239.56
215.31
190.41
173.49
167.53
169.88
174.45
174.34
163.60
138.25
97.14
42.92
-17.38
-72.66
-110.06
-118.94
-94.87
-41.98
27.71
97.21
148.95
169.85
155.47
111.70
52.49
-5.41
-48.88
-72.33
-78.33
-74.64
-69.69
-69.81
-76.85
-89.01
-101.27
-112.09
-122.55
-134.30
-146.62
-156.44
-159.34
-151.44
-130.56
-96.53
-51.74
0.05
53.41
101.43
136.77
153.42
148.95
125.51
89.39
48.87
11.78
-16.91
-36.07
-47.81
-55.44
-61.52
-66.74
-69.86
-68.48
-59.31
-39.31
-7.12
35.56
83.42
128.37
161.80
177.32
172.45
149.22
113.05
71.05
30.96
-0.06
-16.37
-15.70
-1.46
17.30
29.12
25.74
6.55
-21.09
-46.34
-61.60
-66.46
-66.27
-66.84
-69.41
-69.92
-63.02
-47.39
-27.68
-11.22
-2.01
2.63
10.29
27.09
51.76
75.29
86.51
79.54
57.53
30.32
7.66
-6.22
-13.48
-18.47
-22.62
-22.76
-14.42
2.65
21.95
33.15
29.11
11.84
-7.63
-15.87
-6.32
15.40
33.91
32.88
5.22
-41.64
-88.91
-116.14
-112.26
-81.51
-40.84
-10.28
-1.93
-13.89
-32.45
-40.94
-29.31
0.89
38.65
70.84
89.54
95.33
94.88
94.88
97.05
96.88
87.20
63.84
29.33
-7.91
-38.22
-55.59
-60.17
-56.52
-49.38
-40.26
-27.17
-7.30
18.78
45.42
63.21
63.62
43.68
8.45
-30.56
-60.01
-69.98
-57.92
-28.60
8.31
42.24
65.83
76.90
77.86
73.19
66.11
55.80
38.47
9.62
-32.37
-84.05
-137.25
-182.26
-211.61
-222.84
-219.87
-209.79
-199.44
-191.83
-184.48
-170.91
-144.61
-105.80
-57.46
-10.06
26.23
45.72
49.87
46.55
46.16
57.20
83.85
125.44
177.34
234.45
291.24
342.31
382.74
408.55
417.85
411.93
395.40
374.00
353.24
334.84
316.68
294.67
265.54
229.30
189.64
152.09
116.51
82.44
47.58
8.96
-34.18
-79.04
-120.41
-153.44
-176.32
-190.90
-200.13
-207.01
-212.51
-215.55
-214.36
-207.70
-196.00
-181.49
-167.12
-155.01
-146.20
-140.28
-135.71
-130.74
-124.17
-115.93
-107.01
-98.94
-92.73
-88.86
-87.04
-86.39
-85.93
-85.03
-83.67
-82.30
-81.66
-82.27
-84.38
-87.88
-92.41
-97.60
-103.21
-109.16
-115.29
-121.45
-127.17
-131.59
-133.47
-131.40
-123.95
-109.94
-89.36
-61.99
-28.26
10.53
52.24
94.00
132.56
164.61
187.18
198.04
196.03
180.92
153.46
115.13
68.42
16.45
-37.56
-90.47
-139.50
-182.19
-216.68
-241.62
-256.23
-260.73
-255.41
-240.92
-218.35
-189.09
-154.78
-117.29
-78.52
-40.28
-4.08
28.87
57.62
81.48
100.06
113.21
120.99
123.60
121.40
114.92
104.83
91.88
76.80
60.32
43.13
25.86
9.05
-6.80
-21.23
-33.75
-44.03
-51.85
-57.24
-60.41
-61.75
-61.77
-60.95
-59.62
-57.97
-56.06
-53.97
-51.91
-50.20
-49.30
-49.56
-51.06
-53.44
-55.89
-57.42
-57.12
-54.84
-50.90
-46.08
-41.26
-36.93
-32.99
-28.59
-22.53
-13.71
-1.65
13.30
30.15
47.70
65.05
81.95
98.88
116.96
137.91
163.77
196.44
236.62
282.96
331.36
375.58
408.99
426.83
428.12
415.99
396.52
375.68
358.07
345.74
338.41
334.55
332.40
330.37
326.87
319.98
307.51
287.52
258.97
222.19
178.89
131.81
83.79
37.12
-6.81
-47.55
-85.04
-119.29
-150.05
-176.68
-198.44
-214.79
-225.68
-231.68
-233.78
-233.09
-230.54
-226.70
-221.74
-215.59
-208.14
-199.44
-189.77
-179.55
-169.24
-159.17
-149.53
-140.29
-131.36
-122.60
-113.96
-105.47
-97.22
-89.33
-81.89
-74.93
-68.44
-62.40
-56.78
-51.54
-46.66
-42.13
-37.94
-34.08
-30.53
-27.27
-24.28
-21.55
-19.08
-16.85
-14.85
-13.04
-11.43
-10.00
-8.75
-7.66
-6.72
-5.91
-5.21
-4.61
-4.10
-3.67
-3.30
-2.99
-2.72
-2.48
-2.28
-2.10
-1.94
-1.80
-1.67
-1.56
-1.47
-1.38
-1.30
-1.22
-1.16
-1.09
-1.03
-0.98
-0.93
-0.89
-0.85
-0.81
-0.78
-0.74
-0.71
-0.68
-0.65
-0.63
-0.61
-0.60
-0.58
-0.55
-0.50
-0.45
-0.43
-0.45
-0.56
-0.73
-0.93
-1.10
-1.21
-1.23
-1.19
-1.13
-1.13
-1.21
-1.38
-1.60
-1.78
-1.88
-1.85
-1.76
-1.68
-1.73
-2.00
-2.46
-3.01
-3.47
-3.71
-3.65
-3.40
-3.24
-3.42
-4.15
-5.41
-6.89
-8.18
-8.90
-8.90
-8.43
-8.04
-8.37
-9.81
-12.32
-15.31
-17.95
-19.50
-19.69
-18.92
-18.16
-18.51
-20.64
-24.48
-29.14
-33.30
-35.96
-36.68
-35.95
-34.81
-34.39
-35.51
-38.71
-44.27
-51.92
-60.32
-66.58
-66.73
-57.19
-36.75
-7.87
23.78
51.38
69.85
77.70
77.14
72.21
66.57
61.86
57.81
53.46
48.40
43.38
39.64
37.96
38.08
38.85
38.90
37.23
33.90
29.73
25.96
23.55
22.80
23.29
24.25
24.86
24.65
23.66
22.32
21.29
21.02
21.68
23.14
25.16
27.48
29.79
31.94
33.35
33.67
32.52
29.73
25.41
20.09
14.57
9.69
5.87
3.03
0.86
-1.06
-2.78
-3.92
-3.74
-1.31
4.06
12.48
23.53
36.62
50.39
62.25
68.67
66.63
55.61
38.50
20.42
6.22
-2.28
-7.73
-15.46
-29.94
-51.54
-75.97
-96.95
-109.94
-112.49
-104.36
-85.91
-57.80
-22.22
15.00
44.60
57.09
47.04
18.27
-18.16
-49.82
-69.19
-76.39
-77.53
-79.45
-85.17
-94.07
-101.83
-105.04
-103.30
-98.89
-93.54
-86.47
-74.29
-46.59
-5.97
38.39
75.84
99.76
108.58
105.15
94.47
80.98
67.51
54.33
42.66
34.20
31.67
35.82
46.14
60.26
74.32
83.49
82.59
69.80
45.11
15.51
-10.18
-25.18
-27.83
-21.12
-10.70
-3.45
-1.12
-3.70
-9.68
-17.65
-25.73
-32.03
-34.93
-34.06
-31.28
-29.49
-31.66
-39.24
-53.01
-71.09
-92.71
-118.24
-148.04
-180.35
-209.58
-227.38
-225.60
-200.75
-156.29
-101.61
-47.54
-2.07
32.30
57.14
74.02
81.49
74.55
48.01
0.64
-61.59
-126.21
-178.51
-207.22
-208.66
-187.49
-153.64
-117.60
-86.68
-63.18
-45.27
-29.00
-10.25
14.40
46.37
84.37
123.76
156.63
173.69
167.38
135.21
81.22
15.72
-47.53
-95.67
-120.39
-119.73
-97.58
-61.25
-18.32
25.67
68.26
109.51
150.28
190.14
225.78
251.25
260.12
249.08
220.45
182.52
146.65
122.37
113.28
116.05
123.35
128.61
129.41
127.58
126.47
127.50
128.78
126.75
119.47
108.53
98.36
92.80
91.78
91.01
84.89
71.05
53.09
39.27
37.47
50.30
73.52
98.84
119.25
132.78
142.16
151.03
159.60
163.15
155.17
132.46
98.51
62.65
35.13
21.49
19.92
22.81
21.27
9.44
-13.26
-43.08
-73.73
-98.61
-112.45
-113.16
-102.93
-88.17
-77.62
-78.88
-94.86
-121.90
-151.10
-172.64
-180.91
-177.61
-170.63
-169.47
-179.78
-200.21
-223.73
-242.74
-254.00
-260.66
-269.97
-288.32
-316.81
-349.96
-378.08
-391.82
-386.09
-361.62
-323.16
-276.51
-226.20
-174.61
-122.43
-70.02
-18.24
31.50
77.52
118.68
154.82
186.65
215.02
240.05
260.69
275.21
282.56
283.30
278.93
270.35
256.67
235.79
206.60
171.46
136.67
110.20
97.57
98.79
108.00
116.69
118.15
110.51
96.73
82.03
70.53
63.44
59.35
56.09
52.37
48.59
46.27
46.53
48.56
48.92
42.20
23.42
-9.07
-51.69
-96.27
-133.13
-155.30
-161.33
-155.17
-143.29
-130.86
-119.59
-108.13
-94.21
-76.84
-56.83
-36.07
-15.99
3.11
21.69
39.96
57.15
71.44
80.62
83.06
78.58
68.98
58.05
50.46
49.86
56.78
67.73
76.24
75.76
62.81
38.61
8.24
-22.13
-48.19
-68.89
-85.66
-100.26
-112.66
-120.54
-120.75
-111.53
-94.46
-74.71
-59.47
-54.95
-63.81
-83.97
-109.50
-132.84
-147.72
-151.38
-144.75
-131.29
-115.01
-98.94
-84.51
-72.15
-62.26
-56.18
-56.04
-63.49
-78.00
-95.71
-109.87
-112.96
-99.76
-69.24
-24.88
26.97
79.51
127.17
165.81
192.13
203.48
198.43
178.04
146.53
110.68
77.86
53.65
40.40
37.53
42.69
53.15
66.35
79.75
90.46
95.42
92.15
79.79
59.77
35.47
11.32
-8.74
-22.49
-30.05
-33.55
-36.11
-40.45
-47.61
-56.59
-64.71
-68.77
-66.53
-58.15
-46.53
-36.33
-32.02
-35.93
-47.30
-62.74
-77.90
-89.25
-95.06
-95.22
-90.30
-80.64
-66.11
-46.76
-23.62
0.86
23.33
40.63
50.89
54.13
52.04
47.29
42.73
40.69
42.69
49.29
60.28
74.59
90.31
104.88
115.47
119.73
116.55
106.65
92.38
76.88
62.68
50.64
39.73
27.94
13.76
-2.58
-19.08
-32.87
-41.86
-45.73
-46.00
-44.92
-43.98
-43.11
-40.90
-35.79
-27.28
-16.46
-5.44
3.77
10.17
14.02
16.27
17.62
17.90
16.21
11.71
4.50
-4.04
-11.67
-16.29
-16.85
-13.68
-8.07
-1.52
5.01
11.30
17.69
24.66
32.61
41.77
52.09
63.05
73.51
81.68
85.77
84.69
78.73
69.52
59.33
50.12
42.80
37.16
32.24
27.03
20.98
14.19
7.29
1.08
-3.75
-7.01
-9.04
-10.51
-12.12
-14.15
-16.34
-18.02
-18.59
-17.89
-16.36
-14.76
-13.73
-13.48
-13.77
-14.19
-14.43
-14.47
-14.33
-13.93
-12.84
-10.53
-6.76
-1.87
3.20
7.25
9.34
9.28
7.66
5.62
4.31
4.49
6.30
9.32
12.87
16.24
18.89
20.50
20.93
20.09
17.89
14.22
8.97
2.29
-5.38
-13.15
-19.92
-24.69
-26.80
-26.29
-23.79
-20.30
-16.81
-13.86
-11.43
-9.02
-6.07
-2.27
2.12
6.34
9.30
10.12
8.51
4.99
0.94
-1.82
-1.58
2.58
10.29
19.91
29.08
35.56
38.07
36.75
32.91
28.57
25.68
25.61
28.86
34.88
42.13
48.55
52.20
52.11
48.75
43.75
39.01
35.73
34.00
32.95
31.47
28.61
23.68
16.20
6.22
-5.24
-15.69
-22.03
-22.33
-17.60
-12.22
-12.11
-21.45
-39.99
-62.72
-82.54
-94.23
-97.56
-97.05
-99.07
-107.67
-122.05
-137.16
-146.83
-147.52
-140.22
-129.55
-120.56
-115.76
-114.03
-111.92
-106.42
-97.24
-87.18
-80.12
-78.59
-81.82
-86.13
-86.82
-80.72
-67.51
-49.48
-30.11
-12.20
2.86
14.80
23.41
27.91
27.27
21.32
11.95
3.09
-0.62
3.87
16.30
33.05
49.03
60.20
65.56
67.01
67.63
69.36
71.74
72.39
68.85
60.45
48.96
37.85
30.46
28.64
32.33
39.92
49.38
58.86
67.02
72.82
75.43
74.23
69.02
60.47
49.91
39.12
29.61
22.17
16.73
12.75
9.76
7.64
6.69
7.18
9.06
11.71
14.27
16.04
17.04
18.01
19.92
23.31
27.72
31.80
33.94
33.03
28.96
22.55
15.13
7.82
1.10
-5.26
-11.86
-19.12
-26.86
-34.27
-40.10
-43.25
-43.06
-39.57
-33.39
-25.58
-17.41
-10.12
-4.81
-2.10
-2.05
-4.04
-6.90
-9.41
-10.79
-10.98
-10.66
-10.70
-11.67
-13.57
-15.91
-18.04
-19.50
-20.16
-20.09
-19.38
-18.00
-15.73
-12.40
-8.11
-3.28
1.45
5.45
8.41
10.44
11.89
13.15
14.34
15.41
16.26
16.86
17.37
18.01
19.03
20.61
22.86
25.73
28.90
31.77
33.51
33.44
31.39
27.92
24.16
21.28
19.86
19.71
19.97
19.63
18.03
15.07
11.16
7.01
3.34
0.86
-0.05
0.51
1.76
2.26
0.23
-5.84
-16.47
-30.77
-46.46
-60.57
-70.31
-73.93
-71.28
-63.72
-53.46
-42.75
-33.20
-25.51
-19.72
-15.71
-13.42
-12.78
-13.43
-14.45
-14.53
-12.52
-8.06
-1.93
4.11
8.15
8.89
6.16
0.94
-5.26
-11.02
-15.42
-18.01
-18.74
-17.62
-14.86
-10.99
-6.89
-3.55
-1.63
-1.00
-0.86
-0.10
2.08
5.68
10.03
14.22
17.61
20.11
21.96
23.33
24.14
24.09
23.04
21.18
19.07
17.19
15.68
14.26
12.53
10.40
8.27
6.81
6.52
7.40
8.86
10.14
10.76
10.86
11.03
11.95
13.94
16.81
20.01
22.92
25.11
26.40
26.73
26.20
24.99
23.55
22.51
22.49
23.76
26.02
28.46
30.09
30.42
29.63
28.62
28.40
29.56
31.91
34.69
37.04
38.46
38.83
38.05
35.55
30.36
21.65
9.57
-4.28
-17.20
-26.56
-31.13
-31.55
-29.92
-28.42
-27.96
-27.68
-25.62
-20.05
-10.59
1.47
13.83
24.48
32.51
38.32
43.02
47.56
52.00
55.52
56.93
55.48
51.33
45.60
39.93
35.68
33.31
32.13
30.59
27.02
20.27
9.97
-3.61
-20.16
-39.65
-62.26
-87.66
-113.96
-137.17
-151.95
-153.55
-140.50
-116.21
-88.76
-67.95
-61.02
-69.32
-87.96
-108.55
-123.70
-130.75
-132.12
-132.78
-136.28
-142.40
-147.70
-148.40
-143.13
-133.57
-122.73
-112.11
-100.20
-83.20
-57.57
-22.86
17.14
55.76
86.40
105.33
113.20
114.34
114.50
118.22
127.02
139.09
150.57
157.64
158.44
153.77
146.13
138.00
130.41
122.63
113.33
102.10
90.37
80.74
75.53
75.15
77.33
78.02
73.34
61.79
45.15
27.87
14.92
9.71
12.76
21.88
33.47
43.62
49.23
48.06
38.89
21.53
-2.68
-30.32
-56.42
-75.95
-86.00
-87.51
-84.86
-83.84
-88.46
-98.92
-111.50
-120.99
-123.89
-120.86
-116.84
-119.09
-134.23
-165.46
-211.17
-265.13
-318.06
-359.77
-381.74
-379.23
-352.33
-305.67
-246.47
-181.99
-117.55
-56.43
-0.66
47.44
85.07
110.34
124.15
131.27
139.01
153.73
177.23
205.15
228.55
237.87
227.72
199.60
161.08
121.98
89.72
66.40
49.17
33.26
15.63
-3.28
-20.25
-31.94
-37.32
-38.46
-38.78
-40.72
-44.28
-47.12
-46.35
-40.29
-29.49
-16.07
-2.17
11.33
24.78
38.89
53.41
66.46
74.58
74.04
62.53
40.74
12.64
-15.60
-38.09
-51.38
-55.45
-52.81
-46.64
-38.95
-30.09
-19.54
-7.03
6.79
20.51
32.61
42.30
49.65
55.10
58.86
60.68
60.26
57.74
54.00
50.40
48.39
48.91
52.14
57.24
62.73
66.92
68.47
66.89
62.54
56.42
49.60
42.89
36.62
30.69
24.70
18.24
11.09
3.43
-4.06
-10.32
-14.24
-15.15
-13.18
-9.38
-5.57
-3.61
-4.99
-10.24
-18.85
-29.40
-39.86
-47.97
-51.46
-48.52
-38.17
-20.68
2.32
27.84
52.44
73.27
88.58
98.01
102.41
103.36
102.61
101.49
100.37
99.12
97.53
95.46
92.90
89.96
87.01
84.68
83.81
84.63
87.17
91.44
97.16
103.71
110.45
117.29
124.93
134.45
144.90
154.84
163.05
168.53
170.17
167.30
160.31
150.31
138.09
119.91
92.40
55.73
13.78
-28.00
-64.64
-93.03
-113.34
-129.03
-150.42
-184.54
-229.90
-278.22
-320.11
-349.17
-363.24
-364.08
-356.56
-353.45
-363.84
-387.85
-418.71
-449.32
-475.73
-497.35
-515.57
-489.65
-403.01
-276.89
-150.82
-50.84
15.06
48.90
58.46
56.39
56.13
60.57
67.48
73.48
75.79
72.31
63.62
53.48
47.62
47.33
45.47
35.42
16.83
-4.62
-21.92
-30.19
-27.79
-15.75
1.89
16.85
23.08
20.33
13.23
8.46
13.12
26.70
49.26
78.87
110.68
140.19
165.76
188.27
210.03
233.54
260.40
291.54
326.02
361.11
393.37
419.43
434.93
435.44
418.89
387.11
346.25
303.91
265.67
232.67
201.58
165.95
121.11
67.82
12.05
-39.09
-81.72
-117.13
-153.31
-191.05
-226.54
-253.95
-267.57
-263.25
-241.22
-205.23
-161.29
-114.98
-70.60
-31.80
-0.26
27.16
55.08
85.93
119.55
151.06
173.94
181.99
171.32
143.14
98.53
54.05
25.15
17.72
25.95
43.58
65.07
85.53
100.90
107.95
105.57
91.00
62.74
18.22
-39.00
-101.27
-161.32
-215.15
-262.69
-305.78
-348.04
-390.83
-436.09
-477.33
-503.13
-504.01
-478.00
-431.92
-378.63
-334.10
-279.01
-215.82
-155.42
-102.79
-52.14
3.43
63.95
123.76
175.43
214.84
237.55
245.89
245.05
238.23
224.52
201.05
166.88
124.71
81.41
41.54
10.92
-5.99
-8.65
-0.41
13.70
29.89
46.59
63.82
79.17
90.60
95.64
90.52
72.47
42.37
5.11
-31.89
-62.11
-83.20
-95.36
-100.54
-101.66
-101.66
-102.82
-106.36
-112.14
-118.48
-122.38
-119.46
-105.57
-79.12
-42.53
-1.88
35.24
62.82
78.68
84.53
84.24
81.22
76.93
71.13
63.46
54.70
47.08
43.14
44.05
48.55
53.44
55.10
51.36
42.93
32.61
23.92
19.38
19.04
20.84
22.25
21.87
19.87
17.06
13.43
7.93
-0.51
-11.07
-20.05
-22.32
-14.92
0.50
17.80
29.40
31.10
24.44
15.60
11.68
16.21
27.21
39.54
48.57
52.93
55.47
60.36
69.88
82.43
94.24
98.92
91.89
72.70
44.86
15.38
-8.33
-21.94
-25.72
-23.87
-22.67
-25.85
-30.50
-31.49
-19.35
12.02
60.21
113.92
157.40
176.59
165.63
128.76
77.97
27.75
-11.52
-37.79
-56.41
-71.79
-88.30
-107.70
-129.47
-152.98
-178.93
-202.21
-220.01
-230.81
-231.85
-219.21
-188.63
-139.22
-75.60
-6.91
53.75
103.05
140.79
168.79
188.04
197.09
192.35
170.60
131.73
79.35
21.17
-35.29
-84.86
-126.37
-161.67
-194.06
-226.38
-260.06
-294.88
-329.10
-360.29
-384.46
-397.06
-394.67
-377.18
-348.58
-315.34
-283.78
-257.61
-237.97
-223.55
-212.44
-203.01
-194.66
-187.30
-180.32
-172.09
-160.37
-143.56
-121.09
-93.48
-60.97
-24.18
15.88
57.91
101.10
145.16
190.24
237.03
286.63
341.67
402.50
465.26
522.23
564.59
585.73
582.93
557.29
512.25
455.61
394.71
335.71
284.23
246.43
228.25
232.66
257.56
296.39
345.30
400.32
456.97
509.08
549.20
569.95
565.76
534.90
455.12
325.03
164.79
7.73
-119.10
-206.32
-259.01
-287.40
-300.12
-301.89
-291.05
-267.46
-234.90
-200.78
-172.07
-151.91
-139.71
-132.95
-128.51
-120.95
-107.37
-88.55
-68.88
-52.87
-42.43
-37.78
-38.06
-42.50
-49.27
-57.89
-65.48
-72.05
-78.12
-82.89
-85.75
-86.06
-83.53
-77.93
-69.16
-57.68
-45.21
-37.97
-34.25
-31.59
-27.37
-19.67
-7.21
11.59
37.94
71.65
111.64
156.66
203.78
249.31
292.00
327.57
352.89
366.70
369.16
361.40
345.37
322.56
294.49
258.75
213.00
157.76
96.44
33.63
-26.77
-82.41
-132.95
-179.02
-228.07
-286.68
-356.83
-435.32
-516.24
-594.23
-666.29
-731.58
-790.53
-852.51
-925.33
-1010.60
-1102.72
-1191.85
-1268.50
-1326.33
-1361.84
-1321.40
-1176.15
-931.73
-629.26
-322.83
-52.98
163.02
325.61
444.47
531.17
586.86
610.50
605.36
578.69
538.58
490.86
438.77
384.91
332.19
277.92
220.20
161.32
106.39
59.60
24.38
0.70
-11.43
-11.88
-4.01
8.36
24.77
47.49
78.41
114.33
149.35
180.50
206.78
236.35
268.06
298.95
328.28
359.34
387.10
412.09
439.85
474.07
513.74
552.65
584.86
606.49
616.07
613.53
577.22
500.16
390.32
266.75
147.44
43.76
-40.46
-106.09
-156.43
-194.09
-218.09
-228.88
-229.32
-224.74
-219.47
-215.54
-213.06
-211.89
-211.61
-209.90
-206.04
-201.28
-197.90
-196.85
-197.58
-196.89
-191.38
-177.95
-153.57
-118.55
-77.46
-38.52
-11.09
-1.51
-9.61
-29.43
-51.57
-66.79
-70.47
-63.74
-52.06
-41.52
-36.00
-35.94
-39.46
-42.71
-42.31
-35.78
-22.58
-4.88
13.04
26.14
30.96
26.45
14.70
-0.21
-13.80
-22.85
-26.22
-23.60
-16.47
-4.90
10.64
28.72
46.74
61.58
70.66
72.39
67.52
58.56
48.71
40.54
35.21
32.30
30.23
29.21
26.27
20.15
11.13
0.28
-11.43
-23.45
-35.64
-48.29
-61.70
-76.38
-92.03
-107.59
-122.07
-134.87
-145.83
-155.13
-163.27
-170.77
-178.41
-186.40
-194.12
-200.97
-206.53
-210.48
-212.39
-211.63
-207.14
-197.27
-184.55
-169.54
-152.66
-134.52
-115.80
-97.08
-78.71
-60.69
-42.83
-24.88
-6.05
13.82
34.38
54.95
74.88
93.90
112.31
130.85
150.28
171.67
195.21
220.36
246.16
271.65
296.28
320.15
343.80
367.96
393.90
422.85
455.66
492.11
530.11
565.45
592.41
605.41
600.94
579.07
543.06
498.03
448.80
398.49
348.13
297.61
246.93
197.19
150.50
108.88
73.34
43.48
18.15
-3.59
-21.70
-35.40
-43.86
-47.43
-48.14
-49.10
-53.22
-61.66
-73.29
-85.14
-93.94
-97.63
-96.53
-93.05
-90.54
-91.89
-98.09
-107.91
-118.36
-126.05
-128.62
-125.71
-118.87
-110.54
-103.02
-97.61
-94.96
-95.38
-98.84
-104.01
-107.39
-103.64
-87.63
-57.69
-17.77
22.75
52.76
64.12
55.37
32.10
3.77
-20.91
-37.77
-47.67
-54.30
-60.80
-67.60
-72.74
-73.89
-70.64
-65.29
-61.95
-63.96
-71.93
-82.97
-92.21
-95.39
-91.00
-80.94
-69.13
-59.36
-53.45
-50.80
-49.37
-47.23
-43.83
-40.20
-38.43
-40.55
-47.40
-58.09
-70.14
-80.54
-86.96
-88.87
-87.85
-86.89
-88.81
-95.01
-104.80
-115.84
-125.37
-131.56
-134.17
-134.34
-133.84
-134.04
-135.37
-137.31
-138.87
-139.21
-138.08
-135.79
-132.93
-129.89
-126.65
-122.96
-118.72
-114.31
-110.35
-107.22
-104.51
-101.09
-95.61
-87.43
-77.02
-65.80
-55.35
-46.62
-39.54
-33.40
-27.47
-21.47
-15.70
-10.53
-6.11
-2.09
2.07
6.74
11.78
16.63
20.50
22.72
23.01
21.61
19.17
16.54
14.50
13.63
14.14
15.99
19.08
23.31
28.58
34.65
41.00
46.73
50.75
51.99
49.72
43.85
34.97
24.16
12.86
2.44
-5.99
-11.68
-14.48
-14.73
-13.20
-10.84
-8.55
-6.84
-5.89
-5.54
-5.56
-5.91
-6.81
-8.59
-11.45
-15.17
-19.09
-22.34
-24.18
-24.47
-23.67
-22.76
-22.72
-24.45
-27.99
-32.38
-36.01
-37.14
-34.84
-29.11
-20.67
-10.68
-0.45
9.38
19.08
29.44
41.21
54.17
67.49
80.09
91.25
100.21
107.30
113.72
120.84
129.54
138.97
147.73
154.61
159.01
159.24
155.37
149.42
144.01
141.25
139.51
136.33
130.07
120.59
104.92
82.27
54.22
22.88
-9.87
-47.37
-92.23
-143.79
-198.63
-258.24
-321.32
-382.52
-434.83
-471.18
-494.05
-508.27
-518.59
-530.06
-555.61
-602.36
-666.63
-735.38
-789.34
-819.27
-821.27
-796.68
-698.16
-517.83
-291.18
-74.28
71.36
161.03
216.11
251.40
279.78
305.14
320.54
322.83
316.77
312.04
320.13
340.56
369.61
404.66
443.30
477.45
502.02
516.81
524.55
529.87
530.36
524.15
513.18
500.05
483.04
460.91
434.71
407.43
383.53
362.70
343.61
325.72
307.05
283.30
251.80
213.38
171.39
130.07
90.79
48.42
4.74
-33.45
-59.07
-68.90
-64.22
-48.91
-27.23
-3.49
18.89
39.93
58.58
72.62
79.67
78.15
67.76
49.06
22.58
-9.62
-45.07
-82.84
-123.38
-167.45
-214.75
-262.90
-307.49
-343.01
-364.42
-368.68
-356.39
-331.23
-298.30
-262.53
-227.82
-197.08
-172.37
-154.47
-142.36
-133.36
-123.75
-110.08
-90.90
-67.45
-42.96
-20.98
-3.52
9.38
18.90
26.13
31.14
33.09
31.18
25.61
17.54
8.26
-1.89
-14.00
-29.84
-50.50
-75.28
-101.81
-127.12
-149.48
-169.31
-188.70
-209.60
-232.03
-253.64
-270.60
-279.98
-281.28
-276.71
-269.94
-263.87
-259.03
-253.42
-243.82
-227.77
-205.12
-177.96
-149.38
-121.59
-94.88
-67.85
-38.72
-6.83
26.52
58.60
86.79
110.02
129.62
148.89
171.53
199.91
233.95
270.86
306.02
334.51
352.68
359.24
355.73
345.41
331.87
317.71
303.85
289.87
275.09
259.41
243.71
229.48
217.97
209.54
203.52
198.65
193.72
188.11
181.87
175.28
168.27
160.24
150.30
137.90
123.25
107.43
92.00
78.39
67.40
59.05
52.66
47.24
41.95
36.44
31.05
26.87
25.25
27.05
31.78
36.81
37.68
29.33
8.10
-26.61
-71.62
-120.77
-166.69
-202.73
-224.54
-230.43
-221.27
-199.69
-169.42
-134.65
-99.49
-67.52
-41.38
-22.49
-11.03
-6.14
-6.32
-9.66
-14.25
-18.43
-21.24
-22.55
-22.90
-23.05
-23.47
-24.09
-24.29
-23.32
-20.53
-15.77
-9.24
-1.43
7.05
15.38
22.62
27.88
30.55
30.67
28.81
25.87
22.56
19.11
15.19
10.14
3.44
-4.85
-13.88
-22.18
-28.07
-30.26
-28.41
-23.07
-15.62
-7.68
-0.62
4.71
8.02
9.35
8.97
7.28
5.05
3.40
3.70
7.22
14.57
25.54
39.06
53.63
67.70
80.07
90.02
97.37
102.30
105.06
105.69
103.83
98.64
88.91
73.62
52.42
25.99
-4.05
-35.47
-65.67
-91.96
-111.80
-123.00
-124.25
-115.44
-98.14
-75.41
-51.17
-28.92
-10.76
3.25
14.51
25.03
36.48
49.35
62.83
75.21
84.75
90.30
91.79
89.64
84.62
77.97
71.26
65.93
62.94
62.84
65.16
68.99
71.96
71.59
66.84
58.99
50.83
45.09
43.55
45.53
49.08
49.95
44.23
30.80
12.27
-6.73
-22.23
-31.87
-36.88
-39.94
-46.76
-63.12
-92.13
-132.68
-180.78
-231.96
-282.00
-329.31
-358.09
-353.48
-312.81
-249.04
-179.12
-112.85
-57.63
-7.98
37.24
75.24
99.31
102.79
82.03
39.53
-15.73
-68.59
-101.55
-103.86
-74.72
-24.75
29.33
71.12
89.79
81.73
49.85
2.87
-48.00
-90.09
-113.49
-113.85
-93.33
-58.99
-19.92
15.76
43.69
62.54
73.24
76.81
73.58
63.98
50.23
36.39
27.10
25.76
32.07
42.49
51.73
55.20
50.51
38.83
23.77
9.70
0.08
-3.48
-1.16
5.35
13.53
19.89
20.62
12.95
-3.35
-25.11
-45.81
-58.54
-58.64
-45.91
-24.62
-1.43
17.78
29.98
35.32
36.00
34.19
30.93
26.56
20.91
13.95
6.04
-2.64
-12.31
-23.92
-38.23
-54.49
-69.55
-77.57
-74.06
-57.39
-30.67
-0.90
23.51
36.27
35.75
25.11
10.06
-3.80
-12.68
-15.72
-14.75
-12.94
-14.10
-21.49
-36.39
-57.03
-78.70
-94.32
-98.79
-90.46
-71.93
-48.67
-26.56
-9.51
1.78
9.50
17.45
29.21
47.01
70.45
96.72
121.47
140.18
150.22
151.29
145.28
134.86
122.58
109.98
98.37
89.43
84.95
85.80
90.34
94.58
94.03
86.68
74.25
61.98
55.66
57.62
65.50
73.59
76.54
72.54
64.32
56.37
52.50
53.36
56.19
56.78
52.01
41.34
26.58
10.49
-5.26
-19.53
-31.94
-43.02
-53.68
-65.17
-78.81
-96.27
-114.30
-132.62
-151.44
-170.51
-188.35
-201.81
-206.62
-199.34
-179.53
-151.57
-123.36
-101.77
-90.04
-87.21
-90.05
-95.54
-102.99
-113.72
-129.93
-150.52
-168.08
-171.41
-151.29
-106.00
-42.99
23.30
76.90
104.06
98.96
65.60
14.93
-40.23
-88.98
-123.62
-139.90
-125.93
-79.96
-14.36
50.59
99.28
126.79
136.69
135.92
129.95
121.02
107.07
85.85
57.98
27.11
-2.24
-28.05
-48.95
-64.63
-75.14
-81.48
-83.85
-81.19
-72.27
-57.36
-38.88
-20.42
-5.74
2.61
3.14
-3.61
-14.82
-26.62
-35.33
-37.97
-32.50
-18.57
2.09
25.02
43.84
52.16
45.97
25.61
-4.10
-35.65
-62.49
-82.28
-97.68
-114.85
-140.05
-176.30
-221.89
-271.05
-316.05
-349.42
-365.39
-359.28
-329.54
-278.56
-212.52
-139.95
-69.60
-8.30
40.12
74.90
99.89
118.91
134.25
146.98
158.54
171.51
188.69
211.55
239.31
273.55
313.45
355.78
396.31
432.35
464.05
493.71
524.36
558.45
602.40
658.01
720.02
777.01
816.11
828.35
811.46
770.02
679.15
536.14
360.23
184.22
35.40
-75.28
-149.57
-193.90
-214.75
-218.25
-204.87
-177.27
-141.71
-105.76
-76.38
-56.34
-44.51
-37.83
-33.76
-26.83
-14.80
0.05
12.08
15.43
6.47
-16.42
-49.85
-90.49
-132.16
-169.56
-199.38
-220.52
-233.63
-240.35
-242.88
-243.35
-243.32
-241.59
-236.58
-227.91
-217.24
-207.70
-202.41
-203.34
-210.93
-224.76
-243.48
-265.66
-289.00
-309.27
-320.45
-316.96
-296.22
-260.09
-213.77
-162.79
-111.59
-62.09
-15.20
26.78
58.86
75.00
71.40
49.55
16.04
-22.87
-63.28
-105.07
-150.64
-202.11
-257.78
-310.70
-349.97
-364.67
-351.24
-312.03
-253.55
-183.99
-112.57
-48.10
2.05
33.55
45.73
36.93
8.14
-36.52
-90.80
-148.84
-206.04
-258.20
-299.87
-298.76
-236.81
-121.20
16.49
140.44
229.78
282.87
310.15
324.76
335.06
337.46
323.79
289.19
236.89
174.90
114.50
64.92
30.96
13.15
5.41
0.72
-5.02
-12.52
-21.60
-33.38
-50.21
-74.15
-105.19
-137.86
-166.07
-182.81
-182.70
-165.14
-134.91
-99.11
-64.31
-33.96
-9.11
10.13
23.74
30.86
29.90
20.20
5.17
-9.01
-14.81
-5.76
21.47
67.33
129.06
200.77
273.54
338.48
386.60
411.90
413.88
397.86
373.55
351.10
336.83
320.72
293.17
246.77
181.88
107.52
35.90
-23.90
-69.35
-102.78
-131.63
-157.99
-179.48
-190.63
-186.24
-164.20
-126.48
-78.71
-29.72
10.59
35.30
40.44
26.31
-2.62
-39.49
-77.56
-112.55
-143.86
-174.26
-206.84
-244.30
-287.25
-333.36
-377.75
-414.44
-438.18
-446.08
-438.49
-418.08
-389.08
-355.38
-319.46
-282.31
-244.54
-207.38
-172.85
-142.90
-117.72
-95.56
-73.61
-49.20
-21.26
8.98
38.71
65.09
86.86
105.51
124.41
146.55
173.95
206.82
242.96
278.69
310.81
337.69
360.67
383.37
409.33
442.46
485.53
537.31
591.72
639.50
670.36
677.48
659.97
621.03
569.07
514.60
464.80
421.82
384.38
348.72
311.54
271.20
225.21
174.22
122.87
76.88
41.81
22.49
6.43
-17.76
-37.67
-49.41
-58.58
-64.33
-63.58
-61.78
-62.88
-60.62
-56.32
-58.52
-74.30
-105.20
-147.27
-195.33
-244.32
-288.66
-323.61
-345.65
-352.56
-347.13
-335.45
-325.08
-324.31
-339.28
-371.22
-417.63
-473.84
-533.40
-590.23
-637.86
-669.79
-681.88
-673.77
-648.59
-612.50
-572.47
-533.13
-496.46
-461.58
-426.06
-388.02
-346.94
-303.29
-258.14
-212.66
-167.27
-121.89
-76.24
-30.49
14.32
56.49
94.23
126.28
152.29
173.14
190.74
207.25
224.23
242.16
260.46
278.02
293.86
307.76
320.44
333.29
348.16
366.55
389.32
416.35
446.30
476.45
502.78
520.72
526.40
518.69
499.28
472.19
442.18
412.94
385.80
359.68
332.50
303.07
273.74
248.75
232.20
225.86
228.24
235.40
242.84
247.26
247.34
245.40
243.79
243.68
244.73
245.97
246.63
246.29
244.09
238.19
228.71
215.57
198.99
179.44
157.83
135.05
111.99
89.50
52.58
-4.90
-79.86
-160.44
-232.55
-286.60
-321.06
-339.30
-346.14
-345.69
-337.83
-321.58
-296.57
-264.64
-228.65
-193.48
-163.14
-140.39
-126.68
-120.07
-117.24
-115.02
-111.96
-107.12
-102.73
-101.18
-103.95
-111.61
-122.69
-134.62
-145.50
-156.20
-165.04
-176.03
-194.44
-218.61
-246.42
-275.60
-302.77
-322.74
-340.13
-346.81
-335.66
-304.48
-258.58
-202.74
-150.31
-114.35
-102.00
-111.97
-128.41
-135.91
-122.98
-87.55
-37.88
12.93
55.91
88.97
115.01
139.37
163.09
184.50
199.92
205.46
198.46
179.37
150.41
113.69
71.58
24.94
-22.94
-64.27
-90.66
-98.04
-88.16
-67.90
-46.23
-29.75
-21.51
-20.62
-24.45
-30.88
-39.43
-50.04
-61.87
-73.11
-81.22
-84.49
-82.70
-78.09
-73.30
-71.24
-73.47
-79.37
-86.78
-92.82
-94.99
-92.04
-84.47
-74.38
-64.80
-58.20
-55.21
-54.81
-54.69
-52.08
-44.90
-32.59
-16.12
2.59
19.23
32.01
41.43
49.68
59.68
73.79
93.25
118.34
148.55
182.49
217.66
249.46
271.47
277.38
263.21
229.07
178.95
118.49
52.09
-18.74
-95.14
-178.15
-265.47
-349.98
-421.30
-469.62
-489.82
-483.56
-457.81
-421.80
-383.15
-345.75
-309.65
-273.16
-235.08
-196.00
-157.84
-122.36
-90.04
-59.78
-29.67
1.63
34.11
66.34
96.14
121.95
143.53
162.12
179.91
199.08
220.91
245.32
271.08
296.62
321.11
344.97
369.92
398.05
430.60
466.73
503.20
535.09
557.45
567.06
563.23
547.79
524.48
497.89
472.31
450.79
434.43
422.19
411.56
398.73
380.03
353.22
318.44
278.19
236.33
196.72
162.24
134.92
115.08
101.75
93.13
87.15
81.72
74.83
64.60
49.51
29.49
4.87
-23.60
-54.69
-86.55
-117.10
-144.42
-167.07
-189.29
-210.43
-226.55
-232.45
-224.53
-202.19
-167.59
-124.67
-77.85
-31.82
9.60
42.65
64.55
73.98
71.34
57.83
34.52
2.57
-37.64
-85.95
-142.97
-208.91
-282.12
-357.90
-428.23
-483.29
-514.45
-517.92
-496.61
-460.53
-423.80
-399.74
-396.06
-412.21
-439.69
-465.60
-477.34
-466.19
-429.78
-372.14
-302.02
-230.10
-165.91
-115.00
-77.58
-49.06
-22.18
9.51
48.80
93.83
139.34
179.27
209.46
228.84
238.83
241.47
237.89
227.67
209.72
183.81
151.30
115.23
79.12
45.84
16.97
-7.20
-26.98
-43.04
-56.48
-69.10
-82.92
-99.16
-117.05
-133.77
-145.86
-151.49
-152.17
-152.77
-159.50
-176.74
-204.94
-240.14
-275.41
-303.56
-319.22
-319.78
-305.19
-276.95
-237.29
-188.81
-134.53
-78.42
-25.68
18.04
48.15
63.29
66.93
66.79
72.14
89.73
120.97
161.67
204.56
242.97
273.70
297.65
318.38
339.94
365.22
395.15
428.51
461.66
488.83
503.54
500.76
478.78
439.65
388.12
329.46
267.66
205.09
143.98
88.38
44.39
17.73
10.24
17.88
31.76
41.68
39.59
21.89
-10.34
-52.92
-100.94
-150.51
-199.01
-244.31
-280.98
-301.47
-300.18
-277.40
-239.31
-194.53
-150.51
-112.12
-81.58
-58.94
-43.29
-33.73
-29.27
-28.68
-30.37
-32.48
-33.15
-30.63
-23.40
-10.94
5.63
24.11
41.90
56.86
67.68
74.45
77.41
77.14
73.81
66.75
54.72
36.64
12.15
-18.04
-52.42
-89.26
-125.44
-156.26
-175.83
-178.86
-163.04
-130.91
-89.80
-49.55
-18.79
-1.47
3.73
1.48
-3.18
-7.33
-10.81
-14.81
-19.95
-25.76
-29.36
-27.81
-19.58
-4.95
14.90
38.73
65.99
96.13
127.10
154.64
172.53
174.94
158.86
125.95
82.02
34.98
-8.38
-44.53
-73.32
-96.87
-117.52
-136.73
-154.90
-172.27
-189.35
-206.88
-224.71
-240.66
-250.12
-247.46
-228.32
-192.17
-143.04
-88.03
-34.21
14.32
56.66
93.73
126.85
155.45
176.14
184.16
176.01
152.03
116.55
76.34
38.02
6.17
-17.58
-34.35
-46.67
-57.27
-68.12
-79.91
-91.96
-102.69
-110.45
-114.47
-115.17
-113.45
-109.30
-100.99
-85.49
-59.91
-23.33
22.07
71.32
118.10
156.77
183.94
199.12
204.19
202.37
197.00
190.55
184.09
177.59
170.71
163.52
156.76
151.24
147.10
143.28
137.90
129.13
116.09
99.41
80.65
61.58
43.48
27.07
12.69
0.74
-8.43
-14.82
-18.95
-21.94
-24.90
-28.33
-31.80
-34.13
-34.04
-31.01
-25.48
-18.77
-12.25
-6.66
-1.90
2.64
7.56
12.97
18.42
23.11
26.01
26.27
23.65
18.85
13.55
10.22
11.56
19.63
35.03
56.35
80.60
104.22
123.80
136.86
142.21
140.56
134.91
130.48
132.93
147.61
178.16
225.05
284.44
347.93
403.76
439.34
444.50
412.63
343.94
245.81
130.79
12.73
-97.08
-191.98
-269.50
-329.69
-376.07
-412.01
-439.60
-459.41
-471.45
-476.31
-475.35
-470.34
-463.06
-458.62
-461.86
-475.72
-500.01
-531.98
-567.84
-603.87
-636.61
-640.55
-597.40
-502.39
-368.83
-220.67
-79.85
40.80
137.14
210.38
264.31
299.89
318.07
321.08
313.42
300.69
287.65
277.13
270.11
266.49
263.19
257.11
247.03
234.25
221.44
210.72
202.83
197.17
192.62
186.61
177.40
164.25
148.37
131.83
115.98
100.99
86.07
70.36
52.86
33.03
11.89
-8.70
-27.14
-43.01
-57.13
-71.04
-86.29
-100.97
-116.81
-134.67
-153.36
-169.30
-177.15
-171.76
-150.65
-115.79
-73.53
-32.96
-1.47
17.63
25.46
26.09
23.83
21.30
18.88
15.98
11.82
7.22
3.76
2.61
3.72
5.85
7.25
6.45
3.12
-2.15
-7.86
-12.43
-15.05
-15.98
-16.23
-17.15
-19.73
-24.24
-30.30
-36.93
-43.07
-48.08
-51.87
-54.68
-56.85
-58.52
-59.40
-58.92
-56.84
-52.42
-45.56
-36.68
-26.59
-16.28
-6.65
1.64
8.26
13.07
16.16
17.63
17.62
16.43
14.40
11.94
9.42
7.04
4.84
2.72
0.42
-2.28
-5.42
-8.82
-12.01
-14.42
-15.54
-15.05
-12.82
-8.93
-3.62
2.96
10.70
19.69
29.69
40.00
49.40
56.27
59.05
56.61
48.79
36.49
21.70
6.54
-7.52
-20.06
-31.72
-43.64
-56.64
-70.47
-83.64
-93.45
-97.57
-95.04
-86.85
-75.61
-64.24
-54.50
-45.59
-37.31
-27.01
-12.00
9.03
35.57
65.43
95.02
119.78
134.61
135.13
119.75
90.75
54.48
19.64
-5.77
-17.64
-16.66
-7.13
6.11
20.89
38.53
62.50
95.45
135.95
176.92
207.09
214.75
192.98
143.54
77.66
12.38
-35.00
-53.14
-40.25
-3.96
42.12
83.59
109.88
116.38
104.33
78.96
47.14
15.20
-12.19
-32.47
-44.76
-49.24
-46.99
-40.08
-31.55
-24.99
-23.44
-28.03
-37.32
-47.76
-55.31
-57.21
-52.94
-44.17
-33.98
-25.94
-22.84
-26.14
-35.39
-48.08
-60.08
-66.74
-64.47
-52.24
-32.07
-8.24
14.35
32.11
43.73
50.02
52.76
53.41
52.36
49.01
42.63
33.10
21.27
8.70
-2.88
-12.14
-18.41
-21.57
-21.99
-20.35
-17.52
-14.49
-12.10
-10.79
-10.48
-10.85
-11.64
-12.95
-15.11
-18.27
-21.87
-24.56
-24.66
-21.03
-13.91
-4.97
3.24
8.43
9.45
6.69
1.75
-3.33
-6.77
-7.54
-5.46
-1.11
4.37
9.49
12.70
12.78
9.21
2.34
-6.77
-16.49
-25.05
-30.87
-32.78
-30.38
-24.10
-15.28
-5.78
2.37
7.67
9.52
8.32
5.20
1.61
-1.19
-2.42
-1.83
0.39
3.71
7.50
11.00
13.54
14.55
13.69
10.96
6.85
2.28
-1.60
-3.90
-4.31
-3.28
-1.80
-0.87
-0.92
-1.50
-1.56
-0.14
2.86
6.39
8.61
7.76
3.04
-4.85
-13.89
-21.58
-25.81
-25.55
-21.11
-13.78
-5.26
2.91
9.67
14.62
17.64
18.86
18.53
16.95
14.73
12.67
11.63
12.03
13.65
15.61
16.85
16.77
15.69
14.70
15.07
17.41
21.19
24.83
26.49
24.99
20.37
13.84
7.12
1.71
-1.65
-3.04
-2.99
-2.12
-0.87
0.50
1.78
2.69
3.04
2.74
1.99
1.13
0.49
0.20
0.16
0.14
-0.10
-0.74
-1.88
-3.57
-5.67
-7.90
-9.77
-10.78
-10.63
-9.49
-7.99
-6.98
-7.20
-8.85
-11.57
-14.59
-17.13
-18.61
-18.76
-17.51
-14.86
-10.86
-5.69
0.11
5.69
10.07
12.53
12.98
12.02
10.70
9.97
10.23
11.15
11.92
11.73
10.27
7.90
5.43
3.62
2.73
2.44
2.02
0.77
-1.59
-4.86
-8.53
-12.08
-15.17
-17.73
-19.80
-21.34
-22.21
-22.08
-20.62
-17.62
-13.09
-7.27
-0.66
6.03
12.08
16.79
19.74
20.85
20.32
18.63
16.33
13.92
11.76
10.06
8.90
8.28
8.18
8.47
9.00
9.50
9.72
9.54
8.90
7.77
6.08
3.74
0.67
-3.02
-6.98
-10.65
-13.37
-14.65
-14.33
-12.56
-9.72
-6.22
-2.35
1.77
6.08
10.53
14.90
18.84
21.83
23.42
23.29
21.44
18.19
14.03
9.53
5.15
1.26
-1.88
-4.07
-5.16
-5.13
-4.05
-2.24
-0.22
1.35
1.88
1.01
-1.21
-4.32
-7.61
-10.30
-11.74
-11.59
-9.79
-6.49
-2.03
3.12
8.39
13.15
16.84
19.05
19.69
18.94
17.20
14.93
12.50
10.15
8.05
6.31
5.01
4.21
3.85
3.73
3.57
3.14
2.37
1.33
0.18
-1.05
-2.53
-4.55
-7.33
-10.77
-14.34
-17.28
-18.90
-18.86
-17.28
-14.57
-11.20
-7.52
-3.73
0.02
3.46
6.24
8.03
8.64
8.19
7.03
5.61
4.25
3.05
1.87
0.48
-1.30
-3.46
-5.69
-7.53
-8.51
-8.36
-7.15
-5.28
-3.28
-1.62
-0.64
-0.40
-0.77
-1.57
-2.60
-3.74
-4.93
-6.05
-6.88
-7.08
-6.27
-4.19
-0.85
3.32
7.61
11.20
13.49
14.28
13.76
12.34
10.48
8.52
6.64
5.03
3.85
3.32
3.55
4.48
5.77
6.92
7.48
7.19
6.19
4.80
3.42
2.20
1.07
-0.29
-2.13
-4.52
-7.19
-9.64
-11.35
-11.83
-10.85
-8.35
-4.62
-0.19
4.21
7.87
10.32
11.46
11.50
10.80
9.66
8.17
6.33
4.16
1.88
-0.10
-1.40
-1.81
-1.46
-0.69
0.06
0.47
0.42
0.00
-0.64
-1.42
-2.26
-3.23
-4.34
-5.60
-6.94
-8.30
-9.55
-10.51
-10.92
-10.37
-8.49
-5.16
-0.61
4.53
9.34
13.00
14.99
15.24
14.09
12.05
9.63
7.18
4.86
2.75
0.88
-0.65
-1.76
-2.41
-2.67
-2.70
-2.69
-2.81
-3.15
-3.68
-4.31
-5.01
-5.73
-6.62
-7.78
-9.24
-10.93
-12.54
-13.67
-13.93
-13.05
-10.92
-7.77
-4.02
-0.27
2.90
5.14
6.43
7.02
7.30
7.52
7.65
7.38
6.38
4.45
1.82
-0.97
-3.27
-4.62
-4.95
-4.55
-3.95
-3.54
-3.55
-3.87
-4.27
-4.56
-4.72
-4.96
-5.64
-7.01
-9.08
-11.62
-14.15
-16.15
-17.25
-17.30
-16.44
-15.05
-13.57
-12.37
-11.61
-11.20
-10.91
-10.55
-10.18
-10.24
-11.39
-14.23
-18.96
-25.15
-31.81
-37.61
-41.43
-42.84
-42.32
-41.19
-41.07
-43.26
-48.20
-55.46
-64.06
-73.11
-82.21
-91.46
-101.36
-112.29
-124.42
-137.43
-150.41
-161.39
-167.20
-164.03
-149.17
-122.76
-88.88
-54.79
-28.52
-15.79
-17.96
-32.03
-52.51
-73.95
-92.53
-106.06
-113.03
-111.68
-100.15
-77.48
-44.55
-4.25
39.67
83.92
126.53
166.46
202.62
233.16
255.56
267.69
268.96
260.96
246.91
230.33
213.95
199.22
186.45
175.35
165.39
155.72
145.18
132.55
117.07
99.21
80.69
64.00
51.24
43.28
39.38
37.55
35.38
30.84
22.90
11.95
0.02
-9.37
-11.88
-3.96
15.44
43.53
73.88
98.38
110.27
106.78
90.07
66.03
41.46
21.45
7.92
0.02
-4.37
-6.96
-8.22
-7.64
-4.59
0.85
7.42
13.25
16.59
16.77
14.49
11.46
9.52
9.70
11.74
14.36
16.12
16.30
15.36
14.66
15.76
19.61
26.14
34.31
42.52
49.26
53.59
55.36
55.17
54.05
53.02
52.57
53.02
54.54
57.62
62.87
70.09
77.31
80.69
75.99
60.93
37.43
11.47
-9.09
-18.38
-15.61
-5.56
3.65
4.08
-9.12
-36.78
-76.56
-124.10
-173.74
-218.82
-251.87
-265.81
-255.64
-220.05
-162.60
-91.21
-16.65
50.21
100.41
129.34
137.28
128.64
110.07
87.67
65.09
43.61
23.64
6.46
-5.16
-8.73
-4.69
1.89
2.39
-11.40
-42.59
-86.53
-132.27
-167.29
-183.58
-180.90
-165.92
-147.93
-133.68
-124.62
-117.77
-108.98
-96.14
-80.43
-65.28
-53.59
-46.14
-41.52
-37.67
-33.80
-31.00
-31.39
-36.51
-45.97
-56.94
-65.28
-67.26
-61.32
-48.98
-34.34
-22.46
-17.29
-19.91
-28.22
-38.06
-45.27
-47.62
-45.69
-42.03
-39.55
-39.78
-42.09
-44.00
-42.59
-35.78
-23.23
-6.34
12.26
29.62
43.12
51.04
52.82
49.04
41.20
31.44
21.87
14.12
9.01
6.49
5.97
6.80
8.62
11.40
15.12
19.31
22.82
24.32
23.03
19.39
15.02
12.03
11.82
14.35
18.16
21.21
22.03
20.39
17.13
13.40
9.84
6.38
2.51
-2.05
-6.96
-11.33
-14.30
-15.57
-15.57
-15.10
-14.90
-15.28
-16.08
-16.94
-17.48
-17.36
-16.14
-13.28
-8.40
-1.68
5.86
12.66
17.26
19.15
19.11
18.75
19.53
21.87
24.94
27.13
27.09
24.41
19.75
14.27
8.92
4.12
-0.09
-3.56
-5.81
-6.19
-4.45
-1.14
2.43
4.65
4.39
1.44
-3.44
-8.98
-13.80
-16.87
-17.42
-15.01
-9.60
-1.79
7.14
15.39
21.19
23.55
22.50
18.97
14.26
9.48
5.25
1.84
-0.64
-2.02
-2.10
-0.84
1.45
4.28
7.14
9.67
11.70
13.02
13.37
12.45
10.05
6.37
2.02
-2.17
-5.42
-7.25
-7.53
-6.44
-4.27
-1.42
1.64
4.34
6.13
6.64
5.93
4.44
2.84
1.70
1.30
1.52
1.84
1.61
0.36
-1.95
-4.81
-7.31
-8.51
-7.91
-5.71
-2.77
-0.25
1.02
0.82
-0.40
-1.96
-3.29
-4.25
-5.06
-6.03
-7.43
-9.23
-11.26
-13.12
-14.33
-14.29
-12.58
-9.15
-4.41
0.80
5.52
8.94
10.62
10.45
8.53
5.12
0.69
-4.02
-8.04
-10.35
-10.39
-8.34
-5.19
-2.48
-1.65
-3.50
-7.92
-13.93
-20.02
-24.67
-26.76
-25.86
-22.34
-17.08
-11.31
-6.14
-2.29
0.07
1.33
2.31
3.86
6.60
10.61
15.42
20.12
23.73
25.51
25.26
23.35
20.39
16.98
13.45
9.92
6.50
3.51
1.39
0.56
1.13
2.85
5.20
7.59
9.56
10.82
11.21
10.64
9.17
6.96
4.41
2.03
0.31
-0.49
-0.33
0.63
2.18
4.13
6.35
8.67
10.84
12.49
13.23
12.78
11.15
8.76
6.33
4.61
3.99
4.28
4.74
4.48
2.95
0.25
-2.89
-5.53
-7.07
-7.53
-7.46
-7.55
-8.21
-9.35
-10.54
-11.30
-11.41
-10.92
-10.02
-8.78
-7.03
-4.47
-0.90
3.58
8.54
13.25
17.05
19.41
20.18
19.52
17.80
15.46
12.92
10.51
8.36
6.48
4.80
3.26
1.85
0.60
-0.57
-1.88
-3.73
-6.53
-10.33
-14.65
-18.62
-21.27
-22.01
-20.95
-18.73
-16.14
-13.62
-10.99
-7.69
-3.28
2.15
7.89
12.87
16.23
17.56
17.05
15.21
12.51
9.33
6.02
3.01
0.81
-0.15
0.20
1.46
2.88
3.74
3.67
2.81
1.65
0.59
-0.18
-0.80
-1.49
-2.27
-2.84
-2.82
-1.93
-0.25
1.79
3.67
4.97
5.65
5.93
6.19
6.70
7.47
8.27
8.68
8.34
7.08
5.00
2.56
0.26
-1.42
-2.27
-2.35
-1.98
-1.53
-1.19
-1.05
-0.96
-0.86
-0.73
-0.74
-1.04
-1.74
-2.79
-4.07
-5.45
-6.64
-7.30
-6.88
-4.84
-0.84
4.86
11.34
17.15
20.82
21.52
19.41
15.60
11.71
9.20
8.83
10.51
13.52
16.89
19.87
22.09
23.59
24.65
25.64
26.81
28.28
29.99
31.60
32.57
32.20
29.86
25.23
18.53
10.52
2.38
-4.60
-9.50
-11.91
-12.08
-10.70
-8.55
-6.34
-4.55
-3.45
-3.22
-3.95
-5.62
-8.05
-10.92
-13.89
-16.74
-19.50
-22.31
-25.30
-28.32
-30.85
-32.15
-31.60
-28.98
-24.70
-19.73
-15.35
-12.79
-12.82
-15.53
-20.25
-25.71
-30.33
-32.72
-32.00
-28.12
-21.85
-14.48
-7.42
-1.71
2.25
4.63
5.94
6.68
7.05
6.89
5.88
3.78
0.60
-3.29
-7.26
-10.70
-13.13
-14.30
-14.17
-12.84
-10.44
-7.20
-3.46
0.17
2.94
4.08
3.18
0.33
-3.77
-7.98
-11.16
-12.51
-11.81
-9.40
-5.95
-2.18
1.31
4.05
5.71
6.13
5.40
3.85
2.13
0.85
0.43
0.93
2.12
3.65
5.30
7.00
8.70
10.24
11.19
11.08
9.61
6.99
3.82
0.85
-1.40
-2.86
-3.77
-4.51
-5.16
-5.52
-5.21
-3.91
-1.67
1.14
3.96
6.28
7.85
8.76
9.30
9.76
10.30
10.83
11.11
10.77
9.61
7.73
5.46
3.37
1.91
1.29
1.36
1.70
1.92
1.78
1.33
0.82
0.49
0.33
0.17
-0.28
-1.25
-2.64
-4.09
-5.12
-5.25
-4.25
-2.14
0.84
4.33
7.91
11.16
13.73
15.41
16.07
15.83
14.92
13.63
12.18
10.66
9.09
7.49
5.92
4.58
3.71
3.48
3.90
4.73
5.59
6.14
6.17
5.65
4.66
3.29
1.60
-0.36
-2.48
-4.42
-5.71
-5.80
-4.39
-1.55
2.19
6.00
9.08
10.96
11.69
11.70
11.57
11.59
11.66
11.34
10.24
8.36
6.23
4.65
4.29
5.30
7.22
9.23
10.67
11.27
11.19
10.78
10.09
8.81
6.33
2.22
-3.40
-9.69
-15.39
-19.27
-20.64
-19.48
-16.42
-12.32
-8.00
-4.03
-0.77
1.51
2.60
2.27
0.44
-2.81
-7.10
-11.90
-16.56
-20.48
-23.18
-24.28
-23.64
-21.37
-17.82
-13.60
-9.43
-5.98
-3.70
-2.73
-2.87
-3.79
-5.05
-6.36
-7.52
-8.47
-9.20
-9.72
-9.99
-9.94
-9.56
-8.85
-7.97
-7.17
-6.70
-6.72
-7.16
-7.79
-8.24
-8.26
-7.81
-6.97
-5.82
-4.32
-2.28
0.44
3.67
6.96
9.62
11.05
11.08
9.91
8.10
6.18
4.48
3.05
1.77
0.53
-0.62
-1.52
-1.92
-1.56
-0.28
1.98
5.03
8.47
11.71
14.04
14.94
14.26
12.25
9.49
6.68
4.31
2.65
1.67
1.12
0.73
0.28
-0.40
-1.37
-2.58
-3.88
-5.05
-5.90
-6.43
-6.70
-6.85
-6.96
-6.96
-6.71
-6.13
-5.27
-4.24
-3.18
-2.11
-0.91
0.48
2.03
3.47
4.42
4.55
3.71
1.99
-0.28
-2.70
-4.88
-6.46
-7.20
-6.98
-5.87
-4.06
-1.83
0.46
2.49
3.94
4.59
4.26
2.95
0.88
-1.56
-3.96
-5.98
-7.49
-8.55
-9.21
-9.43
-8.96
-7.42
-4.61
-0.62
4.02
8.53
12.17
14.49
15.55
15.72
15.46
14.98
14.22
12.92
10.92
8.41
5.91
4.11
3.54
4.32
6.07
8.15
9.91
10.84
10.71
9.52
7.39
4.68
1.91
-0.20
-0.98
-0.00
2.63
6.33
10.16
13.12
14.50
14.02
11.84
8.41
4.41
0.55
-2.51
-4.38
-5.07
-4.96
-4.76
-5.22
-6.80
-9.61
-13.36
-17.47
-21.26
-24.05
-25.31
-24.76
-22.59
-19.43
-16.27
-14.12
-13.59
-14.60
-16.35
-17.72
-17.79
-16.22
-13.31
-9.79
-6.39
-3.58
-1.57
-0.43
-0.28
-1.22
-3.20
-5.74
-8.04
-9.22
-8.68
-6.41
-2.83
1.46
6.08
10.88
15.84
20.75
25.08
28.14
29.36
28.57
26.07
22.40
18.04
13.27
8.17
2.88
-2.26
-6.67
-9.77
-11.20
-10.96
-9.37
-6.90
-4.04
-1.20
1.28
3.15
4.22
4.42
3.74
2.36
0.54
-1.39
-3.13
-4.50
-5.51
-6.31
-7.15
-8.19
-9.34
-10.32
-10.66
-10.02
-8.27
-5.70
-2.82
-0.32
1.22
1.46
0.40
-1.61
-3.98
-6.01
-7.18
-7.21
-6.23
-4.67
-3.06
-1.85
-1.21
-0.99
-0.86
-0.52
0.16
1.18
2.49
4.16
6.31
8.93
11.69
13.90
14.77
13.77
10.97
7.09
3.26
0.48
-0.77
-0.60
0.42
1.59
2.34
2.37
1.66
0.33
-1.35
-3.08
-4.58
-5.53
-5.67
-4.83
-3.00
-0.36
2.70
5.69
8.11
9.54
9.77
8.80
6.85
4.35
1.86
-0.05
-0.92
-0.52
1.03
3.33
5.78
7.81
9.02
9.25
8.63
7.37
5.69
3.69
1.44
-1.02
-3.53
-5.72
-7.17
-7.51
-6.68
-4.92
-2.78
-0.78
0.76
1.83
2.71
3.71
4.88
5.97
6.49
6.03
4.51
2.31
0.21
-0.98
-0.82
0.60
2.62
4.30
4.90
4.16
2.34
-0.03
-2.48
-4.81
-7.07
-9.36
-11.57
-13.27
-13.89
-12.99
-10.56
-7.10
-3.40
-0.28
1.78
2.80
3.16
3.41
4.04
5.24
6.87
8.57
9.86
10.35
9.85
8.44
6.44
4.21
2.09
0.25
-1.35
-2.85
-4.43
-6.11
-7.73
-9.01
-9.76
-9.96
-9.86
-9.82
-10.06
-10.48
-10.65
-10.01
-8.23
-5.43
-2.24
0.54
2.30
2.94
2.86
2.68
2.88
3.51
4.26
4.61
4.22
3.08
1.58
0.26
-0.40
-0.24
0.54
1.44
1.90
1.47
0.05
-2.11
-4.46
-6.36
-7.34
-7.28
-6.39
-5.08
-3.75
-2.58
-1.52
-0.29
1.36
3.45
5.73
7.73
8.94
9.01
7.93
5.98
3.75
1.84
0.66
0.32
0.58
1.02
1.25
1.15
0.83
0.58
0.61
0.83
0.97
0.65
-0.30
-1.69
-3.03
-3.78
-3.60
-2.52
-0.87
0.91
2.46
3.64
4.49
5.12
5.58
5.87
5.89
5.54
4.66
3.14
0.99
-1.51
-3.89
-5.51
-5.86
-4.78
-2.64
-0.20
1.69
2.46
2.03
0.71
-1.00
-2.73
-4.34
-5.93
-7.63
-9.42
-11.07
-12.18
-12.32
-11.20
-8.79
-5.38
-1.59
1.82
4.15
5.05
4.64
3.51
2.38
1.81
1.89
2.23
2.19
1.26
-0.62
-3.00
-5.08
-6.13
-5.88
-4.68
-3.40
-2.95
-3.90
-6.13
-8.94
-11.33
-12.62
-12.63
-11.69
-10.32
-8.81
-7.07
-4.79
-1.80
1.74
5.16
7.64
8.53
7.61
5.22
1.99
-1.37
-4.28
-6.43
-7.72
-8.22
-8.09
-7.47
-6.45
-5.07
-3.49
-1.90
-0.66
-0.19
-0.74
-2.18
-4.07
-5.70
-6.44
-6.02
-4.52
-2.29
0.20
2.53
4.51
6.02
7.01
7.46
7.41
6.99
6.40
5.87
5.44
5.03
4.46
3.58
2.46
1.41
0.80
0.85
1.52
2.50
3.32
3.56
3.04
1.82
0.08
-1.91
-3.97
-5.96
-7.71
-9.01
-9.56
-9.03
-7.23
-4.27
-0.56
3.20
6.34
8.39
9.25
9.15
8.45
7.43
6.22
4.79
3.18
1.54
0.15
-0.75
-1.01
-0.70
-0.02
0.80
1.58
2.23
2.65
2.72
2.20
0.89
-1.26
-4.07
-7.13
-9.92
-11.93
-12.76
-12.20
-10.23
-6.99
-2.78
1.94
6.55
10.35
12.69
13.22
12.01
9.57
6.71
4.22
2.63
2.06
2.28
2.85
3.39
3.79
4.10
4.53
5.13
5.77
6.11
5.77
4.48
2.24
-0.66
-3.76
-6.62
-8.92
-10.53
-11.41
-11.45
-10.41
-8.02
-4.13
0.99
6.59
11.60
15.05
16.48
16.11
14.70
13.07
11.75
10.73
9.60
7.94
5.70
3.27
1.31
0.40
0.59
1.54
2.60
3.23
3.27
2.97
2.71
2.72
2.83
2.53
1.25
-1.26
-4.66
-8.16
-10.78
-11.85
-11.23
-9.34
-6.87
-4.42
-2.24
-0.26
1.70
3.57
5.01
5.50
4.72
2.83
0.51
-1.35
-2.04
-1.44
-0.04
1.33
1.95
1.59
0.49
-0.76
-1.62
-1.89
-1.71
-1.52
-1.72
-2.59
-4.09
-5.94
-7.74
-9.09
-9.79
-9.81
-9.28
-8.29
-6.87
-4.87
-2.18
1.11
4.63
7.77
9.90
10.71
10.27
8.96
7.31
5.73
4.37
3.23
2.26
1.44
0.86
0.60
0.61
0.77
0.86
0.74
0.36
-0.21
-0.87
-1.54
-2.25
-3.08
-4.08
-5.18
-6.17
-6.73
-6.63
-5.83
-4.42
-2.66
-0.76
1.16
3.05
4.79
6.23
7.06
7.05
6.19
4.71
3.04
1.56
0.43
-0.44
-1.23
-2.03
-2.69
-2.97
-2.69
-1.96
-1.14
-0.67
-0.88
-1.81
-3.29
-5.09
-7.01
-8.85
-10.32
-11.12
-10.92
-9.67
-7.60
-5.13
-2.67
-0.37
1.82
4.14
6.61
9.05
11.09
12.36
12.74
12.35
11.40
10.08
8.50
6.70
4.83
3.15
2.01
1.60
1.87
2.46
2.84
2.58
1.53
-0.07
-1.80
-3.30
-4.44
-5.45
-6.66
-8.27
-10.20
-12.01
-13.23
-13.48
-12.72
-11.09
-8.73
-5.69
-1.95
2.37
6.82
10.61
12.85
13.00
11.10
7.94
4.62
2.13
0.91
0.72
0.92
0.84
0.26
-0.64
-1.30
-1.25
-0.36
1.08
2.55
3.57
3.90
3.52
2.52
0.91
-1.27
-3.86
-6.39
-8.12
-8.28
-6.44
-2.73
2.12
7.09
11.26
14.06
15.42
15.59
14.91
13.63
11.85
9.63
7.06
4.38
1.92
0.01
-1.12
-1.44
-1.11
-0.48
0.17
0.62
0.82
0.86
0.89
1.06
1.41
1.83
2.06
1.78
0.74
-1.10
-3.50
-5.98
-8.01
-9.18
-9.35
-8.57
-7.05
-4.99
-2.52
0.16
2.79
4.96
6.25
6.43
5.54
3.97
2.29
1.03
0.49
0.68
1.38
2.22
2.88
3.13
2.94
2.41
1.74
1.15
0.76
0.62
0.61
0.53
0.14
-0.74
-2.14
-3.91
-5.76
-7.37
-8.45
-8.83
-8.43
-7.23
-5.26
-2.66
0.27
3.01
4.97
5.65
4.90
2.99
0.51
-1.86
-3.65
-4.73
-5.24
-5.45
-5.53
-5.49
-5.19
-4.58
-3.74
-3.00
-2.80
-3.36
-4.64
-6.30
-7.90
-9.14
-10.03
-10.74
-11.40
-11.91
-11.89
-10.97
-9.01
-6.29
-3.36
-0.74
1.43
3.41
5.55
7.98
10.32
11.87
12.02
10.66
8.36
6.05
4.50
3.85
3.66
3.27
2.37
1.33
0.92
1.78
3.94
6.60
8.55
8.89
7.41
4.68
1.65
-0.91
-2.77
-4.11
-5.21
-6.09
-6.39
-5.70
-3.84
-1.13
1.72
3.96
5.20
5.50
5.27
4.89
4.50
3.93
2.99
1.69
0.32
-0.71
-1.13
-1.08
-0.94
-1.15
-1.85
-2.76
-3.39
-3.34
-2.56
-1.42
-0.50
-0.23
-0.79
-2.06
-3.79
-5.76
-7.80
-9.73
-11.20
-11.74
-10.92
-8.64
-5.18
-1.19
2.65
5.87
8.41
10.36
11.80
12.60
12.59
11.79
10.57
9.58
9.34
9.90
10.78
11.24
10.77
9.33
7.26
4.89
2.27
-0.84
-4.55
-8.54
-12.03
-14.23
-14.86
-14.47
-14.13
-14.76
-16.54
-18.79
-20.48
-20.87
-19.99
-18.48
-17.04
-15.94
-14.91
-13.43
-11.27
-8.75
-6.59
-5.43
-5.47
-6.33
-7.41
-8.23
-8.63
-8.60
-8.10
-6.94
-4.90
-2.12
0.84
3.13
4.01
3.33
1.63
-0.15
-1.17
-1.11
-0.31
0.64
1.34
1.85
2.65
4.20
6.67
9.70
12.60
14.65
15.46
15.03
13.61
11.47
8.77
5.53
1.92
-1.65
-4.58
-6.22
-6.32
-5.06
-3.03
-0.96
0.67
1.74
2.42
2.97
3.45
3.55
2.85
1.02
-1.88
-5.27
-8.31
-10.16
-10.32
-8.85
-6.26
-3.32
-0.79
0.85
1.50
1.34
0.78
0.21
-0.13
-0.25
-0.34
-0.66
-1.35
-2.33
-3.32
-4.06
-4.38
-4.31
-4.01
-3.52
-2.79
-1.78
-0.53
0.64
1.28
1.02
-0.22
-2.17
-4.30
-6.04
-7.01
-7.02
-6.10
-4.34
-1.88
0.99
3.86
6.38
8.22
9.29
9.70
9.58
9.06
8.15
6.87
5.27
3.55
2.00
0.89
0.39
0.41
0.73
1.03
1.08
0.76
0.04
-1.03
-2.42
-4.03
-5.79
-7.55
-9.10
-10.18
-10.55
-9.94
-8.24
-5.50
-1.96
1.90
5.47
8.23
9.84
10.24
9.67
8.46
6.94
5.32
3.67
2.02
0.46
-0.83
-1.67
-1.86
-1.38
-0.36
0.92
2.14
2.96
3.11
2.36
0.59
-2.15
-5.55
-9.04
-11.83
-13.22
-12.77
-10.49
-6.84
-2.47
1.92
5.78
8.85
11.03
12.40
13.12
13.39
13.33
13.01
12.30
11.01
9.02
6.49
3.88
1.78
0.73
0.88
2.00
3.54
4.78
5.09
4.05
1.55
-2.11
-6.20
-9.66
-11.38
-10.73
-7.91
-4.00
-0.62
0.83
-0.14
-2.85
-5.71
-7.03
-5.86
-2.51
1.66
4.84
5.78
4.45
1.96
0.06
0.08
2.12
5.03
6.97
6.31
2.50
-3.84
-11.31
-18.44
-24.28
-28.53
-31.32
-32.78
-32.91
-31.44
-28.18
-23.20
-17.00
-10.43
-4.47
0.23
3.55
5.91
8.00
10.27
12.60
14.40
14.85
13.54
10.69
7.06
3.61
0.97
-0.69
-1.55
-1.85
-1.70
-0.96
0.57
2.92
5.89
8.98
11.54
13.03
13.18
12.10
10.24
8.21
6.50
5.36
4.75
4.55
4.75
5.46
6.87
8.97
11.39
13.45
14.45
13.95
12.04
9.34
6.67
4.73
3.82
3.76
4.09
4.33
4.25
3.93
3.70
3.88
4.57
5.59
6.45
6.54
5.44
3.05
-0.25
-3.80
-6.82
-8.71
-9.21
-8.44
-6.74
-4.48
-1.91
0.89
3.86
6.81
9.37
11.03
11.31
10.06
7.52
4.28
1.08
-1.40
-2.72
-2.84
-2.00
-0.72
0.45
1.14
1.21
0.79
0.20
-0.35
-0.85
-1.54
-2.78
-4.76
-7.32
-9.93
-11.87
-12.52
-11.50
-8.88
-4.99
-0.39
4.35
8.77
12.55
15.48
17.48
18.36
17.95
16.17
13.09
9.17
5.19
2.06
0.41
0.38
1.52
3.05
4.20
4.50
3.93
2.78
1.48
0.30
-0.66
-1.59
-2.75
-4.31
-6.18
-7.92
-8.88
-8.42
-6.33
-2.88
1.09
4.61
6.90
7.73
7.42
6.62
5.95
5.74
5.96
6.23
6.12
5.39
4.06
2.47
1.11
0.40
0.53
1.45
2.79
4.06
4.82
4.81
4.06
2.83
1.53
0.50
-0.08
-0.22
-0.06
0.36
1.08
2.17
3.48
4.58
4.78
3.50
0.57
-3.55
-7.84
-11.16
-12.67
-12.22
-10.27
-7.72
-5.45
-3.98
-3.41
-3.34
-3.23
-2.64
-1.50
-0.11
0.94
1.12
0.25
-1.41
-3.21
-4.56
-5.12
-4.96
-4.37
-3.67
-2.96
-2.04
-0.70
1.19
3.41
5.52
6.97
7.41
6.80
5.43
3.82
2.45
1.69
1.65
2.18
3.01
3.79
4.25
4.30
4.01
3.55
3.06
2.55
1.89
0.88
-0.66
-2.66
-4.82
-6.68
-7.74
-7.69
-6.47
-4.25
-1.37
1.68
4.42
6.41
7.42
7.46
6.79
5.85
5.00
4.44
4.04
3.50
2.55
1.11
-0.54
-1.94
-2.65
-2.47
-1.56
-0.40
0.41
0.42
-0.54
-2.24
-4.29
-6.24
-7.79
-8.83
-9.37
-9.46
-8.98
-7.78
-5.73
-2.90
0.34
3.37
5.61
6.63
6.39
5.22
3.64
2.16
1.13
0.63
0.52
0.55
0.47
0.16
-0.31
-0.73
-0.77
-0.20
0.90
2.19
3.02
2.77
1.11
-1.82
-5.42
-8.87
-11.39
-12.53
-12.19
-10.62
-8.17
-5.27
-2.26
0.58
2.98
4.72
5.65
5.78
5.17
4.05
2.66
1.29
0.19
-0.44
-0.47
0.08
1.11
2.39
3.63
4.61
5.19
5.43
5.48
5.55
5.75
5.96
5.88
5.10
3.44
1.10
-1.31
-2.92
-2.98
-1.16
2.21
6.30
10.10
12.86
14.30
14.70
14.53
14.21
13.82
13.17
11.96
10.15
7.99
5.99
4.70
4.41
4.99
6.00
6.87
7.13
6.51
4.87
2.13
-1.87
-7.19
-13.74
-20.97
-27.95
-33.52
-36.81
-37.51
-36.02
-33.23
-30.04
-26.94
-23.83
-20.28
-15.98
-11.12
-6.37
-2.51
0.01
1.31
1.93
2.36
2.76
2.74
1.78
-0.44
-3.60
-6.89
-9.27
-9.99
-8.85
-6.23
-2.89
0.40
3.00
4.45
4.54
3.30
1.04
-1.71
-4.24
-5.84
-6.00
-4.53
-1.56
2.53
7.21
11.83
15.68
18.13
18.71
17.40
14.63
11.20
7.99
5.66
4.43
4.13
4.41
4.90
5.37
5.69
5.81
5.76
5.57
5.34
5.12
4.92
4.58
3.85
2.47
0.31
-2.48
-5.48
-8.12
-9.87
-10.35
-9.51
-7.57
-4.96
-2.14
0.57
3.01
5.14
6.94
8.27
8.92
8.75
7.77
6.22
4.45
2.87
1.70
1.05
0.88
1.13
1.68
2.40
3.05
3.41
3.33
2.85
2.15
1.38
0.54
-0.60
-2.31
-4.69
-7.43
-9.88
-11.23
-10.89
-8.81
-5.44
-1.59
1.95
4.70
6.60
7.82
8.59
9.03
9.01
8.27
6.63
4.17
1.18
-1.82
-4.33
-6.00
-6.68
-6.45
-5.57
-4.42
-3.35
-2.62
-2.38
-2.58
-3.12
-3.85
-4.77
-5.95
-7.53
-9.54
-11.84
-14.09
-15.82
-16.57
-16.05
-14.22
-11.34
-7.91
-4.54
-1.79
0.02
0.92
1.19
1.26
1.47
1.91
2.45
2.82
2.81
2.44
1.91
1.54
1.55
1.93
2.41
2.57
2.16
1.25
0.28
-0.15
0.33
1.61
3.10
4.01
3.76
2.33
0.25
-1.58
-2.39
-1.77
0.16
2.88
5.73
8.11
9.66
10.33
10.34
9.99
9.52
8.98
8.22
7.07
5.43
3.55
1.89
0.95
1.00
1.81
2.87
3.54
3.46
2.62
1.42
0.33
-0.32
-0.55
-0.68
-1.14
-2.28
-4.16
-6.53
-8.87
-10.58
-11.10
-10.12
-7.66
-4.16
-0.31
3.17
5.70
7.02
7.24
6.65
5.60
4.28
2.80
1.18
-0.48
-1.94
-2.94
-3.23
-2.80
-1.84
-0.72
0.15
0.51
0.28
-0.37
-1.17
-1.86
-2.34
-2.73
-3.22
-4.02
-5.12
-6.37
-7.45
-8.01
-7.78
-6.63
-4.54
-1.68
1.63
4.85
7.42
8.87
9.07
8.24
6.81
5.25
3.77
2.32
0.75
-0.97
-2.58
-3.67
-3.86
-3.10
-1.76
-0.42
0.37
0.39
-0.22
-1.11
-1.96
-2.68
-3.39
-4.33
-5.66
-7.29
-8.93
-10.23
-10.84
-10.57
-9.32
-7.08
-3.94
-0.12
3.99
7.87
10.96
12.89
13.55
13.13
11.99
10.48
8.82
7.11
5.39
3.82
2.69
2.21
2.49
3.38
4.49
5.39
5.77
5.59
5.07
4.46
3.87
3.20
2.23
0.81
-1.04
-3.00
-4.69
-5.76
-6.07
-5.70
-4.82
-3.60
-2.15
-0.56
1.07
2.59
3.81
4.64
4.99
4.85
4.19
2.96
1.13
-1.24
-3.91
-6.50
-8.53
-9.59
-9.45
-8.23
-6.32
-4.38
-3.08
-2.86
-3.86
-5.78
-8.21
-10.71
-13.02
-15.08
-16.92
-18.61
-20.19
-21.66
-22.95
-23.99
-24.63
-24.79
-24.54
-24.18
-24.26
-25.37
-27.96
-32.07
-37.44
-43.64
-50.33
-57.33
-64.57
-71.99
-79.67
-88.06
-98.23
-111.63
-129.35
-150.87
-173.19
-191.02
-198.31
-190.60
-166.97
-130.54
-87.17
-43.20
-3.55
28.89
52.55
66.19
68.70
60.02
42.44
21.13
2.93
-5.90
-1.99
14.12
38.79
67.34
96.03
122.95
147.65
170.00
189.43
204.79
214.98
219.62
219.28
215.12
208.18
198.82
186.71
171.36
152.78
132.00
110.88
91.49
75.32
62.79
53.25
45.53
38.56
31.78
25.25
19.42
14.75
11.35
8.87
6.58
3.70
-0.27
-5.22
-10.34
-14.43
-16.41
-15.87
-13.31
-9.97
-7.22
-6.05
-6.75
-8.97
-12.10
-15.55
-18.85
-21.59
-23.35
-23.78
-22.85
-20.98
-18.93
-17.51
-17.13
-17.68
-18.69
-19.71
-20.50
-21.07
-21.57
-22.02
-22.31
-22.30
-21.97
-21.46
-20.99
-20.69
-20.54
-20.41
-20.26
-20.25
-20.71
-21.99
-24.24
-27.24
-30.50
-33.39
-35.47
-36.64
-37.17
-37.49
-38.04
-39.01
-40.34
-41.80
-43.16
-44.29
-45.24
-46.22
-47.55
-49.51
-52.12
-55.04
-57.58
-58.89
-58.27
-55.57
-51.22
-46.15
-41.39
-37.64
-35.16
-33.69
-32.66
-31.27
-28.62
-23.78
-15.96
-4.65
10.19
28.08
48.15
69.32
90.69
111.67
131.90
151.14
169.07
185.31
199.53
211.52
221.15
228.10
231.46
229.61
220.42
201.79
172.49
132.79
85.01
33.35
-16.70
-59.55
-90.85
-108.60
-113.61
-109.10
-99.56
-89.25
-81.01
-75.83
-73.27
-72.26
-71.83
-71.53
-71.21
-70.68
-69.50
-67.10
-63.09
-57.61
-51.37
-45.41
-40.75
-37.92
-36.79
-36.72
-36.84
-36.55
-35.68
-34.53
-33.55
-33.09
-33.09
-33.09
-32.45
-30.59
-27.28
-22.71
-17.45
-12.28
-7.95
-4.94
-3.38
-3.02
-3.38
-3.97
-4.47
-4.75
-4.91
-5.14
-5.50
-5.96
-6.36
-6.60
-6.67
-6.71
-6.90
-7.35
-8.04
-8.78
-9.35
-9.65
-9.71
-9.78
-10.05
-10.62
-11.29
-11.67
-11.29
-9.89
-7.50
-4.46
-1.27
1.56
3.65
4.80
4.93
4.07
2.36
0.09
-2.29
-4.33
-5.62
-6.08
-5.88
-5.45
-5.23
-5.46
-6.11
-6.91
-7.59
-8.03
-8.37
-8.84
-9.63
-10.72
-11.92
-12.97
-13.65
-13.94
-13.85
-13.39
-12.44
-10.89
-8.69
-5.99
-3.13
-0.50
1.58
2.98
3.72
3.91
3.67
3.09
2.27
1.30
0.34
-0.54
-1.27
-1.89
-2.42
-2.95
-3.55
-4.25
-5.09
-5.99
-6.83
-7.53
-8.09
-8.58
-9.22
-10.14
-11.30
-12.41
-12.98
-12.49
-10.67
-7.60
-3.74
0.27
3.84
6.56
8.28
8.99
8.75
7.67
5.90
3.70
1.45
-0.46
-1.78
-2.42
-2.48
-2.15
-1.63
-1.08
-0.63
-0.40
-0.47
-0.89
-1.62
-2.60
-3.81
-5.27
-7.06
-9.17
-11.34
-13.12
-13.90
-13.18
-10.80
-7.04
-2.52
2.01
5.90
8.82
10.69
11.62
11.77
11.22
10.03
8.33
6.38
4.50
2.99
1.97
1.40
1.07
0.78
0.42
0.02
-0.29
-0.41
-0.30
-0.05
0.14
0.00
-0.74
-2.25
-4.46
-7.03
-9.35
-10.76
-10.72
-9.11
-6.12
-2.33
1.63
5.22
8.10
10.14
11.33
11.74
11.42
10.53
9.28
7.96
6.88
6.22
5.95
5.90
5.83
5.57
5.11
4.57
4.05
3.57
2.95
1.86
0.10
-2.34
-5.21
-8.04
-10.37
-11.86
-12.38
-11.91
-10.49
-8.15
-4.96
-1.14
2.89
6.49
9.08
10.30
10.13
8.94
7.28
5.62
4.25
3.25
2.56
2.15
2.06
2.30
2.83
3.47
3.98
4.12
3.78
2.98
1.70
-0.05
-2.31
-5.07
-8.13
-11.05
-13.23
-14.05
-13.16
-10.56
-6.60
-1.84
3.17
8.01
12.38
16.05
18.75
20.19
20.17
18.73
16.18
13.11
10.16
7.88
6.54
6.16
6.54
7.42
8.57
9.75
10.76
11.42
11.62
11.40
10.95
10.53
10.41
10.79
11.63
12.79
14.08
15.42
16.94
18.99
22.03
26.42
32.25
39.10
46.10
52.15
56.28
58.09
57.88
56.59
55.32
54.85
55.37
56.45
57.37
57.51
56.49
54.07
49.91
43.49
34.44
22.80
9.33
-4.83
-18.50
-30.94
-42.00
-51.68
-59.27
-62.77
-59.10
-45.20
-19.59
16.55
59.33
103.33
143.15
174.84
196.60
208.40
211.38
207.05
197.08
183.53
169.11
156.94
149.66
148.16
150.62
152.69
148.84
134.40
107.60
70.24
27.04
-16.57
-56.65
-92.17
-124.90
-158.27
-195.79
-239.53
-289.22
-341.77
-391.49
-430.92
-452.74
-451.88
-427.53
-383.76
-328.31
-270.06
-216.14
-170.17
-132.19
-100.22
-72.26
-47.62
-27.09
-11.85
-2.24
2.87
5.69
8.35
11.72
15.12
17.02
16.24
13.01
8.87
5.87
5.20
6.51
8.12
8.15
5.70
1.39
-2.95
-5.38
-4.71
-0.92
5.13
12.23
19.26
25.35
29.75
31.99
31.92
29.94
27.02
24.34
22.78
22.65
23.54
24.60
25.04
24.37
22.51
19.79
16.75
14.07
12.39
12.12
13.23
15.28
17.47
19.03
19.53
19.08
18.23
17.68
17.88
18.87
20.27
21.54
22.32
22.63
22.70
22.79
22.90
22.73
21.86
20.11
17.69
15.08
12.79
10.96
9.30
7.31
4.70
1.63
-1.27
-3.22
-3.65
-2.39
0.17
3.32
6.16
7.86
7.76
5.60
1.63
-3.41
-8.39
-12.13
-13.74
-12.86
-9.64
-4.61
1.62
8.45
15.34
21.76
27.12
30.77
32.19
31.17
27.96
23.31
18.20
13.58
10.07
7.81
6.59
5.97
5.59
5.28
5.04
4.83
4.45
3.47
1.36
-2.26
-7.25
-12.95
-18.18
-21.68
-22.59
-20.75
-16.72
-11.48
-5.96
-0.60
4.51
9.37
13.64
16.65
17.59
16.18
13.03
9.50
7.15
6.98
9.05
12.64
16.85
21.08
25.21
29.29
33.08
35.89
36.85
35.40
31.70
26.59
21.13
16.08
11.53
7.05
2.08
-3.56
-9.46
-14.79
-18.78
-21.06
-21.80
-21.42
-20.26
-18.26
-15.04
-10.28
-4.14
2.59
8.64
12.77
14.28
13.29
10.59
7.11
3.54
0.09
-3.36
-6.95
-10.52
-13.65
-15.85
-16.89
-16.95
-16.61
-16.51
-17.14
-18.64
-20.80
-23.10
-24.74
-24.70
-22.01
-16.13
-7.42
2.76
12.36
19.39
22.79
22.80
20.75
18.35
16.73
15.94
15.06
12.69
7.85
0.45
-8.60
-17.75
-25.43
-30.73
-33.59
-34.72
-35.01
-35.05
-34.74
-33.44
-30.35
-24.99
-17.36
-7.99
2.42
13.06
23.28
32.43
39.86
44.97
47.28
46.49
42.57
35.68
26.17
14.73
2.28
-10.07
-21.12
-29.84
-35.42
-37.35
-35.48
-30.08
-21.85
-11.97
-1.94
6.63
12.35
14.33
12.39
7.09
-0.30
-7.98
-14.03
-16.93
-15.97
-11.53
-4.91
2.17
8.26
12.57
15.11
16.37
16.93
17.13
16.93
16.12
14.55
12.31
9.73
7.20
5.11
3.69
3.03
3.09
3.74
4.69
5.54
5.83
5.15
3.34
0.53
-2.88
-6.40
-9.56
-11.99
-13.46
-13.82
-13.00
-11.03
-8.08
-4.60
-1.15
1.61
3.13
3.18
1.93
-0.11
-2.26
-3.89
-4.59
-4.29
-3.24
-1.89
-0.73
-0.20
-0.50
-1.52
-2.74
-3.45
-2.94
-0.92
2.32
5.93
8.80
10.01
9.19
6.56
2.78
-1.35
-5.10
-7.91
-9.38
-9.26
-7.53
-4.46
-0.62
3.20
6.23
7.95
8.22
7.35
5.93
4.62
3.99
4.38
5.71
7.66
9.68
11.26
12.00
11.82
10.86
9.38
7.61
5.54
2.92
-0.56
-5.05
-10.22
-15.24
-18.99
-20.42
-19.02
-15.07
-9.54
-3.68
1.39
5.03
7.19
8.12
8.24
7.86
7.12
6.06
4.66
3.05
1.49
0.39
0.18
1.02
2.76
4.81
6.42
6.96
6.28
4.82
3.39
2.71
2.95
3.57
3.54
2.01
-1.26
-5.61
-9.79
-12.54
-13.19
-11.89
-9.41
-6.67
-4.15
-1.87
0.52
3.31
6.45
9.50
11.81
12.86
12.55
11.20
9.45
7.97
7.27
7.45
8.30
9.35
10.14
10.35
9.91
9.04
8.08
7.34
6.93
6.72
6.36
5.40
3.52
0.66
-2.87
-6.48
-9.38
-10.85
-10.37
-7.87
-3.68
1.45
6.65
11.10
14.23
15.84
15.97
14.85
12.69
9.73
6.15
2.19
-1.79
-5.32
-7.98
-9.51
-9.97
-9.74
-9.36
-9.32
-9.86
-10.78
-11.55
-11.60
-10.59
-8.72
-6.61
-5.06
-4.62
-5.39
-6.99
-8.79
-10.24
-11.12
-11.57
-11.87
-12.25
-12.70
-12.86
-12.20
-10.20
-6.63
-1.69
3.96
9.36
13.58
16.15
17.15
17.18
16.96
16.95
17.13
17.09
16.39
14.84
12.74
10.64
9.00
7.92
6.98
5.54
3.10
-0.23
-3.74
-6.32
-7.10
-5.91
-3.47
-1.10
-0.12
-1.14
-3.85
-7.13
-9.69
-10.68
-10.05
-8.40
-6.55
-4.94
-3.44
-1.54
1.23
4.85
8.71
11.90
13.61
13.53
11.90
9.35
6.56
3.96
1.64
-0.47
-2.53
-4.55
-6.40
-7.87
-8.85
-9.35
-9.55
-9.64
-9.73
-9.77
-9.68
-9.40
-9.10
-9.11
-9.78
-11.26
-13.35
-15.49
-17.00
-17.27
-15.90
-12.69
-7.54
-0.47
8.30
18.14
27.99
36.41
42.05
44.10
42.78
39.30
35.54
33.31
33.73
36.86
41.85
47.25
51.74
54.42
55.03
53.75
50.98
47.12
42.41
37.04
31.17
24.99
18.66
12.26
5.71
-1.05
-8.01
-14.95
-21.29
-26.34
-29.45
-30.40
-29.54
-27.67
-25.65
-24.09
-23.01
-21.89
-20.10
-17.28
-13.59
-9.74
-6.58
-4.73
-4.32
-4.96
-6.01
-6.93
-7.46
-7.70
-7.86
-8.08
-8.26
-8.09
-7.28
-5.73
-3.73
-1.88
-0.87
-1.18
-2.83
-5.30
-7.77
-9.43
-9.87
-9.14
-7.67
-5.96
-4.32
-2.76
-1.16
0.65
2.60
4.53
6.20
7.48
8.40
9.08
9.60
9.95
9.93
9.27
7.78
5.47
2.60
-0.35
-2.86
-4.53
-5.22
-5.08
-4.45
-3.72
-3.16
-2.89
-2.91
-3.20
-3.86
-5.01
-6.73
-8.88
-11.01
-12.46
-12.60
-11.10
-8.09
-4.09
0.19
4.09
7.17
9.19
10.04
9.73
8.41
6.31
3.76
1.15
-1.27
-3.37
-5.19
-6.79
-8.21
-9.42
-10.48
-11.49
-12.64
-14.00
-15.43
-16.53
-16.88
-16.22
-14.68
-12.79
-11.22
-10.59
-11.14
-12.68
-14.58
-16.04
-16.40
-15.34
-12.97
-9.71
-6.17
-2.88
-0.15
1.99
3.71
5.22
6.63
7.93
8.97
9.51
9.38
8.52
7.10
5.44
3.87
2.58
1.55
0.63
-0.34
-1.29
-1.91
-1.81
-0.79
0.92
2.63
3.49
2.86
0.66
-2.56
-5.85
-8.26
-9.27
-8.87
-7.52
-5.83
-4.21
-2.69
-1.02
1.05
3.51
5.98
7.89
8.75
8.43
7.19
5.54
4.03
3.05
2.71
2.91
3.44
4.02
4.40
4.43
4.07
3.48
2.91
2.56
2.43
2.30
1.82
0.70
-1.01
-3.01
-4.84
-6.12
-6.76
-6.93
-6.88
-6.67
-6.08
-4.67
-2.05
1.86
6.66
11.51
15.50
17.87
18.40
17.41
15.60
13.71
12.31
11.51
11.16
10.98
10.70
10.26
9.64
8.90
8.05
7.13
6.25
5.63
5.55
6.17
7.44
9.02
10.44
11.27
11.27
10.48
9.28
8.21
7.89
8.79
11.12
14.71
19.19
24.01
28.72
33.09
37.09
40.73
43.94
46.41
47.69
47.29
44.90
40.55
34.63
27.81
20.89
14.58
9.33
5.05
0.92
-4.72
-13.98
-28.77
-49.79
-75.90
-103.98
-129.79
-149.19
-159.55
-160.48
-153.58
-141.59
-127.40
-113.60
-102.21
-94.39
-89.93
-86.96
-81.86
-70.26
-48.49
-14.85
29.58
81.64
137.63
194.15
248.15
296.16
333.87
356.76
361.69
347.74
316.73
272.71
220.41
164.05
106.98
52.08
2.14
-40.28
-74.91
-104.47
-133.82
-168.12
-210.48
-260.60
-315.01
-368.33
-408.00
-422.53
-404.77
-354.24
-277.84
-186.90
-93.19
-6.05
68.65
126.51
168.36
195.55
209.56
211.82
204.32
189.13
167.88
141.34
110.26
75.19
37.00
-1.97
-38.51
-68.83
-90.25
-102.53
-108.04
-110.46
-113.36
-119.10
-127.81
-138.56
-149.29
-157.81
-162.58
-163.10
-160.10
-155.75
-153.33
-151.00
-147.04
-138.35
-121.44
-94.40
-58.22
-16.68
25.16
62.86
94.15
118.14
135.30
146.36
151.70
151.81
147.62
140.69
132.87
126.04
120.83
117.20
114.59
112.16
109.33
106.01
102.53
99.43
97.51
97.00
98.00
100.39
103.80
107.59
110.77
112.54
111.11
105.10
93.59
76.52
54.63
29.11
1.28
-27.31
-55.26
-81.65
-105.50
-126.16
-143.54
-158.25
-171.05
-181.63
-187.93
-186.35
-173.18
-146.89
-109.84
-68.21
-29.98
-1.95
12.83
15.37
9.35
-0.92
-12.34
-23.29
-32.80
-39.38
-41.32
-36.56
-25.33
-10.89
1.35
6.22
1.52
-10.13
-22.53
-28.49
-23.35
-7.31
15.19
37.91
55.93
67.37
73.26
75.81
76.88
77.09
76.02
73.31
69.23
64.74
61.15
59.47
59.78
61.63
63.96
65.75
66.61
66.69
66.58
66.83
67.46
67.88
67.15
64.00
57.56
47.75
35.20
21.12
6.81
-6.66
-18.65
-28.92
-37.49
-44.42
-49.60
-52.85
-53.93
-52.76
-49.57
-44.87
-39.33
-33.65
-28.42
-23.99
-20.49
-17.93
-16.36
-15.88
-16.68
-18.84
-22.25
-26.61
-31.24
-35.30
-38.05
-39.22
-38.95
-37.92
-37.08
-37.23
-39.04
-42.33
-46.25
-49.92
-52.89
-55.26
-57.85
-61.81
-67.93
-76.83
-87.90
-99.86
-111.26
-121.32
-129.75
-137.12
-144.80
-154.58
-169.15
-190.20
-217.50
-248.26
-277.17
-296.68
-300.70
-287.06
-254.22
-207.82
-156.33
-107.73
-66.88
-34.92
-8.13
17.25
42.83
67.75
89.55
107.27
121.80
135.15
149.08
167.65
192.80
223.48
256.41
287.72
315.51
340.02
362.58
384.50
410.68
443.86
483.16
524.13
560.93
589.04
605.93
610.59
575.80
489.24
357.65
204.13
53.73
-77.98
-185.98
-271.53
-337.73
-387.34
-418.85
-431.34
-425.23
-403.74
-371.61
-332.84
-289.52
-241.87
-188.51
-126.88
-58.97
9.36
70.68
119.54
154.27
175.72
184.74
180.18
161.36
128.01
82.43
30.23
-20.45
-61.83
-90.02
-105.93
-113.26
-113.69
-105.83
-86.58
-55.18
-16.25
22.03
49.39
59.65
53.73
38.85
23.69
13.88
9.45
6.23
-0.50
-13.05
-30.28
-49.24
-67.38
-83.50
-96.82
-105.64
-107.71
-101.86
-89.76
-75.64
-64.55
-59.69
-61.09
-66.38
-71.37
-72.95
-70.94
-67.66
-65.38
-64.19
-62.15
-57.26
-49.42
-39.82
-30.64
-23.58
-19.11
-16.29
-13.71
-10.99
-9.19
-9.59
-10.46
-7.70
3.44
25.63
58.25
97.94
139.51
177.48
198.38
192.47
159.05
106.95
47.85
-10.33
-63.79
-111.46
-153.15
-188.35
-215.68
-233.74
-241.51
-239.37
-229.44
-212.90
-190.25
-161.48
-125.61
-83.50
-38.73
3.57
38.24
60.92
70.80
69.12
58.03
40.49
19.53
-2.31
-23.46
-38.17
-49.75
-60.87
-73.34
-88.40
-105.70
-124.41
-143.22
-160.51
-174.71
-185.24
-190.16
-186.79
-179.48
-169.30
-157.06
-143.57
-129.63
-116.22
-105.25
-97.72
-94.51
-96.44
-102.97
-113.47
-126.93
-141.76
-156.00
-168.08
-176.03
-178.26
-173.93
-162.18
-143.23
-118.12
-88.31
-55.61
-22.18
10.18
39.94
65.80
87.31
104.22
116.52
124.58
129.06
130.75
130.58
129.37
127.61
125.61
123.22
120.07
115.94
111.00
105.79
101.21
98.17
97.24
98.49
101.51
105.60
110.26
115.58
122.28
131.50
144.24
160.89
180.83
202.84
225.34
247.10
267.81
287.96
308.76
331.70
358.35
389.81
426.31
466.25
505.71
538.86
559.19
561.76
545.09
511.88
467.91
419.97
373.41
330.92
292.87
258.51
227.35
199.65
175.98
156.34
139.71
124.19
107.80
89.40
69.00
47.94
28.23
11.73
-0.51
-8.69
-14.13
-18.79
-24.27
-31.20
-38.92
-45.90
-50.71
-52.76
-52.71
-52.09
-52.50
-54.73
-58.62
-63.20
-67.32
-70.27
-71.78
-72.03
-71.41
-70.28
-69.04
-68.28
-68.68
-70.60
-73.69
-76.62
-77.50
-74.68
-67.70
-57.72
-47.23
-38.93
-34.56
-34.22
-36.63
-40.00
-43.11
-45.76
-48.51
-51.97
-56.15
-60.49
-64.25
-67.30
-70.42
-74.85
-81.56
-90.48
-100.10
-108.01
-111.92
-110.58
-104.44
-95.35
-85.72
-77.52
-71.67
-67.99
-65.78
-64.48
-64.04
-64.85
-67.34
-71.54
-77.05
-83.17
-89.22
-94.82
-99.86
-104.43
-108.58
-112.32
-115.63
-118.58
-121.25
-123.58
-125.37
-126.34
-126.40
-125.69
-124.52
-123.10
-121.32
-118.71
-114.65
-108.89
-101.64
-93.52
-85.15
-76.93
-68.83
-60.75
-52.74
-45.26
-39.03
-34.66
-32.33
-31.52
-31.29
-30.61
-28.88
-26.02
-22.53
-19.19
-16.58
-14.85
-13.59
-12.03
-9.44
-5.58
-0.87
3.75
7.20
8.70
8.10
5.90
2.98
0.33
-1.31
-1.56
-0.41
1.82
4.58
7.23
9.23
10.29
10.42
9.90
8.96
7.74
6.12
3.89
0.91
-2.74
-6.69
-10.45
-13.50
-15.52
-16.37
-16.12
-14.97
-13.28
-11.48
-10.14
-9.81
-10.83
-13.29
-16.85
-20.92
-24.70
-27.37
-28.32
-27.15
-23.85
-18.80
-12.77
-6.74
-1.62
2.00
4.17
5.34
6.12
6.92
7.71
8.11
7.74
6.53
4.86
3.40
2.71
2.97
3.87
4.88
5.61
5.90
5.89
5.68
5.22
4.27
2.63
0.32
-2.33
-4.85
-6.84
-8.12
-8.75
-8.72
-7.95
-6.19
-3.22
0.83
5.42
9.68
12.78
14.23
14.11
12.85
11.03
9.12
7.29
5.52
3.66
1.74
-0.10
-1.57
-2.29
-1.99
-0.46
2.16
5.53
8.86
11.20
11.61
9.56
5.14
-1.00
-7.83
-14.34
-19.62
-23.21
-25.09
-25.71
-25.89
-26.52
-28.11
-30.35
-32.19
-32.02
-28.54
-21.44
-11.83
-2.14
4.59
5.37
-1.93
-17.84
-40.49
-65.24
-85.26
-93.51
-85.29
-60.37
-23.72
15.96
49.40
70.60
79.28
80.60
82.16
90.29
107.52
132.22
160.07
186.25
207.10
220.92
227.46
226.50
216.98
197.66
168.50
131.80
92.15
55.26
26.26
8.01
-0.48
-3.89
-8.56
-19.76
-39.92
-68.33
-102.35
-138.56
-170.47
-190.57
-194.08
-182.27
-161.28
-137.66
-115.39
-95.87
-78.78
-63.27
-49.35
-38.29
-31.53
-29.35
-31.15
-34.64
-38.00
-40.65
-43.14
-46.92
-53.33
-62.27
-71.73
-78.92
-81.49
-78.57
-70.38
-57.32
-38.73
-15.31
11.29
38.36
62.30
79.63
88.25
88.50
83.16
75.82
69.17
64.14
60.01
55.24
48.71
40.40
31.36
23.29
17.49
14.23
13.13
13.65
15.84
20.58
29.25
42.78
60.92
81.95
103.30
122.80
139.49
153.68
166.35
178.16
188.96
197.83
203.71
206.06
205.35
202.94
200.63
200.07
202.35
207.48
214.13
219.79
221.19
215.62
201.88
181.14
156.55
132.22
111.72
96.82
87.26
81.19
76.13
69.88
60.87
48.13
31.16
9.76
-16.08
-46.38
-81.16
-120.23
-162.46
-205.17
-244.13
-274.20
-290.91
-292.01
-278.15
-252.84
-221.43
-189.85
-163.85
-148.52
-147.97
-164.52
-197.34
-241.18
-286.74
-322.88
-340.02
-333.68
-305.88
-263.95
-217.41
-174.50
-139.77
-114.01
-95.76
-82.95
-74.08
-68.16
-64.11
-60.38
-55.29
-47.72
-37.83
-26.99
-17.07
-9.65
-5.30
-3.42
-2.69
-1.60
0.99
5.36
11.01
16.93
21.93
25.22
26.63
26.62
26.07
25.81
26.24
27.15
27.89
27.64
25.92
22.75
18.64
14.34
10.61
8.03
6.98
7.61
9.90
13.60
18.26
23.26
27.90
31.63
34.17
35.43
35.41
34.15
31.68
28.12
23.83
19.38
15.55
13.04
12.28
13.25
15.52
18.33
20.82
22.24
22.08
20.22
16.84
12.39
7.37
2.17
-2.96
-7.87
-12.41
-16.22
-18.68
-19.07
-16.80
-11.77
-4.42
4.27
13.03
20.65
26.24
29.38
30.09
28.79
26.06
22.61
19.14
16.21
14.15
13.03
12.59
12.48
12.37
12.07
11.62
11.07
10.46
9.61
8.27
6.29
3.71
0.94
-1.58
-3.58
-5.25
-7.09
-9.64
-13.08
-17.04
-20.62
-22.67
-22.35
-19.35
-14.13
-7.72
-1.32
3.93
7.36
8.75
8.35
6.65
4.36
2.08
0.29
-0.90
-1.70
-2.72
-4.69
-8.11
-12.88
-18.07
-22.04
-23.00
-19.79
-12.35
-1.88
9.53
19.73
27.25
31.68
33.56
33.85
33.41
32.64
31.61
30.33
28.89
27.66
26.99
27.00
27.49
28.03
28.18
27.75
26.81
25.64
24.50
23.48
22.46
21.04
18.67
14.93
9.68
3.25
-3.54
-9.71
-14.61
-18.14
-20.89
-23.68
-27.06
-30.95
-34.62
-37.11
-37.75
-36.69
-34.72
-32.78
-31.58
-31.23
-31.39
-31.57
-31.36
-30.56
-29.01
-26.61
-23.14
-18.52
-12.94
-6.95
-1.36
3.19
6.39
8.52
10.27
12.48
15.70
20.03
24.93
29.40
32.37
33.08
31.43
28.02
24.03
20.65
18.74
18.60
19.90
21.97
24.14
25.93
27.14
27.69
27.51
26.58
25.01
23.05
21.05
19.30
17.73
16.01
13.72
10.67
7.21
4.19
2.56
2.92
5.19
8.50
11.62
13.45
13.56
12.17
10.05
7.88
5.96
4.13
2.03
-0.45
-2.98
-4.92
-5.74
-5.46
-4.70
-4.46
-5.54
-8.01
-11.13
-13.70
-14.78
-14.08
-12.09
-9.78
-8.03
-7.19
-7.01
-6.94
-6.70
-6.60
-7.27
-9.29
-12.62
-16.44
-19.42
-20.43
-18.92
-15.16
-10.03
-4.41
1.04
6.09
10.74
15.01
18.74
21.55
23.09
23.23
22.06
19.93
17.31
14.56
11.85
9.12
6.29
3.40
0.74
-1.27
-2.29
-2.17
-1.04
0.69
2.53
4.02
4.83
4.90
4.41
3.65
2.95
2.45
1.90
0.92
-0.81
-3.24
-5.84
-7.87
-8.76
-8.42
-7.29
-6.03
-5.08
-4.54
-4.22
-3.95
-3.74
-3.87
-4.61
-6.04
-7.93
-9.75
-11.05
-11.50
-11.05
-9.83
-8.07
-5.94
-3.54
-1.06
1.18
2.56
2.32
-0.08
-4.68
-10.71
-16.71
-20.96
-22.13
-19.74
-14.34
-7.24
0.06
6.31
10.84
13.48
14.46
14.09
12.77
10.84
8.68
6.61
4.88
3.61
2.82
2.47
2.55
3.13
4.27
5.98
8.11
10.33
12.29
13.80
14.80
15.41
15.69
15.52
14.76
13.32
11.45
9.64
8.49
8.36
9.25
10.82
12.62
14.33
15.87
17.25
18.43
19.28
19.59
19.26
18.42
17.24
15.94
14.56
12.96
11.02
8.81
6.56
4.61
3.19
2.18
1.25
0.01
-1.59
-3.20
-4.18
-4.04
-2.87
-1.30
-0.29
-0.40
-1.43
-2.53
-2.58
-0.80
2.88
8.00
13.96
20.37
27.33
35.04
43.31
51.39
57.87
61.21
60.37
55.27
46.75
36.33
25.57
15.39
6.00
-3.01
-12.12
-21.37
-30.27
-38.07
-44.18
-48.42
-51.18
-52.99
-54.29
-55.35
-56.18
-56.79
-57.21
-57.50
-57.61
-57.43
-56.67
-55.03
-52.28
-48.22
-42.77
-36.04
-28.37
-20.37
-12.79
-6.25
-1.04
2.85
5.68
7.69
8.91
9.25
8.63
7.18
5.32
3.60
2.50
2.38
3.44
5.71
9.08
13.01
16.49
18.00
15.95
9.38
-1.37
-14.53
-27.47
-37.61
-43.33
-44.37
-41.46
-35.67
-27.84
-18.50
-8.31
1.50
9.33
13.59
13.59
9.98
4.62
-0.27
-3.14
-3.72
-2.96
-2.36
-3.20
-5.91
-9.97
-14.17
-17.19
-17.99
-16.16
-11.99
-6.56
-1.62
0.91
-0.44
-5.98
-14.46
-23.35
-29.57
-30.59
-25.32
-14.43
-0.02
15.17
28.61
38.47
43.90
44.82
41.80
35.85
28.27
20.44
13.49
8.12
4.44
2.18
0.72
-0.47
-1.69
-2.87
-3.49
-2.79
0.05
5.42
12.73
20.20
25.10
24.72
17.67
4.75
-11.08
-25.74
-35.57
-38.70
-35.44
-27.79
-18.39
-9.55
-2.85
0.80
1.00
-2.23
-8.22
-15.57
-22.52
-27.41
-29.45
-28.85
-26.68
-24.19
-22.27
-21.24
-20.92
-21.00
-21.13
-20.90
-19.83
-17.49
-13.92
-9.97
-7.14
-6.97
-10.16
-15.89
-21.98
-25.62
-24.60
-18.12
-7.09
6.40
19.86
31.00
38.31
41.14
39.85
35.64
30.26
25.55
22.90
22.81
24.86
28.03
31.27
33.86
35.46
35.90
34.88
32.17
27.84
22.55
17.60
14.18
12.70
12.27
11.11
7.50
0.98
-7.17
-14.41
-18.16
-17.07
-11.63
-3.74
4.28
10.77
15.30
18.50
21.34
24.53
28.04
31.28
33.45
33.94
32.50
29.16
24.07
17.26
8.78
-1.17
-11.94
-22.34
-30.86
-36.02
-36.95
-33.76
-27.71
-20.90
-15.64
-13.59
-15.08
-19.02
-23.37
-26.12
-26.18
-23.74
-20.01
-16.41
-13.85
-12.42
-11.56
-10.48
-8.74
-6.29
-3.52
-1.03
0.52
0.63
-0.89
-3.82
-7.47
-10.89
-13.17
-13.81
-12.87
-10.94
-8.86
-7.29
-6.56
-6.42
-6.26
-5.25
-2.91
0.69
4.75
8.06
9.67
9.39
8.08
7.22
8.20
11.50
16.46
21.65
25.63
27.74
28.30
28.29
28.72
29.98
31.79
33.32
33.73
32.39
29.09
23.91
17.13
9.24
0.96
-6.80
-13.13
-17.37
-19.30
-19.21
-17.79
-15.87
-14.25
-13.59
-14.28
-16.44
-19.74
-23.46
-26.80
-29.14
-30.26
-30.38
-29.86
-28.93
-27.49
-25.28
-22.10
-18.06
-13.53
-8.90
-4.37
0.16
4.78
9.54
14.27
18.65
22.38
25.35
27.48
28.71
29.04
28.47
27.17
25.39
23.40
21.41
19.64
18.24
17.40
17.36
18.12
19.48
20.80
21.29
20.25
17.44
13.18
8.33
4.05
1.37
0.94
2.69
5.94
9.62
12.74
14.78
15.99
17.06
18.65
20.92
23.27
24.68
24.17
21.37
16.72
11.31
6.31
2.65
0.83
0.91
2.58
5.29
8.16
10.11
10.06
7.20
1.43
-6.47
-15.13
-22.91
-28.45
-31.06
-30.88
-28.61
-25.30
-21.83
-18.83
-16.74
-15.69
-15.62
-16.14
-16.48
-15.66
-13.00
-8.45
-2.97
1.93
4.98
5.74
5.03
4.34
5.00
7.37
10.75
13.75
15.13
14.58
12.63
10.38
8.79
8.25
8.52
9.05
9.31
9.07
8.33
7.17
5.59
3.52
0.88
-2.09
-4.71
-6.03
-5.17
-1.83
3.28
8.65
12.39
12.98
9.95
4.03
-3.07
-9.24
-12.74
-12.86
-10.00
-5.56
-1.32
1.30
1.72
0.36
-1.65
-3.03
-2.92
-1.12
1.98
5.69
9.40
12.79
15.73
18.25
20.31
21.78
22.44
22.13
20.77
18.51
15.70
12.89
10.70
9.69
10.14
11.99
14.75
17.55
19.37
19.23
16.66
11.89
5.88
0.21
-3.47
-4.13
-1.87
1.92
4.98
5.12
1.30
-5.88
-14.27
-21.19
-24.58
-23.89
-20.12
-15.17
-10.82
-7.93
-6.34
-5.33
-4.37
-3.44
-3.09
-4.01
-6.54
-10.35
-14.55
-18.06
-19.95
-19.85
-17.91
-14.72
-11.05
-7.67
-5.22
-4.19
-4.83
-7.14
-10.74
-14.82
-18.26
-20.06
-19.67
-17.37
-14.14
-11.14
-9.06
-7.68
-6.00
-2.88
2.23
8.80
15.41
20.57
23.44
24.36
24.57
25.33
27.25
29.76
31.48
30.94
27.42
21.42
14.57
9.05
6.71
8.47
13.98
21.74
29.60
35.39
37.53
35.49
29.92
22.43
15.10
9.80
7.35
7.24
7.74
6.63
2.20
-6.01
-17.09
-29.14
-40.06
-48.31
-53.07
-54.25
-52.15
-47.22
-40.18
-32.16
-24.65
-19.11
-16.46
-16.54
-18.10
-19.30
-18.49
-14.96
-9.26
-2.95
2.13
4.63
4.14
1.31
-2.48
-5.69
-6.94
-5.39
-0.89
5.85
13.22
19.00
20.94
17.65
9.24
-2.46
-14.37
-23.35
-27.25
-25.65
-19.91
-12.40
-5.48
-0.77
1.26
1.05
-0.54
-2.77
-5.20
-7.76
-10.33
-12.65
-14.29
-14.88
-14.42
-13.45
-12.64
-12.62
-13.52
-14.86
-15.80
-15.48
-13.34
-9.40
-4.44
0.16
2.72
1.85
-2.83
-10.37
-18.66
-25.11
-27.84
-26.37
-21.63
-15.33
-9.05
-3.59
0.93
4.56
7.16
8.35
7.85
6.10
4.23
3.61
5.09
8.35
12.04
14.44
14.45
12.13
8.59
5.41
3.78
4.25
6.72
10.88
16.48
23.24
30.37
36.45
39.49
37.86
31.08
20.41
8.51
-1.51
-7.31
-8.05
-4.45
1.73
8.58
14.55
18.70
20.56
20.02
17.26
12.84
7.66
2.80
-0.85
-2.94
-3.74
-4.07
-4.86
-6.80
-9.99
-14.00
-18.01
-21.07
-22.41
-21.67
-19.05
-15.36
-11.92
-10.08
-10.91
-14.58
-20.27
-26.37
-31.02
-32.69
-30.61
-24.95
-16.51
-6.53
3.65
12.74
19.64
23.61
24.42
22.50
18.79
14.49
10.70
8.09
6.90
6.90
7.69
8.86
9.97
10.77
10.96
10.32
8.76
6.50
4.01
1.87
0.33
-0.91
-2.57
-5.52
-10.05
-15.57
-20.61
-23.45
-22.86
-18.76
-12.24
-5.10
0.92
4.80
6.36
6.28
5.57
5.15
5.49
6.48
7.53
7.94
7.24
5.37
2.72
-0.08
-2.47
-4.16
-5.09
-5.48
-5.68
-5.99
-6.66
-7.75
-9.00
-9.96
-10.20
-9.55
-8.42
-7.59
-7.78
-9.19
-11.24
-12.77
-12.61
-10.18
-5.70
-0.02
5.82
11.12
15.64
19.43
22.63
25.13
26.65
26.89
25.73
23.38
20.27
16.91
13.71
10.96
8.75
7.17
6.30
6.21
6.84
7.97
9.07
9.46
8.51
5.86
1.76
-2.97
-7.20
-9.90
-10.57
-9.47
-7.53
-5.80
-5.01
-5.13
-5.47
-5.09
-3.35
-0.26
3.53
6.99
9.26
9.97
9.34
8.00
6.68
5.89
5.75
5.96
5.94
5.11
3.18
0.27
-3.18
-6.42
-8.72
-9.61
-8.91
-6.85
-3.98
-1.00
1.39
2.62
2.49
1.25
-0.54
-2.07
-2.73
-2.23
-0.79
0.91
2.10
2.29
1.58
0.71
0.72
2.43
6.01
10.70
15.09
17.64
17.39
14.30
9.28
3.77
-0.86
-3.79
-4.92
-4.73
-3.91
-2.90
-1.89
-0.76
0.66
2.39
4.30
6.12
7.63
8.75
9.42
9.55
8.99
7.53
5.11
1.96
-1.33
-3.87
-4.86
-3.90
-1.36
1.81
4.38
5.51
5.09
3.86
2.95
3.23
4.82
7.02
8.83
9.40
8.68
7.27
6.10
5.96
7.03
8.85
10.58
11.36
10.69
8.66
5.95
3.54
2.34
2.80
4.69
7.18
9.23
10.04
9.38
7.57
5.29
3.25
1.79
1.05
0.89
1.16
1.62
1.84
1.21
-0.85
-4.48
-9.10
-13.48
-16.15
-16.10
-13.29
-8.69
-3.92
-0.40
1.22
1.26
0.60
0.20
0.44
1.01
1.12
0.07
-2.35
-5.61
-8.63
-10.28
-9.94
-7.82
-4.73
-1.79
0.24
1.09
0.95
0.19
-0.95
-2.47
-4.50
-6.97
-9.56
-11.78
-13.23
-13.83
-13.74
-13.25
-12.47
-11.39
-9.87
-7.82
-5.42
-2.99
-0.86
0.85
2.20
3.47
4.86
6.45
8.09
9.50
10.38
10.51
9.95
8.92
7.82
7.01
6.59
6.40
6.01
5.04
3.38
1.27
-0.76
-2.10
-2.43
-1.94
-1.33
-1.67
-3.91
-8.41
-14.68
-21.33
-26.48
-28.56
-26.89
-22.02
-15.45
-8.96
-3.87
-0.73
0.80
1.47
1.92
2.39
2.68
2.46
1.54
0.13
-1.26
-1.95
-1.52
0.01
2.11
4.01
5.00
4.75
3.49
1.87
0.58
0.09
0.45
1.37
2.30
2.69
2.15
0.62
-1.62
-4.06
-6.09
-7.24
-7.16
-5.78
-3.19
0.33
4.36
8.39
11.86
14.32
15.52
15.61
14.97
14.07
13.14
12.25
11.21
9.94
8.68
7.79
7.65
8.32
9.37
9.91
9.15
6.84
3.53
0.48
-1.14
-0.84
0.61
1.52
0.09
-4.63
-12.04
-20.25
-26.77
-29.71
-28.36
-23.43
-16.46
-9.15
-2.85
1.75
4.45
5.39
4.83
3.17
0.87
-1.56
-3.54
-4.71
-4.84
-3.99
-2.40
-0.49
1.34
2.82
3.82
4.42
4.83
5.26
5.86
6.60
7.12
6.87
5.23
1.92
-2.77
-7.89
-12.06
-13.97
-12.96
-9.26
-3.98
1.32
5.31
7.24
7.11
5.52
3.27
1.06
-0.66
-1.81
-2.54
-3.03
-3.37
-3.50
-3.27
-2.55
-1.44
-0.17
0.99
1.97
2.98
4.41
6.36
8.49
9.77
8.93
4.98
-2.08
-11.08
-19.95
-26.50
-29.18
-27.67
-22.90
-16.56
-10.38
-5.58
-2.59
-1.11
-0.67
-0.81
-1.45
-2.71
-4.71
-7.28
-9.81
-11.45
-11.29
-8.85
-4.28
1.57
7.47
12.31
15.50
17.21
18.25
19.58
21.75
24.51
26.81
27.33
25.10
20.15
13.49
6.84
1.96
-0.02
1.14
4.87
10.13
15.84
21.18
25.64
28.95
31.03
31.83
31.35
29.65
26.99
23.89
21.07
19.22
18.75
19.63
21.43
23.59
25.61
27.33
28.76
30.08
31.24
31.99
31.89
30.42
27.15
21.81
14.40
5.32
-4.53
-13.88
-21.29
-25.56
-26.24
-23.62
-18.71
-12.92
-7.55
-3.59
-1.50
-1.35
-2.90
-5.76
-9.49
-13.62
-17.78
-21.74
-25.51
-29.13
-32.75
-36.36
-39.81
-42.63
-44.24
-44.01
-41.57
-37.16
-31.74
-27.00
-24.72
-26.11
-31.08
-38.09
-44.69
-48.37
-47.56
-42.13
-33.27
-22.83
-12.62
-3.95
2.49
6.42
7.92
7.34
5.39
3.04
1.28
0.83
1.74
3.45
4.96
5.35
4.13
1.52
-1.57
-3.88
-4.21
-2.03
2.26
7.13
10.52
10.50
6.23
-1.48
-10.31
-17.18
-19.50
-16.04
-7.46
4.05
15.58
24.51
29.24
29.41
25.89
20.19
14.04
8.84
5.36
3.63
3.14
3.16
3.02
2.36
1.07
-0.74
-2.80
-4.68
-5.72
-5.30
-3.13
0.26
3.37
4.16
0.84
-7.07
-18.26
-29.78
-38.15
-40.68
-36.52
-26.83
-14.17
-1.39
9.28
16.75
20.96
22.42
21.70
19.23
15.38
10.58
5.46
0.81
-2.69
-4.65
-5.06
-4.31
-2.94
-1.33
0.41
2.47
5.07
8.15
11.08
12.75
12.01
8.21
1.75
-5.89
-12.59
-16.47
-16.55
-13.18
-7.69
-1.78
3.17
6.50
8.23
8.81
8.75
8.42
8.00
7.53
7.01
6.38
5.68
4.95
4.29
3.77
3.47
3.44
3.71
4.44
5.72
7.54
9.52
10.87
10.57
7.74
2.28
-4.94
-12.11
-17.18
-18.68
-16.31
-11.05
-4.67
1.07
5.12
7.38
8.44
8.96
9.30
9.27
8.41
6.42
3.43
0.17
-2.48
-3.82
-3.82
-3.04
-2.44
-2.86
-4.43
-6.54
-7.94
-7.45
-4.52
0.28
5.40
8.86
9.18
6.00
0.24
-6.23
-11.41
-13.91
-13.34
-10.21
-5.57
-0.47
4.34
8.38
11.46
13.50
14.59
14.95
14.92
14.86
14.96
15.06
14.64
13.16
10.28
6.24
1.77
-2.07
-4.36
-4.80
-3.68
-1.79
0.09
1.46
2.23
2.49
2.26
1.40
-0.33
-2.86
-5.72
-8.06
-9.12
-8.62
-6.96
-5.04
-3.83
-3.78
-4.63
-5.52
-5.47
-3.89
-0.87
2.85
6.22
8.40
9.13
8.84
8.36
8.45
9.35
10.58
11.28
10.63
8.37
4.90
1.12
-2.05
-4.05
-4.87
-4.87
-4.56
-4.31
-4.27
-4.42
-4.71
-5.06
-5.42
-5.69
-5.73
-5.46
-4.86
-4.07
-3.30
-2.75
-2.51
-2.51
-2.54
-2.38
-1.83
-0.92
0.14
0.99
1.23
0.66
-0.68
-2.44
-4.11
-5.24
-5.59
-5.25
-4.50
-3.68
-3.04
-2.72
-2.71
-2.88
-3.01
-2.76
-1.78
0.03
2.44
4.76
6.15
6.10
4.71
2.78
1.33
1.13
2.20
3.93
5.39
5.94
5.57
4.78
4.35
4.88
6.57
9.20
12.28
15.14
17.14
17.77
16.75
14.22
10.71
7.07
4.12
2.52
2.42
3.52
5.29
7.06
8.23
8.31
7.05
4.37
0.55
-3.72
-7.54
-9.93
-10.35
-8.99
-6.80
-5.09
-4.92
-6.48
-8.98
-11.16
-11.90
-10.95
-8.97
-7.12
-6.33
-6.83
-8.01
-8.87
-8.45
-6.29
-2.50
2.37
7.55
12.26
15.86
17.99
18.64
18.11
16.90
15.45
13.95
12.36
10.47
8.04
5.14
2.06
-0.81
-3.07
-4.37
-4.59
-3.77
-2.31
-0.90
-0.38
-1.45
-4.37
-8.65
-13.19
-16.65
-18.04
-17.16
-14.62
-11.44
-8.67
-6.83
-5.82
-5.14
-4.23
-2.90
-1.36
-0.21
0.09
-0.65
-2.06
-3.40
-3.89
-3.12
-1.26
1.05
2.97
3.98
4.04
3.62
3.35
3.69
4.74
6.22
7.72
8.73
8.87
7.90
5.81
2.86
-0.44
-3.34
-5.10
-5.26
-3.89
-1.53
1.06
3.24
4.73
5.64
6.21
6.63
6.83
6.51
5.36
3.29
0.57
-2.16
-4.12
-4.71
-3.78
-1.74
0.59
2.32
2.85
2.09
0.64
-0.62
-0.85
0.26
2.32
4.30
5.05
3.81
0.62
-3.55
-7.35
-9.52
-9.48
-7.50
-4.48
-1.44
0.96
2.57
3.62
4.36
4.85
4.85
4.01
2.11
-0.71
-3.96
-6.93
-8.89
-9.39
-8.37
-6.21
-3.63
-1.39
-0.08
0.06
-0.78
-2.06
-3.12
-3.47
-2.94
-1.87
-0.89
-0.79
-2.00
-4.43
-7.38
-9.82
-10.81
-9.92
-7.31
-3.59
0.53
4.56
8.28
11.55
14.09
15.39
14.93
12.57
8.79
4.66
1.53
0.43
1.70
4.80
8.56
11.62
12.90
11.90
8.78
4.33
-0.27
-3.68
-4.83
-3.43
-0.12
3.60
5.96
5.69
2.60
-2.47
-8.03
-12.73
-15.85
-17.33
-17.54
-16.93
-15.85
-14.54
-13.18
-11.70
-9.63
-6.12
-0.28
8.17
18.36
28.41
36.02
39.59
38.94
35.40
31.18
28.45
28.55
31.82
37.85
45.90
55.13
64.57
72.97
78.78
80.68
77.92
70.64
59.69
46.18
31.10
15.33
-0.30
-14.84
-27.41
-37.64
-45.96
-53.37
-60.79
-68.29
-74.73
-78.26
-77.22
-71.06
-60.76
-48.47
-36.60
-27.18
-21.37
-19.37
-20.60
-23.92
-28.03
-31.88
-35.01
-37.52
-39.95
-42.73
-45.84
-48.77
-50.72
-51.11
-49.76
-46.97
-43.23
-38.93
-34.25
-29.16
-23.75
-18.38
-13.63
-10.06
-7.91
-6.90
-6.36
-5.54
-3.98
-1.78
0.52
2.37
3.60
4.63
6.30
9.38
14.04
19.74
25.39
29.95
32.96
34.73
36.12
37.96
40.50
43.12
44.75
44.44
41.94
37.96
33.78
30.67
29.23
29.14
29.47
29.24
28.01
26.00
23.90
22.36
21.61
21.43
21.35
21.00
20.31
19.44
18.52
17.36
15.53
12.45
7.74
1.59
-5.25
-11.55
-16.11
-18.23
-18.06
-16.62
-15.55
-16.35
-19.78
-25.46
-32.03
-37.69
-40.92
-41.05
-38.42
-34.08
-29.31
-25.18
-22.35
-20.99
-20.93
-21.75
-22.99
-24.22
-25.14
-25.64
-25.71
-25.44
-24.89
-24.05
-22.89
-21.42
-19.59
-17.32
-14.45
-10.70
-6.00
-0.65
4.56
8.58
10.50
10.02
7.69
4.65
2.36
2.00
4.16
8.72
15.02
22.11
29.00
34.85
39.06
41.49
42.32
42.08
41.31
40.41
39.48
38.38
36.84
34.71
32.11
29.32
26.77
24.82
23.70
23.49
24.12
25.37
26.78
27.67
27.13
24.34
18.90
11.02
1.69
-7.70
-15.71
-21.31
-24.13
-24.45
-23.03
-20.84
-18.93
-18.14
-19.08
-21.88
-26.22
-31.41
-36.56
-40.95
-44.16
-46.09
-46.82
-46.51
-45.30
-43.28
-40.60
-37.40
-33.81
-30.01
-26.26
-23.06
-21.04
-20.93
-22.99
-26.81
-31.15
-34.36
-34.99
-32.39
-27.04
-20.21
-13.48
-8.01
-4.29
-2.09
-0.78
0.29
1.54
3.05
4.71
6.32
7.81
9.29
11.06
13.50
16.80
20.82
25.01
28.66
31.25
32.75
33.56
34.17
34.84
35.21
34.49
31.87
27.16
21.05
14.98
10.59
9.09
10.76
14.91
20.20
25.06
28.28
29.17
27.76
24.57
20.52
16.50
13.22
11.09
10.13
10.04
10.31
10.35
9.67
8.01
5.47
2.48
-0.25
-2.00
-2.34
-1.44
-0.02
0.74
-0.31
-3.80
-9.56
-16.50
-23.01
-27.47
-28.94
-27.32
-23.44
-18.56
-13.94
-10.44
-8.42
-7.85
-8.43
-9.75
-11.29
-12.48
-12.79
-11.92
-9.97
-7.46
-5.15
-3.70
-3.38
-3.90
-4.57
-4.53
-3.15
-0.25
3.70
7.68
10.40
10.79
8.45
3.99
-1.17
-5.19
-6.65
-5.04
-1.05
3.83
7.94
10.11
10.03
8.13
5.29
2.30
-0.28
-2.24
-3.58
-4.41
-4.85
-5.08
-5.21
-5.39
-5.68
-6.03
-6.25
-5.97
-4.86
-2.64
0.66
4.61
8.28
10.49
10.10
6.61
0.38
-7.30
-14.59
-19.75
-21.76
-20.54
-16.86
-11.96
-7.04
-2.91
0.00
1.61
2.02
1.38
-0.05
-1.88
-3.69
-5.12
-5.96
-6.16
-5.80
-5.10
-4.35
-3.74
-3.30
-2.84
-1.99
-0.38
2.08
5.07
7.75
9.19
8.75
6.59
3.67
1.57
1.76
5.11
11.58
20.24
29.61
38.18
44.66
48.24
48.63
45.99
40.84
34.07
26.65
19.56
13.57
9.09
6.17
4.55
3.72
3.08
2.09
0.52
-1.47
-3.33
-4.46
-4.46
-3.45
-2.20
-1.79
-3.11
-6.41
-11.06
-15.80
-19.18
-20.22
-18.63
-14.95
-10.06
-4.90
-0.16
3.77
6.67
8.42
8.96
8.35
6.79
4.75
2.77
1.36
0.85
1.26
2.36
3.75
5.00
5.85
6.26
6.40
6.50
6.67
6.72
6.21
4.66
1.82
-2.14
-6.59
-10.72
-13.83
-15.46
-15.67
-14.76
-13.20
-11.47
-10.04
-9.31
-9.56
-10.84
-12.82
-14.91
-16.44
-16.87
-16.02
-14.09
-11.48
-8.72
-6.20
-4.16
-2.67
-1.63
-0.87
-0.14
0.74
1.77
2.62
2.73
1.52
-1.28
-5.45
-10.24
-14.63
-17.61
-18.64
-17.75
-15.55
-12.91
-10.71
-9.55
-9.67
-10.90
-12.73
-14.58
-16.00
-16.79
-17.02
-16.99
-16.93
-16.93
-16.93
-16.79
-16.49
-16.05
-15.46
-14.44
-12.40
-8.74
-3.20
3.73
10.78
16.27
19.03
18.88
16.85
14.80
14.56
17.16
22.48
29.45
36.57
42.58
46.85
49.34
50.40
50.39
49.53
47.85
45.33
42.03
38.17
34.11
30.16
26.56
23.28
20.12
16.89
13.60
10.52
8.11
6.72
6.21
5.88
4.57
1.20
-4.67
-12.53
-20.92
-27.97
-32.10
-32.57
-29.73
-24.77
-19.32
-14.82
-12.28
-11.88
-13.13
-15.06
-16.65
-17.16
-16.43
-14.83
-13.06
-11.77
-11.24
-11.31
-11.59
-11.67
-11.36
-10.66
-9.74
-8.65
-7.42
-6.15
-5.13
-5.08
-6.73
-10.53
-16.28
-22.97
-29.02
-32.93
-33.81
-31.73
-27.64
-22.78
-18.14
-14.19
-10.87
-7.98
-5.45
-3.46
-2.20
-1.68
-1.50
-1.05
0.19
2.24
4.60
6.45
7.13
6.62
5.54
5.02
6.08
9.13
13.69
18.41
21.71
22.31
19.89
15.10
9.34
4.11
0.41
-1.40
-1.67
-1.00
-0.02
0.93
1.72
2.31
2.65
2.78
2.79
2.94
3.49
4.54
5.90
7.04
7.27
6.09
3.51
0.15
-2.92
-4.55
-3.91
-0.75
4.51
10.82
16.79
20.91
21.96
19.38
13.57
5.85
-1.82
-7.48
-9.77
-8.39
-4.19
1.04
5.13
6.15
2.96
-4.36
-14.51
-25.24
-34.01
-38.80
-38.67
-33.99
-26.26
-17.65
-10.25
-5.66
-4.62
-6.97
-11.74
-17.40
-22.28
-24.95
-24.76
-22.03
-18.07
-14.92
-14.64
-18.66
-27.21
-39.16
-52.34
-64.34
-73.21
-78.01
-78.83
-76.44
-71.69
-65.10
-56.71
-46.27
-33.60
-18.90
-2.91
13.27
28.45
41.63
52.25
60.13
65.38
68.27
69.27
69.10
68.74
69.45
72.15
77.11
83.54
89.66
93.31
92.75
87.35
77.82
65.99
54.06
43.83
36.18
30.98
27.22
23.56
18.74
11.92
3.00
-7.35
-17.64
-26.03
-30.73
-30.73
-26.10
-17.99
-8.24
1.34
9.50
15.79
20.36
23.50
25.23
25.26
23.16
18.74
12.31
4.64
-3.29
-10.52
-16.36
-20.47
-22.74
-23.19
-22.00
-19.39
-15.68
-11.23
-6.45
-1.77
2.37
5.50
7.24
7.31
5.68
2.61
-1.36
-5.44
-8.74
-10.52
-10.34
-8.23
-4.72
-0.61
3.31
6.53
8.94
10.73
12.11
13.10
13.30
12.13
9.10
4.26
-1.59
-7.08
-10.60
-11.00
-7.97
-2.29
4.59
11.00
15.70
18.19
18.60
17.36
14.82
11.17
6.44
0.81
-5.40
-11.59
-17.18
-21.89
-25.73
-29.10
-32.44
-36.09
-40.10
-44.18
-47.69
-49.73
-49.56
-46.64
-40.83
-32.30
-21.48
-8.91
4.95
19.78
35.16
50.33
64.16
75.17
82.24
84.89
83.58
79.89
75.86
73.06
71.68
70.49
67.37
60.70
49.80
35.41
19.65
5.33
-5.17
-10.49
-10.48
-5.93
2.09
11.52
19.33
22.56
19.52
10.89
0.19
-7.07
-5.64
7.43
29.94
55.02
74.20
80.87
72.21
49.25
15.46
-27.44
-72.43
-110.08
-133.30
-140.15
-132.82
-115.60
-93.54
-71.39
-52.76
-38.59
-28.44
-21.18
-15.87
-11.09
-6.65
-3.83
-5.02
-13.03
-28.32
-48.71
-69.31
-83.43
-84.56
-69.00
-37.13
9.52
63.30
114.16
152.13
170.24
166.88
146.13
115.96
85.12
60.00
42.62
31.95
25.55
21.57
19.86
21.19
25.24
29.60
30.19
23.18
7.84
-12.87
-33.87
-50.48
-60.70
-65.90
-69.36
-74.13
-81.46
-89.95
-96.76
-99.11
-95.49
-85.80
-70.78
-51.23
-27.90
-1.92
24.95
50.09
70.47
83.49
87.74
83.31
71.70
55.26
36.68
18.67
3.54
-7.09
-12.59
-13.48
-11.11
-7.28
-3.56
-0.90
0.56
1.24
1.75
2.35
2.78
2.44
0.73
-2.51
-6.94
-11.85
-16.58
-20.85
-24.75
-28.51
-32.14
-35.34
-37.61
-38.49
-37.76
-35.40
-31.43
-25.85
-18.74
-10.55
-2.20
5.02
10.04
12.36
12.35
10.93
9.02
7.16
5.16
2.49
-1.39
-6.32
-11.43
-15.30
-16.56
-14.57
-9.73
-3.48
2.26
5.75
6.05
3.25
-1.62
-7.10
-11.81
-14.76
-15.51
-14.10
-10.98
-6.96
-3.04
-0.19
0.91
0.05
-2.52
-6.33
-11.06
-16.56
-22.84
-29.78
-36.82
-42.99
-47.34
-49.17
-48.21
-44.58
-38.51
-30.44
-20.98
-11.14
-2.21
4.62
8.80
10.53
10.67
10.10
9.16
7.59
4.91
1.01
-3.55
-7.62
-10.12
-10.46
-8.72
-5.49
-1.55
2.43
5.84
8.08
8.71
7.53
4.84
1.45
-1.74
-4.08
-5.36
-5.74
-5.38
-4.23
-2.21
0.56
3.38
5.18
4.99
2.60
-1.10
-4.55
-6.16
-5.22
-2.04
2.19
6.08
8.62
9.48
8.95
7.66
6.36
5.58
5.56
6.08
6.50
5.99
4.01
0.62
-3.37
-6.80
-8.70
-8.81
-7.60
-5.92
-4.37
-2.95
-1.09
1.79
5.83
10.38
14.28
16.40
16.14
13.75
10.03
5.98
2.32
-0.76
-3.47
-6.23
-9.29
-12.63
-15.87
-18.48
-19.94
-19.97
-18.62
-16.31
-13.68
-11.45
-10.06
-9.50
-9.28
-8.61
-6.85
-3.84
-0.06
3.63
6.38
7.85
8.35
8.57
9.13
10.17
11.16
11.28
9.89
6.93
2.98
-0.98
-4.09
-5.93
-6.56
-6.39
-5.87
-5.43
-5.45
-6.33
-8.41
-11.81
-16.26
-21.04
-25.28
-28.20
-29.52
-29.38
-28.26
-26.64
-24.87
-23.02
-20.94
-18.39
-15.14
-11.12
-6.42
-1.36
3.56
7.67
10.40
11.46
10.89
9.07
6.58
4.04
2.02
0.86
0.55
0.77
0.95
0.49
-0.93
-3.25
-6.11
-8.98
-11.38
-12.98
-13.62
-13.18
-11.55
-8.62
-4.40
0.82
6.43
11.60
15.65
18.15
19.21
19.35
19.29
19.49
19.90
19.99
18.96
16.30
12.00
6.84
1.95
-1.60
-3.25
-3.11
-1.83
-0.18
1.12
1.62
1.11
-0.36
-2.51
-4.72
-6.30
-6.66
-5.58
-3.41
-0.80
1.63
3.61
5.26
6.92
8.56
9.70
9.59
7.80
4.70
1.48
-0.45
-0.18
2.17
5.51
8.54
10.39
11.02
11.01
10.97
11.00
10.69
9.53
7.20
3.84
-0.16
-4.46
-8.84
-13.11
-16.96
-19.90
-21.34
-20.97
-18.85
-15.26
-10.65
-5.38
0.22
5.69
10.42
13.78
15.37
15.21
13.73
11.46
8.91
6.39
4.12
2.38
1.47
1.56
2.57
4.18
5.90
7.36
8.39
8.96
8.89
7.79
5.05
0.42
-5.82
-12.69
-18.80
-22.96
-24.59
-23.83
-21.29
-17.62
-13.15
-7.99
-2.37
3.15
7.68
10.33
10.65
8.95
6.16
3.46
1.81
1.48
2.27
3.53
4.66
5.31
5.56
5.73
6.28
7.55
9.54
11.99
14.30
15.85
16.03
14.57
11.46
7.10
2.12
-2.70
-6.55
-8.75
-8.84
-6.69
-2.60
2.73
8.34
13.28
16.84
18.88
19.63
19.61
19.19
18.51
17.49
15.98
14.07
11.84
9.46
6.79
3.61
-0.22
-4.42
-8.22
-10.65
-11.04
-9.44
-6.72
-4.22
-3.11
-3.92
-6.39
-9.72
-13.09
-15.87
-17.75
-18.60
-18.22
-16.38
-12.92
-8.02
-2.35
3.04
7.14
9.35
9.70
8.80
7.42
6.24
5.49
5.13
4.92
4.75
4.69
4.90
5.50
6.42
7.39
8.22
8.82
9.35
10.04
10.96
11.82
12.10
11.19
8.71
4.74
-0.17
-5.13
-9.16
-11.40
-11.39
-9.03
-4.64
1.11
7.31
13.00
17.32
19.77
20.22
18.88
16.21
12.65
8.56
4.26
0.11
-3.38
-5.64
-6.23
-5.06
-2.52
0.60
3.44
5.38
6.20
6.08
5.32
4.16
2.68
0.84
-1.44
-4.12
-7.00
-9.75
-11.96
-13.18
-13.03
-11.29
-8.02
-3.65
1.12
5.42
8.44
9.69
9.10
7.00
4.08
1.09
-1.34
-2.84
-3.38
-3.18
-2.60
-2.04
-1.88
-2.41
-3.68
-5.48
-7.36
-8.71
-9.05
-8.27
-6.77
-5.31
-4.79
-5.81
-8.38
-11.88
-15.22
-17.25
-17.18
-14.82
-10.57
-5.25
0.19
5.04
8.96
11.91
14.01
15.39
16.04
15.94
15.10
13.67
11.90
10.15
8.72
7.76
7.22
6.94
6.62
6.01
4.95
3.49
1.82
0.16
-1.35
-2.77
-4.37
-6.55
-9.48
-13.02
-16.59
-19.31
-20.45
-19.56
-16.79
-12.72
-8.14
-3.67
0.38
4.03
7.40
10.49
13.11
14.81
15.16
13.99
11.55
8.56
5.80
3.97
3.22
3.24
3.33
2.86
1.62
-0.13
-1.79
-2.80
-2.97
-2.55
-2.11
-2.27
-3.45
-5.65
-8.55
-11.50
-13.73
-14.49
-13.36
-10.38
-5.99
-1.02
3.72
7.58
10.28
11.77
12.13
11.38
9.55
6.87
3.78
0.98
-0.92
-1.53
-0.93
0.35
1.60
2.18
1.86
0.85
-0.28
-0.91
-0.71
0.19
1.16
1.40
0.32
-2.16
-5.49
-8.76
-11.03
-11.74
-10.71
-8.19
-4.56
-0.25
4.31
8.69
12.52
15.49
17.36
18.07
17.53
15.72
12.74
8.91
4.88
1.48
-0.65
-1.36
-1.11
-0.67
-0.76
-1.58
-2.78
-3.78
-4.10
-3.84
-3.53
-3.88
-5.34
-7.82
-10.75
-13.39
-15.18
-15.93
-15.74
-14.83
-13.22
-10.79
-7.40
-3.11
1.66
6.21
9.87
12.20
13.15
13.00
12.28
11.47
11.00
11.10
11.79
12.88
13.92
14.38
13.84
12.22
9.92
7.67
6.18
5.87
6.56
7.44
7.28
4.96
-0.12
-7.62
-16.23
-24.14
-29.69
-31.98
-31.22
-28.46
-24.96
-21.57
-18.39
-15.07
-11.36
-7.56
-4.48
-3.04
-3.50
-5.23
-6.90
-7.13
-5.38
-2.17
1.13
3.11
3.01
1.15
-1.41
-3.38
-3.85
-2.63
-0.12
2.93
5.74
7.68
8.40
7.97
6.84
5.76
5.38
5.66
5.82
4.62
1.30
-3.56
-7.93
-9.33
-6.21
0.78
8.85
14.56
15.72
12.66
8.13
5.48
6.54
10.57
14.66
15.49
11.30
2.70
-7.87
-17.63
-24.86
-29.36
-31.93
-33.35
-33.70
-32.41
-28.96
-23.46
-16.87
-10.47
-5.30
-1.74
0.39
1.38
1.52
1.04
0.37
0.24
1.38
4.01
7.54
10.66
12.01
10.95
7.86
3.94
0.48
-1.78
-2.90
-3.40
-3.82
-4.30
-4.64
-4.68
-4.62
-5.04
-6.58
-9.39
-12.96
-16.18
-17.97
-17.84
-16.17
-14.06
-12.65
-12.62
-13.69
-14.79
-14.46
-11.49
-5.40
3.35
13.56
23.70
32.32
38.47
41.84
42.67
41.55
39.26
36.48
33.79
31.55
29.91
28.86
28.22
27.73
27.12
26.12
24.54
22.29
19.36
15.83
11.94
7.97
4.26
1.16
-1.14
-2.61
-3.39
-3.68
-3.67
-3.35
-2.54
-1.05
1.25
4.23
7.54
10.74
13.42
15.32
16.34
16.44
15.52
13.49
10.33
6.29
1.75
-2.74
-6.68
-9.74
-11.76
-12.78
-12.96
-12.59
-12.03
-11.72
-11.96
-12.83
-14.11
-15.34
-16.02
-15.74
-14.32
-11.83
-8.58
-4.94
-1.34
1.83
4.25
5.69
6.05
5.38
3.83
1.73
-0.61
-2.93
-5.09
-7.04
-8.72
-10.08
-11.01
-11.41
-11.25
-10.59
-9.56
-8.29
-6.94
-5.74
-5.04
-5.20
-6.48
-8.75
-11.43
-13.61
-14.37
-13.14
-10.06
-5.85
-1.51
2.02
4.26
5.18
5.10
4.45
3.55
2.50
1.35
0.10
-1.13
-2.17
-2.86
-3.16
-3.20
-3.08
-2.87
-2.50
-1.91
-1.11
-0.45
-0.44
-1.50
-3.71
-6.64
-9.43
-11.18
-11.23
-9.45
-6.25
-2.36
1.54
4.92
7.57
9.52
10.84
11.54
11.55
10.82
9.36
7.44
5.46
3.85
2.90
2.63
2.81
3.01
2.84
2.04
0.70
-0.94
-2.50
-3.67
-4.39
-4.88
-5.52
-6.76
-8.78
-11.36
-13.94
-15.74
-16.14
-14.97
-12.50
-9.39
-6.37
-3.94
-2.24
-1.11
-0.25
0.51
1.06
1.08
0.30
-1.34
-3.52
-5.63
-7.03
-7.27
-6.27
-4.38
-2.17
-0.24
0.96
1.27
0.78
-0.31
-1.76
-3.39
-5.09
-6.76
-8.27
-9.45
-10.06
-9.87
-8.72
-6.56
-3.47
0.26
4.31
8.36
12.17
15.55
18.31
20.12
20.58
19.35
16.30
11.69
6.12
0.44
-4.53
-8.17
-10.26
-10.92
-10.58
-9.76
-8.97
-8.48
-8.34
-8.39
-8.38
-8.12
-7.50
-6.45
-4.93
-2.88
-0.37
2.27
4.54
5.92
6.07
5.10
3.50
1.96
0.97
0.70
0.86
0.98
0.71
-0.04
-1.03
-1.88
-2.33
-2.27
-1.83
-1.13
-0.31
0.57
1.35
1.72
1.29
-0.20
-2.57
-5.13
-6.87
-6.95
-4.96
-1.30
3.18
7.47
10.84
13.11
14.45
15.16
15.32
14.80
13.27
10.61
6.95
2.85
-0.97
-3.84
-5.56
-6.33
-6.69
-7.14
-7.85
-8.71
-9.41
-9.81
-9.97
-10.29
-11.15
-12.76
-15.01
-17.43
-19.44
-20.46
-20.09
-18.20
-14.98
-10.92
-6.66
-2.86
-0.01
1.72
2.47
2.64
2.78
3.49
5.16
7.92
11.40
14.86
17.33
17.98
16.54
13.42
9.66
6.37
4.41
4.03
4.89
6.30
7.52
8.10
7.86
7.06
6.11
5.58
5.95
7.54
10.37
14.10
18.16
21.83
24.52
25.92
26.06
25.15
23.48
21.24
18.43
15.00
11.08
7.11
3.83
1.92
1.63
2.49
3.59
3.87
2.65
-0.09
-3.76
-7.47
-10.58
-12.83
-14.40
-15.63
-16.70
-17.44
-17.45
-16.18
-13.32
-8.99
-3.81
1.29
5.38
7.84
8.58
7.89
6.18
3.79
0.94
-2.11
-4.94
-6.93
-7.47
-6.27
-3.48
0.21
3.91
6.80
8.40
8.64
7.75
6.07
3.93
1.67
-0.48
-2.32
-3.79
-4.84
-5.50
-5.75
-5.50
-4.67
-3.22
-1.34
0.62
2.14
2.73
2.24
0.87
-0.88
-2.48
-3.62
-4.34
-4.89
-5.61
-6.62
-7.77
-8.80
-9.45
-9.60
-9.34
-8.89
-8.54
-8.67
-9.60
-11.52
-14.40
-17.76
-20.86
-22.82
-23.03
-21.28
-17.76
-12.88
-7.04
-0.63
6.06
12.58
18.31
22.52
24.76
25.02
23.82
22.07
20.61
20.01
20.23
20.72
20.65
19.33
16.51
12.56
8.32
4.65
2.18
0.95
0.52
0.22
-0.45
-1.62
-3.00
-4.01
-4.23
-3.52
-2.17
-0.65
0.59
1.52
2.51
4.14
6.88
10.67
14.84
18.31
20.08
19.65
17.26
13.63
9.62
5.94
2.84
0.44
-1.15
-1.66
-0.72
1.75
5.40
9.29
12.25
13.19
11.64
7.83
2.63
-2.75
-7.10
-9.52
-9.59
-7.40
-3.54
1.08
5.43
8.63
10.25
10.33
9.30
7.67
5.81
3.77
1.45
-1.21
-4.03
-6.54
-8.19
-8.62
-7.82
-6.19
-4.33
-2.85
-2.15
-2.35
-3.32
-4.78
-6.44
-7.98
-9.23
-10.11
-10.66
-10.93
-11.03
-11.15
-11.53
-12.46
-14.12
-16.46
-19.07
-21.31
-22.36
-21.59
-18.76
-14.18
-8.67
-3.37
0.52
2.05
0.83
-2.84
-7.98
-13.21
-17.13
-18.76
-17.81
-14.71
-10.34
-5.66
-1.43
1.93
4.37
5.99
7.00
7.65
8.28
9.22
10.88
13.51
17.04
21.11
25.01
27.87
28.98
28.14
25.68
22.48
19.46
17.26
15.89
14.80
13.28
10.92
7.85
4.62
1.79
-0.45
-2.40
-4.56
-7.28
-10.43
-13.38
-15.40
-15.89
-14.72
-12.25
-9.07
-5.76
-2.70
-0.07
2.14
3.94
5.25
5.97
5.98
5.32
4.23
3.00
1.84
0.70
-0.73
-2.92
-6.16
-10.40
-15.14
-19.63
-23.08
-24.81
-24.32
-21.43
-16.35
-9.74
-2.69
3.44
7.37
8.26
6.13
1.78
-3.42
-7.91
-10.45
-10.46
-8.07
-3.92
1.03
5.98
10.35
13.88
16.48
18.17
18.95
18.85
18.03
16.73
15.24
13.73
12.28
10.83
9.24
7.44
5.41
3.19
0.84
-1.61
-4.19
-6.90
-9.82
-13.11
-16.96
-21.56
-26.87
-32.37
-37.02
-39.50
-38.62
-33.80
-25.47
-14.78
-3.38
7.23
15.91
22.10
25.58
26.38
24.72
21.11
16.38
11.52
7.40
4.54
3.02
2.52
2.64
2.98
3.27
3.35
3.05
2.24
0.88
-1.02
-3.31
-5.69
-7.77
-9.18
-9.55
-8.77
-6.98
-4.62
-2.23
-0.26
1.14
2.09
2.85
3.56
4.13
4.31
3.85
2.76
1.28
-0.12
-1.00
-1.21
-0.90
-0.46
-0.31
-0.70
-1.53
-2.45
-3.00
-2.92
-2.42
-2.12
-2.78
-4.85
-8.14
-11.74
-14.32
-14.71
-12.39
-7.74
-1.98
3.43
7.31
9.20
9.42
8.83
8.28
8.22
8.47
8.46
7.63
5.86
3.55
1.41
0.02
-0.54
-0.72
-1.19
-2.36
-4.15
-6.03
-7.30
-7.51
-6.73
-5.53
-4.71
-4.89
-6.21
-8.25
-10.12
-10.80
-9.58
-6.31
-1.69
3.09
6.70
8.24
7.60
5.50
3.04
1.23
0.58
0.93
1.74
2.41
2.59
2.30
1.80
1.26
0.76
0.18
-0.55
-1.37
-2.04
-2.33
-2.12
-1.67
-1.48
-2.06
-3.60
-5.78
-7.81
-8.67
-7.69
-4.73
-0.43
4.12
7.76
9.75
9.98
8.87
7.10
5.32
3.90
2.92
2.28
1.85
1.50
1.16
0.80
0.37
-0.13
-0.65
-1.08
-1.40
-1.60
-1.80
-2.16
-2.74
-3.51
-4.35
-5.05
-5.44
-5.45
-5.01
-4.12
-2.80
-1.14
0.72
2.62
4.43
6.04
7.28
8.06
8.23
7.76
6.77
5.49
4.18
2.96
1.77
0.44
-1.13
-2.81
-4.22
-4.91
-4.68
-3.69
-2.43
-1.44
-1.12
-1.52
-2.48
-3.70
-4.83
-5.56
-5.66
-4.96
-3.43
-1.32
0.98
3.09
4.78
6.13
7.28
8.33
9.16
9.51
9.18
8.24
7.04
6.07
5.63
5.63
5.72
5.54
4.94
4.11
3.45
3.27
3.62
4.20
4.55
4.25
3.10
1.12
-1.38
-3.92
-5.94
-6.91
-6.49
-4.76
-2.25
0.22
1.90
2.46
2.15
1.54
1.19
1.28
1.57
1.65
1.29
0.74
0.56
1.27
3.01
5.40
7.64
9.02
9.20
8.31
6.87
5.45
4.42
3.83
3.45
3.00
2.27
1.34
0.45
-0.07
-0.01
0.57
1.37
1.91
1.77
0.75
-0.96
-2.92
-4.65
-5.95
-7.04
-8.47
-10.73
-13.84
-17.19
-19.73
-20.49
-19.01
-15.70
-11.63
-7.93
-5.35
-3.96
-3.28
-2.73
-2.02
-1.17
-0.41
0.12
0.51
1.09
2.22
4.03
6.32
8.57
10.12
10.45
9.37
7.10
4.25
1.53
-0.47
-1.48
-1.70
-1.61
-1.64
-2.01
-2.57
-3.01
-3.07
-2.74
-2.22
-1.85
-1.88
-2.46
-3.65
-5.38
-7.57
-9.95
-12.16
-13.65
-14.03
-13.13
-11.13
-8.45
-5.53
-2.62
0.25
3.13
6.01
8.60
10.50
11.34
10.99
9.68
7.83
5.90
4.19
2.74
1.48
0.35
-0.67
-1.44
-1.77
-1.52
-0.65
0.78
2.53
4.26
5.54
5.97
5.36
3.91
2.14
0.78
0.52
1.73
4.28
7.58
10.72
12.86
13.45
12.44
10.20
7.33
4.37
1.73
-0.39
-1.99
-3.10
-3.80
-4.20
-4.39
-4.52
-4.71
-4.97
-5.21
-5.26
-4.92
-4.10
-2.84
-1.42
-0.33
-0.06
-0.92
-2.71
-4.78
-6.22
-6.22
-4.53
-1.58
1.71
4.37
5.77
5.91
5.25
4.34
3.47
2.51
1.06
-1.17
-4.12
-7.21
-9.63
-10.55
-9.61
-7.03
-3.53
-0.13
2.31
3.27
2.77
1.25
-0.58
-2.07
-2.81
-2.74
-2.05
-1.01
0.16
1.37
2.58
3.77
4.81
5.51
5.70
5.33
4.55
3.68
3.09
3.09
3.82
5.13
6.55
7.50
7.37
5.94
3.37
0.24
-2.77
-5.12
-6.68
-7.68
-8.49
-9.38
-10.31
-11.02
-11.03
-10.01
-7.87
-4.87
-1.50
1.75
4.46
6.44
7.74
8.54
8.98
9.16
9.02
8.46
7.47
6.22
5.09
4.50
4.74
5.78
7.27
8.59
9.14
8.65
7.19
5.20
3.21
1.53
0.11
-1.35
-3.17
-5.44
-7.75
-9.44
-9.80
-8.46
-5.64
-2.07
1.27
3.42
3.82
2.45
-0.24
-3.48
-6.48
-8.67
-9.84
-10.10
-9.78
-9.21
-8.58
-7.95
-7.31
-6.63
-5.96
-5.44
-5.12
-5.06
-5.23
-5.59
-6.12
-6.74
-7.17
-7.04
-5.93
-3.57
-0.17
3.67
7.11
9.46
10.54
10.69
10.52
10.49
10.61
10.44
9.43
7.34
4.44
1.50
-0.67
-1.65
-1.55
-0.88
-0.27
-0.08
-0.29
-0.66
-0.93
-1.13
-1.61
-2.73
-4.62
-6.95
-8.91
-9.63
-8.62
-6.00
-2.57
0.57
2.50
2.89
2.05
0.71
-0.42
-1.03
-1.28
-1.66
-2.57
-4.07
-5.75
-6.99
-7.15
-5.86
-3.08
0.93
5.71
10.80
15.80
20.39
24.32
27.55
30.18
32.42
34.46
36.32
37.82
38.66
38.53
37.24
34.84
31.57
27.65
23.22
18.21
12.42
5.69
-1.81
-9.47
-16.31
-21.18
-23.28
-22.46
-19.31
-15.08
-11.15
-8.58
-7.75
-8.44
-10.09
-12.15
-14.30
-16.38
-18.23
-19.47
-19.62
-18.30
-15.56
-11.98
-8.47
-5.88
-4.64
-4.61
-5.29
-6.18
-7.06
-8.06
-9.37
-11.05
-12.78
-14.10
-14.52
-13.88
-12.35
-10.42
-8.65
-7.44
-6.89
-6.89
-7.17
-7.41
-7.30
-6.61
-5.21
-3.13
-0.57
2.17
4.71
6.77
8.11
8.61
8.22
6.97
4.98
2.53
-0.01
-2.21
-3.69
-4.28
-4.08
-3.40
-2.65
-2.21
-2.27
-2.91
-4.04
-5.46
-6.92
-8.12
-8.74
-8.58
-7.54
-5.71
-3.30
-0.51
2.37
5.10
7.37
8.84
9.23
8.39
6.41
3.70
0.84
-1.53
-3.00
-3.39
-2.84
-1.79
-0.75
-0.19
-0.38
-1.29
-2.60
-3.92
-4.89
-5.39
-5.59
-5.67
-5.68
-5.27
-3.92
-1.18
2.90
7.62
11.90
14.67
15.43
14.49
12.69
10.99
9.86
9.10
8.06
6.11
3.13
-0.31
-3.21
-4.70
-4.42
-2.76
-0.70
0.80
1.17
0.41
-0.96
-2.39
-3.53
-4.26
-4.54
-4.33
-3.43
-1.64
1.01
4.21
7.44
10.14
11.91
12.67
12.47
11.49
9.89
7.80
5.44
3.01
0.80
-0.92
-2.04
-2.62
-2.81
-2.88
-3.02
-3.33
-3.86
-4.59
-5.50
-6.61
-7.90
-9.20
-10.18
-10.34
-9.15
-6.29
-1.95
3.22
8.21
11.98
13.87
13.80
12.23
10.05
8.10
6.94
6.63
6.97
7.61
8.31
8.88
9.23
9.17
8.45
6.91
4.54
1.60
-1.41
-4.10
-6.23
-7.88
-9.22
-10.37
-11.20
-11.38
-10.58
-8.64
-5.65
-1.91
2.13
5.93
8.92
10.60
10.61
8.93
5.99
2.52
-0.62
-2.79
-3.83
-3.96
-3.63
-3.31
-3.26
-3.58
-4.28
-5.29
-6.48
-7.66
-8.58
-9.00
-8.83
-8.08
-6.86
-5.22
-3.10
-0.43
2.69
5.96
8.85
10.79
11.41
10.71
9.02
6.80
4.48
2.30
0.45
-0.93
-1.73
-1.85
-1.32
-0.38
0.72
1.81
2.96
4.36
6.17
8.30
10.39
11.91
12.48
12.13
11.29
10.62
10.65
11.55
13.05
14.69
16.08
17.12
17.95
18.73
19.42
19.68
19.01
17.05
13.89
10.13
6.61
4.11
2.92
2.86
3.43
4.05
4.39
4.37
4.08
3.60
2.98
2.17
1.24
0.38
-0.14
0.00
0.92
2.50
4.46
6.50
8.29
9.62
10.34
10.40
9.85
8.78
7.30
5.49
3.46
1.25
-0.99
-3.08
-4.77
-5.82
-6.24
-6.18
-6.00
-6.00
-6.45
-7.37
-8.73
-10.39
-12.18
-13.89
-15.17
-15.63
-15.04
-13.35
-10.84
-8.03
-5.50
-3.69
-2.90
-3.09
-4.01
-5.26
-6.42
-7.18
-7.43
-7.29
-6.99
-6.72
-6.53
-6.28
-5.84
-5.20
-4.58
-4.24
-4.44
-5.20
-6.44
-7.93
-9.42
-10.72
-11.67
-12.07
-11.77
-10.69
-8.87
-6.51
-3.89
-1.33
0.84
2.37
3.05
2.81
1.77
0.24
-1.37
-2.66
-3.41
-3.59
-3.30
-2.63
-1.70
-0.58
0.53
1.25
1.14
-0.18
-2.69
-5.84
-8.74
-10.53
-10.74
-9.52
-7.60
-5.70
-4.23
-3.08
-1.82
-0.10
2.02
4.03
5.36
5.60
4.78
3.32
1.77
0.52
-0.25
-0.52
-0.36
0.12
0.69
1.03
0.78
-0.28
-2.14
-4.54
-7.04
-9.27
-10.95
-11.90
-11.95
-10.90
-8.55
-4.88
-0.19
4.86
9.36
12.45
13.67
13.03
11.09
8.64
6.45
4.92
4.09
3.67
3.32
2.83
2.18
1.49
0.91
0.55
0.39
0.36
0.33
0.18
-0.23
-0.98
-2.09
-3.45
-4.73
-5.51
-5.34
-3.97
-1.52
1.50
4.37
6.39
7.16
6.66
5.26
3.48
1.74
0.18
-1.30
-2.88
-4.66
-6.50
-8.08
-9.01
-9.04
-8.10
-6.44
-4.44
-2.57
-1.18
-0.44
-0.40
-0.99
-2.11
-3.59
-5.12
-6.25
-6.38
-5.03
-2.09
2.04
6.44
10.04
12.02
12.15
10.81
8.80
6.83
5.27
4.13
3.13
2.00
0.70
-0.64
-1.74
-2.39
-2.58
-2.47
-2.31
-2.37
-2.75
-3.41
-4.26
-5.22
-6.29
-7.47
-8.61
-9.39
-9.35
-8.05
-5.36
-1.64
2.34
5.69
7.70
8.22
7.61
6.48
5.37
4.52
3.81
3.08
2.29
1.63
1.38
1.64
2.16
2.46
2.03
0.70
-1.18
-3.10
-4.59
-5.52
-6.20
-7.07
-8.39
-10.10
-11.77
-12.78
-12.64
-11.12
-8.25
-4.37
0.04
4.39
8.05
10.56
11.73
11.64
10.63
9.12
7.42
5.67
3.86
1.97
0.10
-1.51
-2.64
-3.15
-3.14
-2.83
-2.49
-2.26
-2.20
-2.33
-2.82
-3.91
-5.83
-8.66
-12.16
-15.69
-18.47
-19.71
-18.94
-16.06
-11.38
-5.44
0.96
6.91
11.56
14.21
14.56
12.79
9.49
5.41
1.26
-2.64
-6.22
-9.54
-12.60
-15.12
-16.75
-17.28
-16.82
-15.81
-14.87
-14.55
-15.08
-16.39
-18.12
-19.75
-20.82
-20.87
-19.64
-17.09
-13.42
-9.01
-4.31
0.39
4.96
9.33
13.40
16.83
19.22
20.25
19.92
18.59
16.83
15.22
14.04
13.32
12.83
12.37
11.91
11.56
11.40
11.41
11.39
10.95
9.72
7.51
4.46
1.04
-2.24
-5.01
-7.21
-8.98
-10.49
-11.63
-11.94
-10.81
-7.89
-3.38
1.94
7.01
10.90
13.18
13.92
13.47
12.21
10.37
8.15
5.88
4.03
2.96
2.79
3.18
3.56
3.46
2.88
2.32
2.49
3.76
5.80
7.66
8.12
6.39
2.43
-2.85
-8.01
-11.65
-12.82
-11.52
-8.53
-5.13
-2.55
-1.53
-2.11
-3.77
-5.77
-7.53
-8.86
-9.86
-10.73
-11.50
-11.98
-11.83
-10.73
-8.69
-5.97
-3.02
-0.33
1.81
3.32
4.27
4.80
5.02
4.87
4.31
3.31
2.06
0.87
0.11
0.07
0.86
2.38
4.29
6.28
8.03
9.35
10.10
10.16
9.42
7.80
5.41
2.55
-0.22
-2.34
-3.37
-3.26
-2.34
-1.05
0.18
1.17
1.94
2.46
2.51
1.69
-0.44
-3.94
-8.40
-13.00
-16.67
-18.61
-18.49
-16.56
-13.43
-9.89
-6.59
-3.97
-2.23
-1.23
-0.78
-0.58
-0.43
-0.24
0.03
0.31
0.56
0.66
0.57
0.17
-0.59
-1.68
-2.96
-4.28
-5.54
-6.62
-7.61
-8.57
-9.67
-10.97
-12.38
-13.67
-14.41
-14.08
-12.19
-8.57
-3.41
2.63
8.61
13.63
17.00
18.57
18.57
17.55
16.11
14.65
13.41
12.37
11.44
10.37
8.94
6.86
3.84
-0.23
-5.28
-10.79
-16.15
-20.61
-23.69
-25.24
-25.58
-25.23
-24.67
-23.99
-22.76
-20.29
-15.98
-9.69
-2.03
5.87
12.61
17.29
19.57
19.80
18.62
16.57
13.99
10.97
7.54
3.86
0.32
-2.52
-4.15
-4.24
-2.86
-0.39
2.41
4.74
5.82
5.22
2.95
-0.55
-4.64
-8.67
-12.20
-15.04
-17.15
-18.43
-18.65
-17.40
-14.31
-9.15
-2.12
6.14
14.63
22.18
27.81
30.87
31.24
29.35
26.07
22.36
18.95
16.22
14.12
12.40
10.91
9.68
8.91
8.83
9.32
9.93
10.02
9.00
6.64
3.19
-0.81
-4.73
-8.11
-10.77
-12.72
-13.89
-14.04
-12.78
-9.72
-4.86
1.21
7.42
12.42
15.11
15.08
12.66
8.75
4.51
0.88
-1.66
-2.98
-3.33
-3.13
-2.82
-2.82
-3.40
-4.60
-6.21
-7.78
-8.85
-9.14
-8.71
-7.84
-7.00
-6.57
-6.69
-7.35
-8.30
-9.29
-10.04
-10.21
-9.45
-7.42
-3.98
0.80
6.43
12.13
17.02
20.33
21.64
21.02
19.01
16.33
13.72
11.64
10.14
9.09
8.15
7.01
5.49
3.61
1.58
-0.32
-1.83
-2.83
-3.32
-3.50
-3.60
-3.91
-4.60
-5.70
-7.10
-8.52
-9.46
-9.32
-7.62
-4.08
1.09
7.29
13.59
19.05
23.00
25.14
25.55
24.52
22.52
19.92
17.01
14.06
11.28
8.86
6.90
5.46
4.42
3.68
3.11
2.64
2.33
2.24
2.34
2.43
2.37
1.93
0.97
-0.40
-1.79
-2.49
-1.81
0.71
5.04
10.76
17.12
23.18
28.22
31.86
34.21
35.59
36.37
36.68
36.71
36.38
35.37
33.52
31.10
28.89
27.90
28.69
31.19
35.36
40.35
44.77
47.93
50.18
52.86
57.30
63.25
69.07
74.18
78.28
81.36
84.60
89.10
95.06
101.75
107.50
111.87
118.75
131.54
149.87
170.22
186.91
194.68
191.09
175.77
150.38
120.33
89.03
56.41
22.67
-10.36
-39.06
-50.07
-32.56
-2.83
26.95
56.16
82.12
103.45
119.98
132.19
140.29
142.10
134.40
117.12
89.86
51.05
1.32
-55.60
-112.99
-162.54
-197.86
-216.05
-216.14
-202.07
-182.24
-165.09
-156.55
-158.59
-169.22
-184.70
-201.03
-214.17
-223.19
-230.90
-241.56
-258.75
-283.79
-314.76
-347.45
-376.80
-398.25
-410.04
-413.42
-411.20
-406.39
-401.51
-398.24
-397.68
-399.63
-401.55
-399.14
-388.06
-366.44
-337.01
-306.82
-283.95
-273.04
-272.20
-273.51
-267.12
-246.65
-212.50
-170.93
-129.99
-94.73
-65.14
-37.61
-8.19
24.31
57.46
86.82
108.59
121.67
128.22
132.60
139.49
152.34
172.56
199.90
232.99
269.50
305.97
337.56
358.63
364.41
353.20
327.88
295.66
265.72
245.80
239.25
244.18
254.99
265.31
270.59
269.30
262.34
251.67
238.97
225.19
210.82
196.31
182.37
169.75
158.76
149.10
139.82
129.84
118.35
105.25
91.28
77.88
66.64
58.66
54.05
51.70
49.63
45.78
38.93
29.24
18.15
7.69
-0.49
-5.75
-8.52
-9.82
-10.73
-11.83
-13.14
-14.24
-14.62
-13.97
-12.28
-9.97
-7.68
-6.19
-6.16
-7.88
-11.16
-15.30
-19.30
-22.14
-23.15
-22.19
-19.63
-16.17
-12.53
-9.35
-7.03
-5.75
-5.57
-6.32
-7.75
-9.54
-11.35
-12.98
-14.41
-15.78
-17.13
-18.35
-19.09
-18.97
-17.82
-15.82
-13.47
-11.35
-9.88
-9.11
-8.84
-8.76
-8.58
-8.15
-7.37
-6.16
-4.37
-1.86
1.33
4.92
8.34
10.95
12.20
11.96
10.45
8.22
5.76
3.35
1.05
-1.25
-3.49
-5.48
-6.88
-7.49
-7.38
-6.96
-6.70
-6.92
-7.67
-8.74
-9.91
-11.13
-12.51
-14.15
-16.00
-17.70
-18.68
-18.50
-16.94
-14.24
-10.90
-7.48
-4.40
-1.83
0.16
1.52
2.03
1.48
-0.27
-3.05
-6.32
-9.29
-11.24
-11.78
-10.97
-9.34
-7.50
-5.87
-4.61
-3.60
-2.80
-2.43
-2.94
-4.73
-7.84
-11.65
-15.08
-17.03
-16.82
-14.59
-11.17
-7.72
-5.13
-3.69
-2.96
-2.17
-0.68
1.68
4.43
6.78
8.00
7.77
6.34
4.42
2.81
1.99
1.95
2.25
2.23
1.43
-0.31
-2.79
-5.65
-8.55
-11.25
-13.52
-15.03
-15.40
-14.23
-11.47
-7.40
-2.73
1.71
5.12
7.14
7.74
7.24
6.13
4.85
3.65
2.53
1.34
-0.09
-1.77
-3.47
-4.83
-5.49
-5.32
-4.55
-3.64
-3.14
-3.46
-4.75
-6.86
-9.38
-11.68
-13.18
-13.40
-12.17
-9.64
-6.21
-2.37
1.41
4.85
7.83
10.20
11.83
12.50
12.13
10.77
8.77
6.54
4.46
2.74
1.34
0.12
-1.09
-2.31
-3.40
-4.14
-4.42
-4.41
-4.57
-5.47
-7.49
-10.58
-14.14
-17.13
-18.44
-17.34
-13.77
-8.42
-2.40
3.15
7.41
10.10
11.37
11.60
11.12
10.05
8.42
6.26
3.75
1.26
-0.85
-2.33
-3.17
-3.59
-3.88
-4.28
-4.84
-5.51
-6.21
-7.00
-7.93
-9.04
-10.18
-10.98
-11.00
-9.86
-7.45
-3.98
0.04
3.94
7.13
9.17
9.94
9.59
8.40
6.72
4.85
3.03
1.42
0.20
-0.56
-0.73
-0.37
0.38
1.33
2.19
2.79
2.93
2.46
1.31
-0.41
-2.38
-4.02
-4.61
-3.56
-0.56
4.19
10.08
16.31
22.21
27.34
31.60
35.00
37.47
38.76
38.53
36.48
32.72
27.74
22.37
17.44
13.59
10.97
9.34
8.19
6.98
5.40
3.34
0.83
-2.06
-5.30
-8.79
-12.42
-15.83
-18.55
-19.97
-19.57
-17.05
-12.63
-6.99
-1.23
3.46
6.16
6.53
4.89
2.09
-0.79
-2.89
-3.74
-3.48
-2.61
-1.70
-1.17
-1.08
-1.19
-1.13
-0.73
-0.13
0.18
-0.40
-2.20
-5.10
-8.48
-11.40
-13.01
-12.89
-11.14
-8.34
-5.19
-2.25
0.20
2.20
3.83
5.07
5.63
5.21
3.67
1.28
-1.33
-3.51
-4.85
-5.36
-5.36
-5.30
-5.38
-5.67
-6.09
-6.69
-7.72
-9.46
-11.94
-14.73
-17.06
-17.96
-16.81
-13.54
-8.65
-3.08
2.21
6.47
9.40
11.09
11.85
12.02
11.72
10.95
9.58
7.50
4.80
1.82
-0.94
-2.98
-3.94
-3.80
-2.75
-1.20
0.39
1.47
1.50
0.11
-2.71
-6.43
-10.06
-12.40
-12.61
-10.45
-6.41
-1.47
3.43
7.63
10.89
13.14
14.33
14.30
12.94
10.44
7.29
4.20
1.72
0.14
-0.65
-0.93
-0.95
-0.90
-0.80
-0.74
-0.96
-1.75
-3.39
-5.88
-8.78
-11.30
-12.55
-11.86
-9.01
-4.32
1.47
7.42
12.59
16.22
17.87
17.48
15.39
12.30
9.04
6.25
4.13
2.45
0.71
-1.40
-3.74
-5.75
-6.77
-6.50
-5.24
-3.75
-2.89
-3.14
-4.52
-6.66
-9.02
-11.21
-12.86
-13.68
-13.30
-11.36
-7.76
-2.84
2.66
7.77
11.66
13.93
14.57
13.94
12.49
10.58
8.52
6.58
5.04
4.15
4.06
4.57
5.26
5.57
5.10
3.86
2.22
0.72
-0.33
-1.03
-1.91
-3.46
-5.82
-8.51
-10.52
-10.87
-9.03
-5.28
-0.45
4.42
8.53
11.53
13.43
14.41
14.55
13.86
12.35
10.28
8.09
6.22
5.02
4.44
4.30
4.28
4.17
3.87
3.40
2.78
1.93
0.70
-1.10
-3.53
-6.52
-9.78
-12.86
-15.23
-16.33
-15.74
-13.25
-9.02
-3.59
2.28
7.68
11.85
14.32
14.97
14.04
12.05
9.61
7.29
5.47
4.32
3.77
3.60
3.55
3.38
3.02
2.41
1.58
0.58
-0.59
-1.94
-3.54
-5.43
-7.61
-9.93
-12.12
-13.75
-14.38
-13.63
-11.43
-7.93
-3.58
1.01
5.22
8.54
10.62
11.32
10.68
8.99
6.70
4.29
2.19
0.63
-0.39
-1.00
-1.36
-1.61
-1.75
-1.75
-1.67
-1.72
-2.20
-3.45
-5.60
-8.54
-11.90
-15.08
-17.43
-18.42
-17.75
-15.42
-11.69
-7.04
-2.00
2.92
7.26
10.66
12.88
13.83
13.59
12.33
10.35
7.99
5.61
3.49
1.81
0.55
-0.44
-1.41
-2.57
-3.97
-5.47
-6.84
-7.88
-8.56
-9.05
-9.63
-10.52
-11.80
-13.24
-14.41
-14.82
-14.08
-12.03
-8.84
-4.99
-1.11
2.19
4.49
5.69
5.93
5.49
4.60
3.39
1.97
0.47
-0.92
-2.00
-2.59
-2.69
-2.46
-2.17
-2.10
-2.39
-3.02
-3.87
-4.80
-5.67
-6.45
-7.28
-8.37
-9.88
-11.66
-13.20
-13.75
-12.62
-9.58
-4.98
0.30
5.26
9.12
11.55
12.66
12.70
11.95
10.55
8.69
6.59
4.63
3.16
2.35
2.11
2.16
2.16
1.84
1.06
-0.08
-1.32
-2.41
-3.23
-3.82
-4.40
-5.23
-6.37
-7.67
-8.68
-8.90
-7.95
-5.79
-2.74
0.64
3.79
6.27
7.85
8.49
8.29
7.49
6.37
5.26
4.41
3.93
3.79
3.81
3.78
3.53
3.01
2.29
1.48
0.67
-0.19
-1.15
-2.36
-3.89
-5.79
-7.94
-10.06
-11.72
-12.44
-11.79
-9.66
-6.21
-1.96
2.41
6.26
9.17
10.97
11.77
11.77
11.19
10.28
9.16
7.96
6.76
5.61
4.53
3.54
2.62
1.68
0.59
-0.80
-2.52
-4.49
-6.49
-8.29
-9.79
-11.03
-12.14
-13.09
-13.59
-13.15
-11.20
-7.48
-2.24
3.81
9.68
14.38
17.30
18.21
17.28
14.97
11.82
8.40
5.13
2.31
0.04
-1.64
-2.79
-3.46
-3.69
-3.62
-3.44
-3.42
-3.68
-4.24
-4.89
-5.42
-5.76
-6.11
-6.78
-8.03
-9.77
-11.42
-12.20
-11.43
-8.89
-4.97
-0.44
3.85
7.35
9.84
11.35
11.99
11.81
10.85
9.18
7.09
4.86
2.78
0.99
-0.47
-1.60
-2.37
-2.67
-2.50
-1.98
-1.38
-0.99
-1.01
-1.48
-2.43
-3.95
-6.15
-9.06
-12.40
-15.51
-17.57
-17.95
-16.51
-13.69
-10.23
-6.77
-3.65
-0.84
1.79
4.14
5.85
6.46
5.76
3.98
1.74
-0.25
-1.52
-2.05
-2.17
-2.40
-3.05
-4.12
-5.39
-6.58
-7.53
-8.36
-9.29
-10.56
-12.27
-14.23
-15.98
-16.85
-16.15
-13.44
-8.74
-2.62
3.96
10.00
14.73
17.78
19.24
19.43
18.63
16.96
14.47
11.31
7.85
4.67
2.26
0.86
0.34
0.28
0.25
0.01
-0.41
-0.81
-0.99
-1.03
-1.18
-1.81
-3.19
-5.29
-7.74
-9.94
-11.29
-11.26
-9.73
-6.86
-3.15
0.80
4.41
7.27
9.17
10.06
10.10
9.45
8.30
6.85
5.29
3.89
2.82
2.15
1.76
1.45
0.90
-0.05
-1.38
-2.84
-3.98
-4.51
-4.35
-3.72
-3.02
-2.60
-2.65
-3.06
-3.60
-3.94
-3.89
-3.28
-2.06
-0.22
2.22
5.03
7.85
10.13
11.41
11.38
10.13
8.03
5.64
3.54
2.08
1.38
1.31
1.62
1.99
2.20
2.13
1.75
1.18
0.53
-0.12
-0.80
-1.66
-2.90
-4.67
-6.95
-9.52
-11.96
-13.78
-14.51
-13.81
-11.61
-8.09
-3.76
0.64
4.42
7.06
8.37
8.51
7.79
6.61
5.23
3.86
2.60
1.52
0.63
-0.14
-0.94
-1.89
-3.05
-4.36
-5.60
-6.64
-7.43
-8.12
-8.89
-9.97
-11.37
-12.96
-14.41
-15.26
-15.08
-13.55
-10.66
-6.65
-2.06
2.47
6.35
9.17
10.77
11.15
10.45
8.82
6.50
3.84
1.33
-0.51
-1.38
-1.28
-0.55
0.32
0.91
1.08
0.93
0.74
0.69
0.76
0.72
0.24
-0.93
-2.81
-5.17
-7.55
-9.38
-10.14
-9.55
-7.57
-4.50
-0.81
3.01
6.57
9.64
12.06
13.69
14.33
13.89
12.41
10.11
7.39
4.66
2.16
-0.01
-1.93
-3.71
-5.34
-6.75
-7.84
-8.57
-8.98
-9.18
-9.28
-9.38
-9.53
-9.78
-10.22
-10.80
-11.28
-11.32
-10.54
-8.66
-5.80
-2.30
1.28
4.35
6.54
7.74
8.04
7.65
6.90
6.02
5.15
4.34
3.50
2.57
1.59
0.67
-0.05
-0.49
-0.76
-1.08
-1.57
-2.25
-2.94
-3.39
-3.49
-3.42
-3.53
-4.23
-5.61
-7.38
-8.91
-9.49
-8.64
-6.29
-2.89
0.91
4.41
7.18
9.14
10.38
11.09
11.31
11.02
10.21
9.02
7.79
6.96
6.81
7.23
7.83
8.08
7.61
6.48
4.96
3.46
2.19
1.15
0.09
-1.17
-2.76
-4.62
-6.65
-8.72
-10.60
-11.94
-12.23
-11.05
-8.24
-4.17
0.40
4.55
7.61
9.36
9.98
9.88
9.32
8.36
6.88
4.80
2.23
-0.48
-2.87
-4.55
-5.35
-5.38
-4.88
-4.12
-3.33
-2.63
-2.08
-1.77
-1.83
-2.45
-3.71
-5.63
-7.97
-10.27
-11.99
-12.55
-11.54
-8.86
-4.76
0.25
5.49
10.22
13.86
16.09
16.88
16.47
15.22
13.57
11.84
10.15
8.51
6.84
5.11
3.40
1.84
0.57
-0.34
-0.96
-1.42
-1.87
-2.36
-2.92
-3.58
-4.40
-5.46
-6.76
-8.22
-9.61
-10.63
-10.95
-10.39
-8.86
-6.48
-3.54
-0.39
2.62
5.12
6.88
7.74
7.69
6.87
5.48
3.86
2.37
1.30
0.76
0.67
0.79
0.90
0.88
0.72
0.51
0.28
-0.08
-0.74
-1.93
-3.74
-6.02
-8.47
-10.68
-12.19
-12.64
-11.82
-9.62
-6.18
-1.86
2.75
7.02
10.34
12.35
12.94
12.32
10.87
9.02
7.05
5.11
3.24
1.41
-0.36
-2.02
-3.48
-4.67
-5.57
-6.24
-6.74
-7.03
-7.08
-6.83
-6.41
-6.06
-6.16
-7.01
-8.58
-10.48
-12.01
-12.43
-11.28
-8.58
-4.85
-0.85
2.70
5.40
7.13
8.06
8.37
8.22
7.63
6.61
5.20
3.60
2.15
1.19
0.88
1.11
1.56
1.72
1.24
0.01
-1.73
-3.47
-4.83
-5.63
-6.15
-6.79
-7.86
-9.25
-10.43
-10.66
-9.37
-6.59
-2.84
1.02
4.31
6.85
8.92
11.01
13.32
15.65
17.38
17.95
17.07
14.97
12.26
9.64
7.63
6.36
5.71
5.38
5.12
4.67
3.86
2.64
1.05
-0.63
-2.18
-3.46
-4.45
-5.32
-6.29
-7.40
-8.52
-9.38
-9.64
-9.20
-8.06
-6.34
-4.11
-1.51
1.31
4.00
6.02
6.87
6.29
4.44
1.97
-0.33
-1.89
-2.51
-2.38
-1.89
-1.35
-0.93
-0.65
-0.53
-0.66
-1.16
-2.04
-3.21
-4.46
-5.54
-6.37
-6.95
-7.33
-7.52
-7.33
-6.50
-4.82
-2.32
0.86
4.31
7.62
10.38
12.20
12.76
11.88
9.56
6.13
2.27
-1.29
-3.94
-5.43
-5.84
-5.53
-4.86
-4.07
-3.29
-2.55
-1.99
-1.82
-2.32
-3.58
-5.58
-8.09
-10.73
-13.08
-14.61
-14.83
-13.35
-10.06
-5.29
0.25
5.66
10.12
13.09
14.46
14.35
13.06
10.87
8.04
4.89
1.80
-0.84
-2.75
-3.88
-4.42
-4.68
-4.93
-5.29
-5.77
-6.29
-6.74
-7.10
-7.44
-7.89
-8.63
-9.78
-11.29
-12.88
-14.12
-14.46
-13.52
-11.18
-7.67
-3.42
1.02
5.15
8.63
11.26
13.04
14.02
14.35
14.14
13.52
12.58
11.39
10.03
8.63
7.27
5.96
4.58
3.01
1.20
-0.79
-2.73
-4.40
-5.68
-6.62
-7.40
-8.17
-8.88
-9.34
-9.24
-8.34
-6.58
-4.08
-0.93
2.76
6.89
11.22
15.19
18.18
19.56
19.06
16.96
14.00
11.06
8.84
7.50
6.79
6.12
4.93
2.91
0.08
-3.20
-6.32
-8.77
-10.26
-10.89
-11.09
-11.39
-12.16
-13.36
-14.59
-15.11
-14.34
-12.04
-8.48
-4.32
-0.30
3.00
5.39
6.92
7.90
8.55
9.01
9.21
9.03
8.40
7.27
5.76
4.06
2.40
0.95
-0.22
-1.17
-2.00
-2.78
-3.51
-4.13
-4.56
-4.90
-5.42
-6.38
-7.90
-9.82
-11.55
-12.38
-11.68
-9.18
-5.12
-0.24
4.47
8.08
9.96
10.10
9.02
7.56
6.52
6.26
6.63
7.00
6.73
5.46
3.38
1.09
-0.77
-1.87
-2.38
-2.72
-3.37
-4.57
-6.25
-8.14
-9.93
-11.40
-12.39
-12.75
-12.27
-10.72
-7.96
-4.12
0.36
4.87
8.78
11.63
13.22
13.58
12.82
11.08
8.59
5.67
2.79
0.49
-0.82
-1.02
-0.37
0.57
1.21
1.21
0.60
-0.29
-1.05
-1.55
-1.96
-2.76
-4.37
-6.84
-9.67
-11.95
-12.73
-11.41
-8.06
-3.33
1.80
6.48
10.20
12.83
14.49
15.37
15.53
14.97
13.76
12.07
10.23
8.60
7.38
6.62
6.25
6.08
5.94
5.71
5.25
4.43
3.12
1.22
-1.23
-4.14
-7.31
-10.46
-13.27
-15.36
-16.26
-15.57
-13.05
-8.83
-3.44
2.24
7.35
11.23
13.64
14.72
14.80
14.13
12.86
11.06
8.83
6.53
4.55
3.19
2.45
2.14
1.88
1.48
0.92
0.34
-0.12
-0.50
-1.03
-1.97
-3.45
-5.38
-7.38
-8.98
-9.67
-9.10
-7.16
-4.07
-0.26
3.65
7.09
9.67
11.23
11.88
11.76
11.02
9.75
8.00
5.92
3.81
1.95
0.60
-0.23
-0.71
-1.13
-1.73
-2.58
-3.52
-4.30
-4.73
-4.86
-5.04
-5.75
-7.36
-9.85
-12.65
-14.81
-15.37
-13.78
-10.15
-5.23
-0.06
4.43
7.74
9.87
11.10
11.69
11.73
11.21
10.04
8.33
6.44
4.77
3.69
3.31
3.46
3.83
4.12
4.13
3.84
3.30
2.47
1.27
-0.52
-3.00
-6.05
-9.30
-12.19
-14.16
-14.73
-13.67
-10.98
-6.94
-1.99
3.32
8.31
12.40
15.16
16.42
16.27
15.05
13.12
10.82
8.46
6.25
4.34
2.84
1.67
0.71
-0.18
-1.06
-1.90
-2.50
-2.80
-2.88
-2.98
-3.44
-4.50
-6.17
-8.20
-10.09
-11.32
-11.45
-10.29
-7.89
-4.57
-0.77
2.98
6.30
8.96
10.96
12.39
13.32
13.76
13.57
12.68
11.17
9.29
7.38
5.67
4.25
3.05
1.93
0.79
-0.40
