1537878407.00
64.000000
-0.00
-0.00
-0.00
-0.00
-0.00
-0.00
-0.00
-0.00
-0.00
-0.00
0.00
0.01
0.01
-0.00
-0.03
-0.05
-0.05
0.00
0.13
0.36
0.66
1.01
1.37
1.72
2.06
2.40
2.79
3.24
3.80
4.42
5.06
5.66
6.20
6.68
7.15
7.68
8.31
9.14
10.09
11.04
11.88
12.56
13.13
13.76
14.66
15.98
17.95
20.39
23.03
25.57
27.85
29.94
32.16
34.94
38.58
43.48
49.27
55.42
61.36
66.74
71.60
76.44
81.94
88.63
97.05
106.69
116.75
126.34
134.92
142.50
149.73
157.94
165.83
175.65
187.97
202.91
219.26
234.16
243.29
242.03
226.96
197.15
154.95
104.24
49.40
-6.21
-60.92
-114.45
-166.98
-218.36
-267.86
-314.08
-356.03
-392.86
-423.77
-447.65
-462.98
-468.05
-461.32
-441.98
-410.05
-366.84
-314.29
-254.74
-190.40
-123.44
-55.99
9.74
71.46
127.16
175.31
215.31
246.96
271.16
289.02
301.23
307.80
308.32
302.55
290.98
275.26
257.76
240.90
225.91
212.29
197.72
179.31
154.86
124.13
89.21
53.25
18.91
-13.36
-45.20
-79.22
-117.19
-159.13
-203.83
-249.60
-294.56
-335.58
-367.49
-383.79
-379.42
-355.89
-323.05
-296.13
-288.13
-301.87
-326.86
-343.51
-333.21
-288.18
-215.33
-132.24
-58.63
-8.15
14.84
14.09
-2.37
-25.23
-44.71
-51.74
-39.37
-6.08
41.94
91.63
128.55
144.14
140.32
128.62
123.31
133.27
156.82
183.30
199.53
197.55
178.73
151.67
126.79
110.44
102.60
99.13
95.60
90.03
82.72
74.37
63.94
49.04
27.84
1.09
-27.19
-51.73
-68.40
-76.57
-79.12
-81.10
-87.07
-100.20
-121.49
-150.07
-183.82
-219.64
-254.70
-285.53
-309.18
-324.11
-330.83
-331.65
-329.23
-326.01
-323.07
-319.99
-315.24
-307.24
-295.12
-279.08
-260.01
-238.91
-216.47
-192.67
-167.07
-139.37
-109.91
-79.89
-50.97
-24.46
-0.81
20.54
40.80
60.76
80.33
98.14
112.27
121.41
126.01
128.45
132.25
140.35
153.77
171.29
190.64
210.59
231.64
255.12
280.71
304.42
319.24
318.68
301.42
273.90
247.89
234.31
236.69
248.81
258.58
255.70
238.31
213.80
193.27
183.46
181.52
176.69
157.84
121.88
77.26
40.02
24.52
34.65
60.75
84.73
90.25
71.91
38.07
6.04
-8.43
-0.27
21.71
40.07
38.99
13.73
-26.47
-63.49
-80.89
-73.28
-49.52
-27.27
-22.52
-40.09
-70.39
-94.93
-97.06
-71.60
-28.21
13.93
37.24
35.59
17.67
1.82
4.71
31.48
72.00
106.25
115.25
91.70
44.51
-5.57
-36.71
-37.06
-10.57
26.14
53.57
60.10
47.93
30.60
23.77
35.18
59.33
80.71
83.64
62.29
25.17
-9.04
-22.32
-7.71
26.08
58.90
70.04
49.31
2.60
-50.90
-89.03
-97.90
-78.78
-46.18
-18.92
-9.28
-16.19
-26.94
-25.92
-4.92
30.97
65.72
82.25
72.82
44.30
14.60
2.02
14.56
44.95
74.32
83.03
61.69
16.79
-32.37
-64.22
-66.43
-42.22
-7.85
17.67
23.96
15.10
6.65
15.06
46.55
91.84
130.78
144.10
124.84
83.10
40.25
16.87
21.48
46.62
73.77
84.14
68.74
31.93
-12.36
-49.36
-71.04
-78.85
-80.28
-82.65
-88.21
-93.08
-90.78
-77.09
-53.06
-24.29
2.27
22.59
37.55
51.99
72.14
102.12
142.18
188.90
236.96
281.09
317.27
343.23
358.00
361.64
354.57
337.09
309.56
272.45
226.77
174.27
118.52
62.24
7.51
-44.33
-92.61
-136.99
-177.23
-212.91
-243.47
-268.35
-287.42
-300.69
-308.31
-310.53
-307.68
-300.20
-288.58
-273.55
-255.43
-235.08
-213.43
-191.40
-169.88
-149.62
-131.71
-116.80
-105.43
-97.94
-94.66
-95.52
-99.78
-106.37
-113.81
-120.58
-125.11
-126.07
-121.98
-111.78
-94.85
-71.04
-40.96
-5.82
32.39
71.13
107.59
139.28
164.48
182.39
193.13
197.31
195.97
189.80
179.21
164.98
147.61
128.22
108.43
90.34
75.72
65.69
59.79
56.57
53.98
50.63
46.14
39.89
30.49
15.07
-9.02
-43.61
-87.06
-134.63
-179.27
-212.24
-228.12
-225.78
-211.56
-190.72
-167.54
-144.01
-123.94
-113.00
-117.18
-139.56
-176.50
-217.02
-245.56
-249.68
-226.03
-182.61
-134.75
-98.01
-81.40
-83.99
-97.10
-108.15
-107.90
-93.43
-67.45
-35.14
-0.57
34.56
70.08
105.31
138.11
164.72
181.44
186.46
180.95
168.73
154.63
142.58
134.35
129.46
125.59
120.09
111.30
99.35
85.93
73.41
63.62
57.19
53.47
50.86
47.68
42.93
36.61
29.58
23.05
17.95
14.59
12.65
11.40
10.07
8.22
5.81
3.16
0.67
-1.31
-2.68
-3.49
-3.96
-4.29
-4.59
-4.93
-5.28
-5.58
-5.81
-5.94
-5.98
-5.92
-5.78
-5.59
-5.32
-5.01
-4.67
-4.30
-3.92
-3.51
-3.01
-2.47
-1.90
-1.30
-0.68
-0.03
0.66
1.39
2.16
2.98
3.85
4.77
5.77
6.84
7.98
9.19
10.44
11.70
12.96
14.21
15.48
16.80
18.23
19.75
21.38
23.09
24.84
26.59
28.37
30.18
32.07
34.05
36.04
37.94
39.54
40.47
40.39
39.06
36.21
31.76
25.70
17.90
8.40
-2.83
-15.78
-30.25
-45.67
-61.26
-75.97
-88.11
-97.08
-102.49
-104.41
-103.30
-100.27
-94.90
-86.89
-75.78
-61.33
-43.92
-24.58
-5.03
12.60
26.93
36.89
42.68
45.45
46.46
46.66
46.10
44.02
39.16
30.69
18.30
2.03
-17.55
-39.10
-60.10
-76.79
-84.26
-80.35
-65.54
-43.49
-19.88
-0.18
12.36
17.61
17.64
14.95
10.88
5.87
-0.01
-6.09
-10.81
-12.50
-10.60
-6.30
-2.23
-0.95
-3.69
-9.57
-15.67
-18.79
-16.55
-7.95
6.66
25.66
46.66
66.45
81.43
88.36
85.83
75.16
60.02
45.82
36.25
31.39
27.90
21.30
9.40
-5.99
-19.45
-24.88
-19.00
-3.67
15.19
29.78
35.00
30.42
19.74
8.44
0.52
-3.13
-4.38
-6.03
-9.54
-14.21
-17.98
-18.91
-16.43
-11.67
-6.66
-3.58
-3.45
-5.82
-9.18
-11.72
-12.22
-10.52
-7.46
-4.39
-2.58
-2.55
-4.06
-6.22
-8.02
-8.81
-8.48
-7.43
-6.32
-5.74
-6.03
-7.20
-8.99
-11.06
-13.10
-14.87
-16.27
-17.29
-18.07
-18.96
-20.39
-22.73
-26.16
-30.47
-35.08
-39.25
-42.36
-44.29
-45.58
-47.25
-50.40
-55.63
-62.72
-70.64
-77.99
-83.49
-86.68
-88.16
-89.14
-90.60
-92.82
-94.85
-94.74
-90.24
-79.40
-60.62
-33.21
2.34
43.70
86.25
123.45
148.47
156.02
146.20
124.29
98.59
76.95
63.70
58.63
58.29
58.94
58.29
56.45
54.64
53.63
52.91
51.11
47.04
40.65
33.16
26.27
21.67
19.89
20.15
20.94
20.69
18.52
14.57
9.80
5.50
2.75
1.84
2.30
3.15
3.45
2.67
0.89
-1.37
-3.46
-4.85
-5.40
-5.37
-5.16
-5.11
-5.35
-5.80
-6.32
-6.83
-7.35
-7.98
-8.82
-9.76
-10.56
-10.95
-10.74
-10.13
-9.58
-9.70
-10.89
-13.15
-15.96
-18.44
-19.85
-19.81
-18.75
-17.64
-17.59
-19.38
-22.97
-27.48
-31.57
-34.21
-34.81
-33.87
-32.42
-31.62
-32.40
-35.39
-41.01
-49.12
-58.51
-66.19
-68.11
-60.49
-41.92
-14.67
15.47
41.43
58.10
63.69
60.48
52.71
44.56
38.24
33.93
30.79
28.32
26.89
26.52
28.39
32.11
36.44
39.93
41.41
40.69
38.37
35.46
32.85
31.54
31.13
31.24
31.45
31.48
31.21
30.73
30.09
29.22
28.28
27.36
26.87
27.25
28.75
31.26
34.17
36.63
38.01
38.12
37.27
36.29
36.01
37.10
40.07
45.29
52.67
60.94
67.29
67.65
58.42
38.32
9.76
-21.64
-49.11
-67.62
-75.69
-75.51
-71.06
-65.86
-61.44
-57.51
-53.09
-47.88
-42.65
-38.70
-36.85
-36.83
-37.39
-37.13
-34.95
-30.92
-25.93
-21.31
-18.15
-16.82
-16.91
-17.43
-17.37
-16.08
-13.60
-10.54
-7.69
-5.71
-4.78
-4.64
-4.75
-4.53
-3.67
-2.20
-0.43
1.26
2.59
3.51
4.15
4.73
5.43
6.34
7.36
8.42
9.45
10.48
11.62
12.95
14.41
15.85
17.05
17.85
18.28
18.61
19.22
20.46
22.44
24.85
27.11
28.56
28.72
27.47
25.20
22.51
19.93
17.52
14.66
10.48
4.01
-5.21
-16.79
-29.53
-41.87
-52.48
-60.33
-65.89
-69.99
-73.61
-77.50
-82.31
-88.41
-95.77
-103.42
-108.55
-107.62
-97.39
-76.93
-48.71
-18.15
8.43
26.40
34.58
35.19
31.92
28.02
24.84
22.00
18.56
14.24
9.78
6.45
5.05
5.20
5.73
5.30
2.92
-1.37
-6.67
-11.73
-15.46
-17.47
-18.15
-18.37
-18.98
-20.39
-22.32
-24.03
-24.43
-22.66
-18.26
-11.49
-2.91
6.68
16.62
26.52
36.09
45.31
53.65
61.11
67.28
71.75
74.18
74.41
73.06
70.00
65.69
60.54
54.97
49.17
43.27
37.23
31.04
24.74
18.38
12.21
6.49
1.61
-2.24
-4.83
-6.20
-6.48
-5.84
-4.49
-2.42
0.35
3.89
8.08
12.67
17.07
20.60
22.72
23.16
22.18
20.42
18.63
16.85
15.74
15.01
14.05
12.28
9.54
6.35
3.73
2.80
4.21
7.93
12.96
17.84
21.51
23.42
23.98
24.19
25.19
27.76
32.50
39.65
48.97
59.08
67.05
68.88
60.90
41.80
13.87
-17.32
-45.01
-64.05
-72.78
-73.21
-69.23
-64.66
-60.86
-57.59
-53.98
-49.72
-45.53
-42.60
-41.73
-42.62
-44.11
-44.82
-43.83
-41.23
-37.92
-35.14
-33.78
-34.13
-35.71
-37.64
-39.07
-39.69
-39.72
-39.79
-40.42
-41.80
-43.73
-45.65
-47.10
-47.85
-48.06
-48.03
-47.99
-48.06
-47.38
-45.24
-41.21
-35.53
-29.14
-23.40
-19.51
-17.95
-18.30
-19.29
-19.79
-18.96
-16.83
-14.16
-12.01
-11.37
-13.06
-17.75
-25.43
-35.01
-43.64
-46.95
-40.76
-23.00
4.68
37.09
67.36
89.73
101.73
104.65
102.17
97.78
93.13
87.73
80.19
69.60
56.45
42.10
27.17
13.00
-0.34
-13.41
-26.78
-40.11
-52.08
-60.94
-65.15
-63.97
-57.54
-46.93
-33.45
-18.30
-2.26
14.47
32.00
50.26
68.75
85.16
98.50
107.63
113.31
114.55
111.05
103.24
91.82
77.59
61.27
43.67
25.31
5.69
-13.63
-31.49
-47.13
-60.16
-70.48
-78.18
-83.43
-86.59
-87.96
-87.98
-87.18
-85.76
-83.78
-81.13
-77.55
-72.55
-65.73
-56.57
-44.91
-31.10
-15.55
1.12
18.28
35.34
51.92
66.37
78.86
89.35
97.50
103.03
105.76
105.77
103.53
99.76
95.25
90.76
87.61
84.41
79.86
72.98
63.32
51.25
37.71
23.98
11.38
-0.36
-10.69
-19.95
-28.57
-36.75
-44.21
-50.27
-54.24
-55.41
-53.05
-46.26
-34.44
-18.34
-0.81
13.13
17.75
9.15
-12.35
-42.15
-71.47
-92.40
-101.12
-98.79
-90.25
-81.09
-75.08
-73.35
-75.59
-81.39
-91.18
-104.68
-119.54
-130.70
-132.16
-119.73
-93.38
-58.13
-21.97
7.19
24.93
31.40
30.41
26.66
23.38
21.43
19.94
17.77
14.38
10.05
5.26
0.49
-4.52
-10.34
-17.59
-26.35
-36.11
-46.10
-55.71
-64.83
-73.29
-81.33
-89.51
-98.43
-108.42
-119.40
-130.94
-142.60
-154.20
-165.14
-175.00
-183.62
-190.93
-196.70
-200.29
-200.51
-195.30
-187.89
-178.81
-167.57
-153.69
-137.17
-118.63
-99.07
-79.61
-61.33
-45.06
-30.21
-14.14
5.40
29.18
56.10
84.10
111.04
135.29
156.03
174.21
195.21
223.25
259.11
299.49
339.06
372.40
395.40
405.85
404.42
399.74
399.92
409.37
428.21
455.60
491.21
533.87
579.21
618.74
648.89
665.15
664.14
646.15
618.40
592.33
577.35
575.91
536.20
429.96
264.19
76.47
-94.45
-227.19
-318.23
-373.60
-401.64
-410.21
-399.39
-373.10
-338.91
-312.63
-306.79
-324.91
-360.33
-399.13
-426.65
-427.39
-396.56
-341.74
-279.05
-223.63
-184.12
-163.18
-155.38
-150.54
-135.74
-105.40
-63.16
-19.56
14.21
30.03
24.25
-1.16
-39.38
-76.79
-98.95
-95.80
-67.06
-22.53
21.67
50.79
59.34
49.50
30.13
10.07
-5.82
-18.04
-29.67
-42.90
-56.83
-67.79
-72.97
-71.99
-68.49
-67.59
-73.47
-87.03
-105.82
-125.95
-140.11
-145.71
-139.18
-122.09
-99.02
-75.59
-55.93
-41.12
-29.63
-18.24
-5.17
9.78
24.59
36.62
43.99
46.54
45.86
44.08
43.84
45.95
49.90
53.48
54.21
50.37
41.73
29.63
14.84
0.24
-12.59
-23.30
-32.95
-43.02
-54.55
-67.55
-78.05
-85.47
-89.01
-88.65
-85.36
-81.05
-77.69
-76.87
-79.52
-85.97
-96.10
-107.82
-117.48
-120.26
-111.71
-89.88
-57.03
-19.18
15.97
41.87
56.35
61.27
60.71
58.40
56.08
53.16
48.66
42.80
37.40
35.56
39.62
49.75
63.87
79.14
92.26
101.62
107.66
112.17
117.24
124.19
133.22
142.63
151.85
159.18
161.87
156.35
139.49
110.45
71.98
30.14
-7.62
-35.35
-51.11
-56.87
-56.73
-54.59
-52.33
-49.87
-46.33
-41.46
-36.05
-31.68
-29.46
-29.32
-30.22
-30.64
-29.52
-26.86
-23.59
-20.97
-20.23
-21.97
-26.06
-31.85
-38.43
-45.08
-51.01
-55.61
-58.27
-58.55
-56.20
-51.48
-45.28
-38.87
-33.59
-30.48
-29.93
-31.61
-34.95
-39.27
-44.22
-49.77
-56.03
-62.88
-70.23
-78.00
-85.75
-92.02
-93.96
-87.74
-70.19
-40.59
-2.07
38.57
73.30
95.99
104.68
101.89
92.67
81.86
72.19
64.17
57.04
50.73
46.43
45.96
50.70
60.13
71.57
81.11
85.11
81.51
70.92
56.22
41.25
29.76
23.67
22.32
21.53
19.31
14.30
7.00
-0.29
-4.62
-2.89
6.84
24.37
48.38
74.43
96.24
106.67
99.40
70.96
24.27
-31.88
-85.32
-124.46
-142.41
-139.19
-120.53
-91.42
-61.21
-35.23
-13.56
6.77
28.27
50.25
68.69
77.87
73.20
53.16
21.86
-12.77
-43.88
-66.27
-78.02
-80.69
-78.15
-74.65
-73.58
-74.94
-79.75
-87.85
-97.21
-105.30
-107.36
-99.34
-79.92
-51.50
-19.11
10.99
33.96
46.64
49.84
47.78
44.72
43.11
43.69
46.43
51.13
57.79
65.93
74.95
84.24
94.56
105.68
118.41
133.63
150.75
166.60
175.25
170.99
150.72
115.64
71.25
25.87
-12.74
-39.66
-53.18
-57.55
-58.50
-60.44
-64.57
-69.62
-73.64
-75.68
-76.31
-79.24
-87.51
-101.48
-120.00
-140.99
-162.48
-182.68
-199.49
-209.70
-203.98
-180.16
-139.72
-88.44
-34.26
15.25
55.84
87.78
115.06
142.35
167.38
188.13
198.75
194.36
173.71
140.24
98.57
58.99
29.08
10.24
-0.03
-6.29
-11.52
-16.07
-18.26
-16.34
-9.81
-0.97
6.20
9.36
8.00
4.07
0.50
-0.22
2.94
9.54
17.43
23.91
27.56
28.08
26.71
25.05
24.32
24.80
26.01
26.54
24.90
20.40
12.61
2.78
-7.68
-17.58
-26.07
-32.73
-37.66
-41.22
-42.65
-43.11
-43.00
-42.57
-41.93
-41.02
-39.65
-37.67
-35.13
-32.37
-30.13
-28.89
-29.00
-30.45
-32.66
-34.70
-35.65
-35.06
-33.30
-31.57
-31.08
-32.70
-36.51
-41.49
-45.97
-48.51
-48.40
-46.19
-43.47
-42.27
-43.64
-48.14
-55.64
-65.28
-75.29
-82.83
-84.39
-76.93
-59.32
-33.43
-3.98
23.22
43.66
55.64
60.36
60.47
58.20
54.37
48.55
40.50
31.25
23.30
19.70
22.72
32.87
48.49
66.08
80.71
87.34
82.46
65.68
40.40
12.82
-10.47
-25.23
-31.01
-30.74
-28.27
-26.59
-25.86
-24.22
-19.62
-11.97
-3.49
2.59
3.82
-0.59
-9.56
-20.77
-30.93
-36.42
-33.58
-20.05
4.14
35.62
68.33
95.44
112.08
116.92
112.11
101.84
89.11
75.34
60.40
43.79
25.99
8.74
-5.67
-15.72
-21.01
-22.82
-23.11
-23.81
-25.89
-29.18
-32.65
-35.10
-35.54
-33.80
-30.55
-26.87
-24.05
-22.78
-22.97
-23.54
-22.92
-19.58
-12.64
-2.29
10.60
25.05
40.81
58.02
76.25
92.93
103.40
101.94
84.39
50.73
5.31
-44.44
-91.47
-131.41
-162.83
-185.48
-198.33
-199.00
-184.24
-155.52
-118.00
-79.50
-47.30
-25.02
-11.46
-2.18
7.64
20.62
36.16
52.33
67.33
80.76
93.13
105.18
116.75
125.77
131.48
133.35
132.08
128.93
125.04
121.05
117.36
114.41
112.35
110.50
106.35
96.42
77.83
50.41
17.73
-13.86
-37.97
-51.12
-54.02
-50.76
-46.00
-42.65
-40.80
-38.83
-35.23
-29.90
-24.32
-20.05
-18.25
-18.76
-20.60
-22.39
-23.30
-23.36
-23.34
-24.34
-27.15
-31.69
-37.19
-42.30
-45.58
-46.08
-43.59
-38.78
-32.87
-27.20
-22.87
-20.60
-20.45
-21.97
-24.49
-27.35
-30.18
-32.96
-35.83
-38.88
-42.03
-44.51
-45.15
-42.63
-36.11
-25.70
-12.57
1.16
13.07
21.38
25.11
24.86
22.46
19.73
17.68
16.00
13.19
7.28
-3.77
-20.37
-42.05
-66.68
-90.91
-110.19
-119.51
-114.92
-94.12
-60.82
-21.40
16.82
48.75
73.45
92.72
110.10
128.82
149.83
169.97
186.48
192.73
185.78
165.58
135.63
102.05
71.46
48.36
33.42
24.57
18.36
12.74
7.27
2.82
-0.23
-2.72
-6.88
-15.03
-27.79
-43.37
-57.95
-67.88
-71.02
-67.87
-61.19
-54.81
-52.01
-54.30
-60.73
-68.56
-75.15
-78.92
-80.06
-80.28
-81.80
-84.60
-90.60
-100.17
-112.36
-124.97
-134.35
-136.03
-126.05
-103.09
-69.77
-32.52
1.19
25.50
38.24
41.35
38.97
35.05
31.51
28.09
23.46
17.18
10.08
3.84
-0.13
-1.63
-1.76
-2.22
-4.62
-9.64
-16.52
-23.58
-28.79
-30.33
-27.64
-21.11
-11.94
-1.64
8.62
18.44
28.09
38.32
49.96
63.09
77.01
90.29
101.20
108.43
111.64
111.51
108.66
105.51
103.62
103.83
106.50
111.62
118.56
125.39
128.67
124.25
109.07
82.77
48.83
13.91
-15.57
-35.03
-43.70
-44.22
-40.60
-35.99
-31.74
-27.64
-22.94
-17.62
-12.41
-8.36
-5.93
-4.72
-3.57
-1.44
2.02
6.39
10.57
13.43
14.13
12.39
8.41
2.67
-4.36
-12.69
-22.13
-32.44
-43.15
-53.61
-63.15
-71.49
-78.69
-84.50
-89.94
-95.31
-100.36
-104.43
-106.97
-107.69
-106.99
-106.08
-105.61
-106.47
-109.11
-113.76
-119.95
-125.99
-128.50
-122.98
-105.64
-74.52
-32.06
15.61
60.61
96.25
119.28
130.44
132.86
129.91
123.49
113.66
100.14
83.31
64.85
47.04
31.83
19.59
10.27
2.93
-3.48
-9.11
-13.32
-15.03
-13.48
-8.63
-1.16
7.47
15.65
22.20
26.73
29.62
31.68
33.63
35.84
38.18
40.17
41.19
40.72
38.66
35.23
31.00
26.33
21.44
16.38
11.08
5.52
-0.13
-5.60
-10.72
-14.77
-17.27
-18.15
-17.58
-15.94
-13.71
-11.09
-8.56
-6.31
-4.37
-2.82
-1.68
-1.07
-1.12
-2.08
-4.06
-7.53
-11.96
-16.63
-20.90
-24.21
-26.19
-26.78
-26.15
-24.44
-21.77
-17.84
-12.31
-4.98
4.43
15.28
26.61
37.10
45.86
52.50
57.60
62.38
68.10
75.52
84.34
93.34
100.63
104.61
104.27
99.86
92.62
84.20
76.36
70.64
68.27
68.58
70.36
70.04
62.48
43.19
10.57
-32.47
-79.15
-121.12
-152.05
-169.66
-175.85
-174.74
-170.00
-163.41
-154.71
-144.32
-131.43
-117.07
-103.24
-91.91
-83.87
-78.49
-74.25
-69.36
-62.77
-54.39
-45.41
-37.41
-31.68
-28.55
-26.58
-24.50
-20.94
-15.17
-7.68
-0.20
5.18
7.04
5.37
1.43
-3.28
-8.03
-13.23
-19.50
-26.20
-30.30
-26.80
-11.45
16.85
54.43
93.92
127.25
149.01
158.07
156.76
148.60
136.23
120.93
103.94
87.61
75.53
71.43
76.71
88.88
101.61
107.16
99.90
80.07
54.56
33.96
26.89
35.10
51.45
63.70
61.03
39.86
5.80
-29.66
-55.53
-67.61
-69.54
-69.61
-75.23
-88.35
-105.64
-121.84
-133.37
-140.03
-143.97
-146.82
-146.93
-141.28
-126.31
-100.58
-66.18
-27.79
9.46
41.71
66.26
80.88
82.91
69.69
40.07
-3.52
-53.85
-100.38
-132.55
-143.91
-134.18
-109.03
-77.19
-46.62
-22.81
-6.32
5.42
15.98
26.71
37.13
45.85
52.06
56.20
60.08
65.63
72.48
79.99
85.89
88.00
85.26
78.66
70.52
63.54
59.66
59.09
60.62
61.91
60.88
56.61
49.63
41.52
34.05
28.91
25.55
22.94
19.58
14.57
8.09
1.47
-3.47
-5.23
-3.35
1.29
7.20
12.59
16.28
18.25
19.47
21.33
25.18
32.02
42.21
55.44
69.89
82.14
87.82
83.07
66.31
39.45
7.76
-22.03
-44.10
-55.50
-57.48
-53.66
-47.79
-41.95
-36.37
-30.42
-23.84
-17.31
-12.33
-9.99
-10.33
-12.43
-14.77
-16.17
-16.26
-15.83
-15.48
-16.07
-17.74
-19.89
-21.45
-21.40
-19.26
-15.32
-10.57
-6.28
-3.83
-3.80
-6.08
-9.98
-14.64
-19.27
-23.48
-27.16
-29.12
-30.33
-31.16
-31.66
-31.71
-31.29
-30.44
-29.32
-28.14
-27.07
-26.40
-26.05
-25.87
-25.73
-25.65
-25.75
-26.10
-26.81
-27.74
-28.87
-29.94
-30.73
-31.12
-31.31
-31.51
-31.80
-32.06
-31.81
-30.44
-27.33
-22.80
-16.51
-9.08
-1.52
5.16
10.30
13.98
16.66
18.93
21.08
22.86
23.28
21.19
15.81
7.11
-3.67
-14.65
-24.18
-31.19
-35.71
-38.91
-42.31
-47.44
-55.68
-67.71
-83.53
-101.90
-119.72
-132.16
-134.34
-123.35
-98.61
-66.40
-34.62
-9.97
4.55
10.26
11.34
11.97
14.64
19.23
24.33
29.29
34.53
41.18
50.07
61.10
72.93
83.71
91.83
96.69
99.14
100.73
103.06
104.71
106.05
106.70
105.67
102.03
95.40
86.24
75.41
64.05
54.28
45.38
36.48
26.92
16.37
5.06
-6.26
-16.52
-24.61
-30.11
-33.11
-34.08
-33.87
-33.21
-32.59
-32.31
-32.29
-32.20
-32.27
-32.96
-34.64
-37.93
-42.91
-49.26
-56.53
-65.73
-75.50
-84.47
-91.68
-96.50
-99.32
-100.20
-98.99
-94.75
-86.96
-75.39
-60.55
-43.45
-25.25
-7.89
7.53
20.86
26.83
24.95
16.61
3.54
-12.79
-27.06
-40.48
-54.49
-69.32
-84.60
-98.64
-109.63
-116.16
-117.16
-111.89
-100.27
-85.12
-66.81
-45.40
-20.40
7.98
38.90
71.48
105.33
139.99
175.23
210.72
243.43
268.37
280.14
276.34
259.94
238.80
221.91
215.65
222.33
238.25
256.40
269.23
271.16
259.33
232.92
192.37
140.31
84.31
34.43
0.95
-9.80
2.71
33.54
74.61
117.51
145.06
146.05
118.34
70.44
15.40
-35.58
-76.05
-103.06
-115.59
-113.44
-93.63
-58.44
-14.66
26.07
50.13
46.39
10.58
-52.71
-130.92
-206.11
-260.96
-281.27
-262.12
-209.30
-137.54
-65.50
-9.84
19.68
22.85
6.14
-20.97
-51.64
-80.05
-103.01
-120.01
-131.89
-138.63
-138.74
-131.55
-118.28
-102.77
-89.10
-79.95
-75.77
-75.66
-78.19
-82.43
-87.75
-92.54
-93.57
-86.13
-67.95
-38.32
-0.69
38.25
71.32
93.61
104.19
105.72
101.33
96.14
93.94
96.70
105.14
118.61
134.36
148.43
154.02
145.58
121.62
85.46
44.29
6.11
-23.17
-40.98
-49.86
-54.61
-58.81
-63.33
-67.36
-69.66
-70.71
-73.79
-80.90
-92.75
-107.79
-122.82
-134.06
-139.27
-137.58
-131.17
-124.17
-120.93
-124.55
-135.84
-153.59
-174.39
-193.46
-203.52
-199.00
-177.76
-141.89
-96.25
-43.47
11.74
66.15
119.42
176.10
239.76
309.89
380.50
442.05
485.08
502.92
494.58
449.04
368.91
269.26
170.90
88.00
23.81
-24.72
-61.47
-87.64
-102.77
-105.01
-96.98
-84.86
-76.03
-75.31
-82.80
-94.90
-107.85
-117.19
-119.64
-116.95
-113.52
-114.75
-124.46
-143.55
-170.13
-200.12
-227.89
-239.82
-229.74
-197.03
-147.15
-89.95
-36.44
5.08
31.70
46.16
54.64
62.05
70.72
79.59
86.29
89.41
89.91
91.55
97.03
107.44
121.69
138.21
155.02
170.22
181.43
185.54
178.99
159.35
126.55
84.15
38.87
-2.06
-33.53
-54.07
-65.30
-70.51
-68.97
-62.15
-51.57
-38.60
-25.04
-12.96
-4.00
1.59
4.75
7.29
10.50
14.84
19.62
23.31
24.36
21.91
15.26
5.52
-5.50
-16.50
-26.55
-35.44
-43.63
-51.78
-60.41
-65.33
-66.83
-65.62
-62.38
-57.62
-51.87
-45.76
-39.84
-34.46
-29.58
-25.07
-20.67
-15.98
-10.72
-4.74
2.12
10.24
19.78
29.18
39.05
49.38
59.95
70.25
79.76
88.12
95.27
101.22
106.17
110.55
114.43
118.25
122.00
125.81
130.03
135.52
142.62
151.31
161.41
171.91
182.08
189.89
193.84
193.43
190.02
183.26
171.72
157.77
142.02
124.92
104.04
77.96
47.21
16.14
-13.53
-41.12
-66.82
-90.95
-113.72
-139.80
-172.45
-211.73
-251.68
-290.19
-326.25
-359.80
-389.85
-415.31
-441.14
-470.63
-502.98
-530.17
-549.28
-559.07
-560.12
-552.48
-502.36
-397.03
-248.32
-122.30
-38.42
0.51
10.44
-0.58
-25.78
-60.52
-107.99
-170.58
-227.42
-256.75
-253.75
-227.44
-192.36
-156.53
-120.03
-82.39
-41.48
4.66
56.44
106.57
147.00
172.97
186.50
193.35
196.75
198.53
200.73
205.09
210.66
217.21
225.48
237.42
253.83
272.36
284.78
288.49
283.86
272.09
255.71
237.72
221.12
207.39
195.63
183.82
171.15
157.16
141.99
126.80
113.36
103.41
97.24
93.80
90.92
87.40
81.99
74.58
66.03
57.96
51.90
47.96
46.50
44.52
40.71
34.60
27.05
19.71
14.84
14.62
20.12
31.76
48.83
69.85
91.33
107.99
113.95
103.28
77.91
44.01
9.89
-17.43
-34.47
-42.21
-44.93
-47.82
-52.87
-59.40
-66.29
-72.79
-79.40
-86.93
-95.82
-103.57
-109.85
-113.64
-113.91
-110.98
-106.05
-100.94
-96.81
-93.74
-91.40
-89.12
-85.87
-80.95
-74.52
-67.14
-59.57
-53.17
-46.46
-38.73
-30.18
-21.50
-13.98
-9.18
-8.27
-11.86
-19.15
-28.71
-39.44
-50.86
-63.14
-76.78
-92.50
-108.42
-125.99
-145.62
-165.82
-183.20
-192.39
-188.19
-167.90
-133.25
-90.47
-48.29
-13.71
10.57
26.40
39.11
53.01
69.86
88.59
106.58
121.31
132.35
141.16
147.67
153.98
160.51
166.11
168.69
166.54
159.19
147.93
135.45
124.61
117.65
114.92
115.50
117.97
120.78
122.16
119.85
111.18
93.93
67.93
35.43
1.06
-29.94
-54.09
-70.52
-80.72
-86.73
-89.37
-87.91
-81.79
-71.94
-61.27
-53.61
-51.74
-55.73
-62.47
-66.94
-63.73
-49.52
-24.11
9.10
43.90
72.52
87.65
85.35
65.81
34.33
-0.28
-28.36
-42.51
-40.28
-25.38
-6.31
6.87
7.18
-6.17
-26.81
-44.23
-49.01
-36.99
-11.25
19.24
43.68
54.04
48.29
30.72
8.76
-11.24
-27.22
-41.25
-57.18
-76.14
-94.64
-105.28
-100.51
-77.72
-41.55
-2.50
28.14
43.74
45.08
38.63
32.26
30.76
34.03
38.09
38.38
32.46
20.33
6.01
-6.36
-14.14
-17.03
-16.72
-15.94
-16.78
-20.07
-25.12
-30.17
-33.73
-35.05
-34.45
-33.00
-31.96
-32.02
-33.01
-34.07
-33.99
-31.86
-27.46
-21.24
-13.88
-6.49
0.08
5.33
9.13
11.58
13.19
14.29
14.95
15.11
14.43
12.65
9.65
5.56
0.83
-3.23
-5.56
-5.55
-3.27
0.42
4.30
7.23
8.62
8.43
8.37
9.81
13.53
19.48
26.60
33.56
39.46
44.17
48.13
53.64
62.10
74.10
89.96
109.79
134.11
163.43
197.04
221.46
226.71
205.96
159.58
95.55
26.07
-36.91
-85.79
-118.29
-135.97
-139.47
-128.95
-106.02
-72.32
-33.68
0.65
20.06
19.57
1.79
-23.61
-46.19
-58.90
-60.22
-53.73
-44.73
-37.26
-32.58
-30.04
-27.62
-24.22
-19.78
-14.71
-9.83
-5.44
-1.78
1.43
4.22
6.82
9.31
11.75
14.60
17.97
21.57
24.60
26.05
24.88
20.75
14.17
6.06
-1.60
-7.67
-11.98
-15.52
-19.52
-25.14
-32.65
-40.91
-50.13
-59.52
-67.30
-70.09
-63.76
-45.57
-16.92
15.75
42.52
54.30
47.56
25.83
-1.96
-26.24
-41.19
-46.79
-46.93
-46.16
-46.63
-47.10
-45.06
-38.92
-29.41
-18.86
-10.40
-4.63
-0.68
3.25
9.18
17.72
27.83
37.15
43.09
43.62
38.42
28.65
16.36
3.85
-7.39
-16.98
-25.54
-33.02
-40.59
-48.20
-55.09
-60.02
-61.80
-59.77
-54.02
-46.16
-36.44
-25.78
-14.62
-3.07
8.90
21.42
34.25
46.98
58.08
66.44
70.98
71.39
67.99
61.60
53.36
44.45
35.46
26.42
17.07
6.72
-4.91
-17.47
-29.83
-39.76
-45.07
-44.46
-38.35
-28.87
-19.42
-13.32
-12.87
-19.10
-31.03
-46.28
-61.31
-71.87
-73.90
-65.06
-45.87
-18.94
8.25
29.22
40.49
42.39
38.06
31.45
25.22
20.18
15.79
11.28
7.05
4.04
2.99
3.75
5.27
6.16
5.25
2.29
-2.19
-6.84
-10.37
-12.15
-12.39
-11.95
-11.87
-12.87
-14.93
-17.53
-19.55
-19.91
-18.00
-13.74
-7.62
-0.36
7.29
14.79
21.80
28.15
33.66
37.91
40.45
40.77
38.53
33.68
26.53
17.70
7.91
-1.64
-9.93
-16.06
-19.39
-19.55
-16.52
-10.57
-2.26
7.63
18.14
28.17
36.78
43.17
46.72
47.08
44.13
37.96
28.89
17.47
4.25
-9.43
-22.37
-33.69
-42.91
-49.99
-55.25
-59.13
-61.89
-63.41
-63.10
-60.19
-54.17
-45.05
-33.59
-21.06
-8.93
1.64
10.20
17.18
23.63
30.38
37.75
45.30
52.03
57.03
59.93
61.32
62.57
65.47
71.28
80.73
94.04
110.80
129.45
146.70
157.76
156.30
139.79
109.54
71.16
32.76
1.78
-17.91
-27.03
-29.48
-29.79
-30.64
-32.56
-34.92
-37.00
-39.20
-42.77
-48.93
-57.71
-67.85
-77.24
-83.97
-87.15
-87.01
-84.70
-81.59
-78.62
-75.64
-71.57
-64.94
-54.67
-40.70
-24.14
-7.08
8.51
20.09
26.46
27.89
25.92
22.26
18.63
16.09
14.93
14.76
14.78
14.45
13.73
12.89
12.37
12.29
12.74
13.61
14.21
13.03
8.09
-2.76
-21.03
-46.07
-74.30
-98.31
-108.88
-98.81
-66.74
-18.60
33.38
73.88
89.12
71.00
20.74
-51.71
-130.90
-199.79
-243.04
-250.24
-219.19
-151.43
-59.95
36.11
117.11
168.18
181.20
159.47
119.39
82.95
67.19
77.53
108.88
152.68
199.91
242.56
270.60
276.23
254.69
205.76
134.26
49.98
-35.04
-110.42
-170.10
-212.29
-237.89
-249.67
-251.42
-247.73
-242.62
-238.70
-236.07
-231.42
-219.10
-193.20
-150.88
-93.90
-27.62
41.93
109.92
172.38
224.97
261.97
276.91
264.94
225.50
163.42
87.55
7.40
-69.04
-135.72
-187.03
-217.35
-222.64
-203.43
-166.47
-122.90
-83.42
-53.01
-28.75
-2.36
34.35
83.36
138.33
187.42
219.27
228.79
219.46
201.47
186.38
181.69
187.98
198.84
203.92
193.19
160.63
106.52
37.15
-37.84
-108.90
-169.58
-217.78
-254.54
-281.63
-299.59
-307.10
-302.56
-286.53
-262.92
-238.27
-218.99
-208.14
-203.82
-200.00
-189.34
-166.38
-129.46
-80.77
-25.14
31.45
83.17
125.32
154.81
170.29
172.12
161.82
141.50
113.32
79.77
44.32
11.51
-13.88
-28.19
-30.36
-22.45
-8.79
5.81
18.07
27.70
37.22
50.98
73.08
105.41
146.55
192.37
237.67
278.31
312.76
341.40
364.78
381.84
389.31
382.49
357.57
314.08
255.90
190.75
127.28
71.43
24.50
-16.30
-54.62
-91.49
-123.89
-146.17
-153.75
-147.51
-134.50
-124.32
-122.72
-127.67
-131.30
-126.01
-110.58
-91.53
-79.73
-83.77
-104.41
-134.08
-159.36
-167.52
-154.54
-127.31
-97.17
-71.93
-52.50
-35.33
-16.65
4.27
24.51
38.46
40.67
29.01
5.66
-23.99
-54.49
-82.91
-109.55
-136.73
-163.48
-184.27
-188.58
-165.04
-108.11
-23.24
72.83
157.20
208.77
216.38
182.57
121.76
53.70
-4.45
-43.39
-62.64
-66.77
-63.32
-59.99
-60.88
-65.14
-69.82
-73.58
-78.01
-85.84
-98.25
-113.59
-127.67
-135.75
-135.36
-127.53
-116.10
-105.75
-99.43
-97.35
-97.39
-95.94
-89.56
-77.03
-59.74
-40.81
-23.41
-9.26
1.95
12.06
23.46
38.63
58.41
81.97
107.41
132.90
157.85
183.43
212.57
244.37
278.96
315.00
349.04
375.84
389.55
385.27
360.52
316.03
255.78
187.06
118.30
57.53
10.82
-18.80
-31.81
-31.62
-23.49
-12.94
-4.01
0.81
0.55
-4.61
-13.80
-25.65
-38.53
-50.69
-60.73
-67.59
-71.31
-72.88
-73.84
-75.67
-79.24
-84.62
-91.18
-98.01
-104.15
-108.96
-112.19
-113.81
-113.85
-112.30
-109.10
-104.23
-97.90
-90.48
-82.61
-75.03
-68.37
-62.95
-58.73
-55.31
-52.14
-48.71
-44.72
-40.06
-34.83
-29.17
-23.12
-16.52
-9.14
-0.87
7.93
16.43
23.55
28.34
30.45
30.43
29.54
29.16
29.99
31.53
32.19
29.94
23.07
11.21
-4.11
-19.71
-31.64
-36.62
-33.47
-23.72
-10.98
-0.22
4.16
0.18
-11.04
-25.38
-36.78
-38.88
-26.54
2.85
47.63
102.65
158.13
201.30
221.49
215.31
187.82
148.89
107.57
68.23
27.44
-19.37
-73.89
-133.01
-189.69
-235.93
-266.24
-272.09
-252.76
-214.89
-169.22
-125.96
-90.28
-61.50
-35.81
-9.89
17.20
43.32
66.11
85.96
104.66
123.62
141.90
156.03
161.75
156.34
139.63
114.83
87.44
62.35
43.30
31.29
24.86
21.33
18.15
13.15
5.31
-5.12
-16.99
-28.48
-37.74
-43.39
-44.85
-42.44
-37.55
-31.84
-26.71
-23.01
-20.85
-19.94
-19.80
-19.97
-20.07
-19.98
-19.67
-19.12
-18.35
-17.37
-16.27
-15.16
-14.07
-12.95
-11.65
-10.06
-8.13
-5.92
-3.57
-1.28
0.75
2.34
3.40
3.83
3.66
2.95
1.88
0.73
-0.23
-0.74
-0.68
-0.03
1.05
2.30
3.43
4.16
4.32
3.85
2.85
1.52
0.10
-1.21
-2.25
-2.97
-3.37
-3.49
-3.39
-3.10
-2.73
-2.33
-1.97
-1.68
-1.44
-1.20
-0.94
-0.70
-0.63
-0.87
-1.51
-2.46
-3.44
-4.02
-3.86
-2.84
-1.17
0.66
2.09
2.71
2.44
1.47
0.18
-1.08
-2.15
-3.07
-3.93
-4.78
-5.60
-6.26
-6.65
-6.72
-6.51
-6.13
-5.68
-5.20
-4.77
-4.45
-4.30
-4.43
-4.89
-5.68
-6.76
-8.00
-9.23
-10.24
-10.81
-10.75
-9.96
-8.46
-6.45
-4.22
-2.11
-0.37
0.92
1.79
2.26
2.21
1.44
-0.33
-3.23
-7.16
-11.73
-16.43
-20.78
-24.48
-27.49
-29.96
-32.11
-34.14
-36.18
-38.30
-40.54
-42.90
-45.43
-48.11
-50.88
-53.59
-56.04
-57.93
-58.99
-59.02
-57.93
-55.73
-52.47
-48.18
-42.76
-36.13
-28.22
-19.18
-9.36
0.79
10.95
21.21
32.16
44.79
60.21
79.09
101.29
125.62
150.01
171.87
188.80
199.12
202.34
199.17
191.14
180.05
167.28
153.44
138.33
121.27
101.45
78.34
51.79
22.15
-9.61
-41.82
-71.94
-96.87
-113.54
-119.92
-115.71
-102.65
-84.07
-63.88
-45.66
-31.92
-23.91
-21.78
-24.80
-31.51
-39.79
-47.14
-51.13
-50.11
-43.66
-32.82
-19.84
-7.57
1.31
4.91
2.64
-4.62
-14.81
-25.15
-33.04
-36.80
-36.13
-32.08
-26.46
-21.09
-17.16
-15.07
-14.65
-15.65
-18.12
-22.32
-28.50
-36.44
-45.30
-53.75
-60.41
-64.28
-65.04
-63.02
-59.00
-53.86
-48.47
-43.57
-39.79
-37.58
-37.05
-37.72
-38.62
-38.46
-36.11
-31.04
-23.41
-13.94
-3.50
7.19
17.61
27.32
35.83
42.58
47.22
49.83
51.01
51.60
52.35
53.61
55.36
57.53
60.26
63.88
68.65
74.46
80.61
85.99
89.26
88.95
83.62
71.81
52.47
25.43
-8.06
-45.23
-82.30
-115.37
-141.29
-158.04
-164.55
-160.24
-144.67
-117.76
-80.36
-34.77
15.27
65.13
110.18
146.73
172.77
188.23
194.81
195.38
192.86
188.98
183.44
173.66
155.84
127.06
87.47
41.22
-4.51
-42.05
-66.18
-75.41
-72.15
-61.45
-49.23
-40.82
-39.90
-47.85
-63.28
-82.07
-98.16
-106.61
-106.56
-102.62
-102.73
-113.64
-136.45
-164.82
-187.06
-190.27
-166.11
-113.98
-41.02
41.07
120.12
186.76
235.88
262.29
263.99
243.19
206.33
161.92
117.49
77.86
45.38
20.59
2.38
-11.24
-23.33
-36.81
-53.34
-72.33
-91.45
-107.52
-118.20
-123.48
-125.40
-127.62
-133.61
-144.94
-159.91
-173.66
-179.23
-170.19
-143.49
-99.46
-45.00
8.92
50.18
72.30
74.94
64.01
48.68
37.54
35.80
44.07
59.76
78.87
97.75
113.48
124.16
128.68
126.63
118.67
106.42
92.54
80.00
71.26
67.27
67.43
70.00
72.88
74.63
74.88
74.61
75.49
79.07
85.82
95.06
105.22
114.54
121.49
124.92
124.06
118.55
108.60
95.16
79.95
65.02
52.05
41.72
33.55
26.33
18.90
10.85
2.70
-4.48
-9.78
-13.04
-15.12
-17.62
-22.28
-30.29
-41.87
-56.07
-71.11
-84.89
-95.58
-102.17
-104.57
-103.54
-100.21
-95.79
-91.21
-87.07
-83.68
-81.06
-79.10
-77.58
-76.10
-74.20
-71.31
-66.75
-59.67
-49.20
-34.66
-15.94
6.22
30.15
53.67
74.67
91.72
104.46
113.45
119.77
124.52
128.56
132.58
137.29
143.43
151.62
161.79
172.73
181.95
186.16
182.18
168.12
144.12
112.57
77.65
44.12
15.94
-4.97
-19.15
-29.09
-37.68
-46.62
-55.46
-62.08
-64.36
-61.99
-57.39
-55.07
-59.65
-73.94
-98.32
-131.43
-171.42
-216.58
-264.64
-311.51
-350.76
-374.74
-377.16
-355.99
-314.78
-261.51
-205.48
-153.93
-110.15
-73.99
-43.61
-17.38
5.80
27.12
48.85
73.80
103.75
137.41
169.89
194.29
204.75
199.52
181.85
158.14
134.66
114.56
97.05
78.91
56.95
30.09
-0.18
-30.68
-58.01
-79.73
-94.80
-103.37
-106.32
-104.81
-100.05
-93.11
-84.94
-76.47
-68.70
-62.70
-59.31
-58.77
-60.42
-62.83
-64.31
-63.76
-61.23
-57.84
-55.34
-55.18
-57.84
-62.61
-68.03
-72.57
-75.21
-75.46
-73.29
-68.95
-62.98
-56.41
-50.59
-46.72
-45.15
-45.19
-45.03
-42.61
-36.76
-27.92
-17.85
-8.74
-1.92
2.54
4.93
5.92
5.73
4.00
0.17
-5.82
-13.17
-20.21
-25.53
-29.88
-34.61
-41.26
-50.61
-61.61
-71.19
-74.83
-68.22
-50.07
-25.16
-1.22
13.31
11.91
-8.01
-45.27
-95.81
-153.32
-210.90
-262.52
-299.27
-311.41
-292.16
-241.80
-169.67
-91.37
-22.36
43.63
111.13
184.68
264.58
345.44
418.69
476.38
510.72
526.37
529.32
521.62
504.02
476.19
437.30
390.53
339.35
287.67
239.80
197.78
159.99
123.91
86.72
46.51
2.75
-43.14
-86.94
-122.44
-144.62
-151.87
-146.42
-133.85
-121.30
-116.27
-122.91
-139.98
-161.11
-178.67
-186.84
-185.15
-177.66
-170.76
-172.74
-189.67
-224.20
-275.51
-340.40
-412.58
-484.53
-545.30
-581.48
-583.94
-549.81
-484.41
-400.48
-314.39
-239.38
-185.09
-153.09
-120.14
-69.28
5.06
93.64
178.23
232.69
255.08
249.42
221.67
178.23
126.74
74.75
30.56
2.03
-5.70
9.33
42.42
86.42
134.71
180.85
220.22
250.02
268.91
276.85
275.99
267.53
253.10
231.40
200.85
161.72
116.69
69.51
23.79
-17.01
-51.36
-78.12
-96.79
-108.14
-113.93
-116.42
-117.37
-117.92
-118.13
-118.12
-117.63
-115.54
-111.19
-104.52
-96.06
-85.86
-74.16
-61.15
-47.20
-31.95
-15.11
3.33
23.68
46.02
71.61
101.42
136.48
172.46
206.77
237.43
262.58
281.68
294.62
302.99
307.74
308.87
305.60
297.51
284.29
265.39
241.88
204.42
149.88
80.37
2.66
-74.81
-145.03
-199.74
-241.28
-272.92
-297.19
-313.89
-322.80
-325.43
-323.37
-318.21
-311.39
-304.62
-297.81
-290.30
-279.92
-265.21
-245.77
-222.29
-196.16
-169.12
-143.26
-119.21
-96.95
-75.23
-52.96
-29.62
-5.33
19.17
42.93
64.69
83.93
100.51
114.94
128.03
141.23
156.75
176.97
202.92
232.40
259.84
277.08
276.14
251.88
203.77
136.20
57.13
-23.70
-96.63
-153.26
-187.74
-197.88
-185.94
-158.51
-124.93
-94.61
-74.15
-65.50
-65.99
-70.18
-72.36
-68.46
-57.04
-38.98
-16.53
8.03
33.26
58.85
85.37
114.06
146.38
183.21
224.07
266.19
304.31
331.84
342.98
335.13
310.23
274.20
234.74
198.91
171.25
153.49
145.34
145.75
153.61
167.75
186.37
206.82
226.26
242.37
254.12
261.65
265.72
266.82
264.18
255.81
238.95
211.71
174.11
128.46
78.67
29.21
-15.68
-53.31
-82.79
-105.17
-121.37
-131.57
-135.06
-131.20
-120.21
-102.67
-80.55
-56.57
-34.59
-16.41
-1.88
10.76
23.01
35.56
49.77
66.14
84.48
101.88
116.69
128.56
138.74
148.80
160.36
176.52
198.63
225.45
250.52
268.43
276.27
275.03
267.73
245.56
203.73
140.70
76.14
16.79
-36.53
-90.85
-149.33
-213.58
-283.56
-354.99
-421.32
-474.38
-509.29
-521.94
-511.15
-479.16
-431.60
-374.40
-309.39
-235.53
-151.08
-59.27
32.59
114.87
177.99
215.32
226.16
216.81
196.57
173.64
150.90
127.63
101.43
70.79
35.93
-1.37
-38.71
-75.06
-110.91
-147.92
-186.13
-222.96
-253.81
-273.44
-277.89
-265.41
-237.08
-196.47
-148.87
-99.89
-54.33
-15.68
14.09
34.48
46.23
51.12
51.65
50.86
51.67
56.28
65.28
77.18
88.78
96.23
96.25
87.07
68.97
44.16
16.17
-10.88
-33.19
-48.17
-55.01
-54.90
-50.50
-44.91
-40.57
-38.56
-38.76
-40.40
-43.04
-46.97
-53.06
-62.31
-75.26
-91.61
-110.08
-128.53
-144.33
-155.03
-159.42
-158.31
-154.68
-152.73
-156.07
-165.78
-179.63
-192.87
-200.45
-199.49
-190.62
-177.38
-164.12
-153.80
-146.80
-141.43
-135.56
-127.87
-118.28
-107.50
-96.20
-84.53
-72.14
-58.33
-42.37
-23.78
-2.73
19.55
40.53
56.80
64.99
62.94
50.54
29.73
3.92
-22.68
-45.79
-61.63
-68.17
-66.16
-59.77
-55.59
-60.21
-77.05
-104.42
-135.90
-162.85
-177.76
-176.72
-159.67
-129.00
-87.76
-38.77
14.94
69.13
118.51
158.23
186.24
204.71
219.49
237.48
263.30
297.06
334.35
368.38
392.83
404.04
401.62
387.58
365.07
337.31
307.01
276.29
246.65
219.03
193.79
170.98
150.28
131.08
112.26
92.45
70.61
46.87
22.87
1.32
-15.13
-25.23
-29.79
-31.20
-32.24
-34.71
-38.87
-43.76
-48.21
-51.75
-54.90
-58.68
-63.72
-69.63
-74.97
-77.86
-76.85
-71.58
-62.80
-51.83
-39.95
-27.83
-15.60
-3.18
9.25
21.06
31.35
39.32
44.65
47.51
48.26
47.14
44.08
38.77
31.01
21.04
9.67
-1.76
-11.62
-18.38
-20.91
-18.80
-12.62
-4.03
4.38
9.71
9.46
2.21
-12.12
-32.28
-55.98
-80.25
-102.08
-119.06
-130.04
-135.33
-136.52
-135.53
-133.44
-129.70
-122.19
-108.16
-85.71
-54.75
-17.19
23.57
63.56
98.78
125.58
140.96
142.93
131.01
106.75
73.76
36.88
0.92
-30.42
-55.15
-72.28
-80.95
-80.95
-73.19
-59.95
-44.23
-28.99
-16.33
-7.15
-1.01
3.27
7.09
11.40
16.23
20.81
23.93
24.64
22.82
19.47
16.26
14.80
15.97
19.20
22.75
24.39
22.08
14.40
0.79
-18.35
-40.87
-62.84
-79.12
-84.86
-77.53
-58.42
-32.51
-5.87
14.39
25.16
27.82
26.21
23.83
21.96
19.65
15.28
8.48
0.86
-4.50
-4.93
0.33
9.72
20.11
27.65
28.91
21.85
6.31
-15.54
-39.62
-60.93
-75.19
-79.92
-75.52
-64.92
-52.51
-42.32
-36.45
-35.07
-36.16
-37.30
-36.55
-32.99
-26.80
-18.90
-10.46
-2.08
6.53
16.19
27.22
38.91
49.16
55.29
55.37
49.20
38.67
26.91
16.90
9.98
6.18
4.32
3.34
3.14
4.36
7.59
12.49
17.49
20.12
17.76
8.35
-8.55
-30.92
-54.29
-72.47
-79.38
-71.67
-50.44
-21.05
8.78
32.15
45.49
49.15
46.21
40.25
33.61
26.91
19.93
12.62
5.21
-1.25
-6.44
-11.13
-16.75
-24.27
-33.50
-42.67
-49.28
-51.28
-48.09
-41.11
-32.79
-25.69
-21.07
-18.44
-15.79
-10.76
-1.38
13.29
32.56
53.78
71.94
80.47
73.17
47.37
6.32
-40.46
-79.97
-100.78
-97.46
-72.67
-35.19
4.51
38.79
64.89
84.09
98.91
110.73
119.38
123.91
124.31
122.45
121.38
124.02
131.60
143.34
157.05
170.65
182.63
192.47
200.27
206.15
209.80
210.38
206.87
196.59
178.85
154.19
124.00
90.08
54.27
17.99
-18.13
-54.60
-93.06
-135.20
-181.87
-231.50
-279.24
-317.56
-338.29
-335.47
-307.75
-259.02
-197.02
-131.18
-70.06
-19.56
17.57
41.12
52.59
54.44
49.63
41.37
32.56
25.29
20.48
17.77
15.78
12.72
7.04
-2.01
-14.09
-28.02
-42.27
-55.35
-66.26
-74.51
-79.94
-82.60
-82.58
-80.10
-75.59
-69.70
-63.13
-56.49
-50.23
-44.64
-40.00
-36.63
-34.74
-34.35
-35.20
-36.87
-39.03
-41.58
-44.65
-48.38
-52.66
-57.11
-61.35
-65.23
-69.05
-73.37
-78.56
-84.46
-90.47
-96.01
-100.98
-105.84
-110.99
-115.94
-118.82
-116.90
-107.86
-91.21
-68.79
-43.92
-19.81
1.69
20.32
36.33
49.18
57.05
57.75
50.32
36.15
18.71
2.06
-10.88
-19.15
-23.15
-23.24
-18.50
-6.61
15.00
47.60
89.63
136.34
180.52
214.08
230.05
224.58
198.34
157.02
110.17
68.51
40.42
28.92
30.83
38.41
42.94
38.42
23.78
2.51
-19.69
-37.80
-49.30
-54.21
-53.88
-49.50
-41.55
-30.35
-16.95
-3.66
6.47
10.86
8.58
0.99
-8.81
-17.25
-21.70
-21.44
-17.74
-13.11
-10.21
-10.80
-15.26
-22.79
-31.90
-41.16
-49.59
-56.88
-63.23
-68.95
-74.30
-79.17
-83.16
-85.77
-86.61
-85.54
-82.67
-78.21
-72.24
-64.71
-55.40
-44.11
-30.84
-15.87
0.28
16.86
32.98
47.69
59.97
68.92
74.03
75.31
73.41
69.53
65.26
62.34
62.29
66.06
73.81
84.82
97.61
110.24
120.76
127.58
129.85
127.66
122.12
115.24
109.51
107.19
109.51
115.99
124.59
132.29
136.28
134.90
128.02
116.67
102.23
85.73
67.66
48.20
27.65
6.79
-13.23
-31.12
-45.70
-56.13
-61.95
-63.26
-60.97
-57.00
-54.09
-55.18
-62.29
-75.61
-93.07
-110.87
-124.80
-131.73
-130.85
-123.67
-113.37
-103.37
-96.10
-92.28
-91.06
-90.67
-89.27
-85.59
-79.11
-70.04
-59.11
-47.40
-36.15
-26.51
-19.23
-14.38
-11.25
-8.66
-5.33
-0.33
6.76
16.03
27.39
40.67
55.44
70.79
85.31
97.50
106.28
111.62
114.48
116.51
119.14
122.95
127.21
130.09
129.27
122.77
109.61
90.30
66.70
41.65
18.24
-0.97
-14.58
-22.59
-26.39
-28.27
-30.68
-35.56
-43.72
-54.72
-67.08
-78.71
-87.66
-92.78
-94.19
-93.24
-91.85
-91.53
-92.41
-92.89
-90.33
-82.46
-69.05
-52.90
-39.55
-35.64
-46.57
-74.05
-115.15
-162.62
-206.95
-239.00
-252.53
-245.63
-220.88
-184.07
-142.22
-101.66
-66.69
-39.19
-19.01
-4.61
6.20
15.79
26.17
38.71
53.75
70.38
86.70
100.22
108.66
110.80
107.01
99.28
90.58
83.88
81.28
83.34
89.23
97.11
104.97
111.32
115.65
118.55
121.53
126.43
134.77
147.27
163.63
182.57
202.26
220.78
236.68
249.33
258.76
265.41
269.73
272.00
272.26
270.33
265.84
258.15
246.59
230.17
208.11
180.52
148.84
115.81
84.53
57.01
33.17
11.38
-10.62
-33.93
-57.37
-77.78
-91.51
-96.45
-93.11
-87.20
-84.36
-88.59
-100.37
-116.79
-133.35
-146.56
-155.04
-159.52
-161.83
-163.61
-166.52
-172.39
-183.36
-201.33
-226.26
-255.05
-281.50
-297.46
-295.07
-270.13
-224.19
-164.75
-103.22
-51.22
-16.74
-2.54
-5.75
-18.88
-33.42
-42.99
-44.89
-39.68
-29.63
-17.33
-5.09
4.98
10.79
10.14
1.83
-13.27
-31.81
-48.60
-58.31
-57.21
-44.14
-21.17
6.71
32.85
50.80
56.32
48.75
30.96
7.83
-15.89
-37.40
-56.13
-72.46
-86.06
-94.92
-95.97
-86.76
-67.03
-39.18
-7.53
23.32
49.69
69.31
80.87
83.61
77.40
63.49
45.39
28.59
19.32
22.39
39.56
69.18
107.21
148.74
189.32
225.26
253.32
270.35
273.61
261.54
234.52
194.92
146.43
93.08
38.72
-13.16
-59.31
-96.95
-124.31
-141.29
-149.44
-151.52
-150.45
-148.65
-147.76
-148.93
-153.09
-160.74
-171.44
-183.33
-193.11
-197.01
-191.93
-176.51
-151.23
-117.75
-78.02
-33.78
13.25
60.63
104.67
140.65
164.05
172.23
165.91
149.35
129.09
111.52
100.74
97.35
99.08
102.14
102.98
98.84
87.70
67.84
38.16
-0.53
-44.08
-84.50
-111.58
-116.43
-95.38
-52.13
3.09
57.16
98.79
121.99
126.86
117.99
101.47
82.29
63.31
45.64
29.85
16.99
8.68
6.46
10.98
21.35
35.31
49.79
61.67
68.19
67.36
57.91
39.53
13.09
-19.17
-53.91
-87.31
-116.06
-138.00
-152.13
-158.18
-156.03
-145.53
-127.11
-102.44
-74.85
-48.82
-28.74
-17.34
-14.80
-18.89
-26.03
-32.78
-36.76
-36.76
-32.59
-24.86
-15.37
-7.69
-6.91
-17.82
-42.45
-77.68
-114.92
-142.87
-151.64
-136.75
-100.84
-51.91
0.76
50.17
93.52
131.42
164.96
194.40
218.92
237.59
250.22
257.94
261.46
260.46
253.57
238.28
213.05
178.76
138.44
95.96
54.87
15.80
-23.20
-66.00
-118.09
-183.28
-261.13
-345.81
-427.23
-493.23
-535.34
-550.99
-536.64
-495.74
-436.40
-368.18
-298.78
-237.19
-182.87
-133.72
-88.51
-46.72
-8.58
25.75
57.23
87.44
117.84
150.18
184.81
222.15
263.04
307.22
353.05
396.89
433.17
455.82
461.04
447.89
419.32
380.91
337.88
293.56
248.96
203.69
157.38
110.86
65.05
20.30
-24.15
-69.85
-117.40
-165.06
-208.95
-244.63
-268.92
-281.53
-284.18
-278.81
-266.20
-245.82
-216.98
-180.43
-139.11
-97.26
-58.89
-26.27
0.18
20.97
36.42
46.34
50.72
50.60
48.20
46.16
46.11
47.89
49.65
48.92
43.95
34.39
21.37
7.04
-6.06
-15.47
-19.30
-16.77
-8.57
3.00
14.62
23.26
27.57
28.68
29.76
34.34
44.38
59.00
74.85
87.94
95.78
98.57
98.72
98.94
100.21
100.84
97.24
86.08
66.26
39.75
10.60
-16.91
-39.96
-57.82
-71.37
-82.00
-90.89
-98.75
-106.09
-113.53
-121.71
-130.97
-141.03
-150.79
-158.57
-162.86
-162.96
-159.51
-154.19
-148.84
-144.19
-138.98
-129.89
-112.85
-85.07
-46.98
-2.91
40.00
74.20
94.62
100.57
96.03
87.96
83.48
87.20
99.51
116.92
133.84
145.09
147.82
142.30
131.28
118.59
107.71
100.56
97.11
95.54
92.63
84.47
67.12
37.60
-4.89
-57.98
-115.67
-169.20
-208.92
-226.96
-219.52
-187.99
-138.25
-78.77
-18.11
36.80
81.42
113.13
130.45
132.88
121.22
98.29
69.04
39.86
16.91
4.26
2.83
10.03
21.14
31.10
36.26
35.40
29.57
20.88
11.18
1.22
-9.19
-20.21
-31.14
-40.29
-45.84
-46.97
-44.69
-41.73
-41.48
-46.79
-59.14
-78.44
-103.13
-130.34
-155.94
-175.02
-182.97
-177.05
-157.81
-129.23
-97.46
-68.64
-46.77
-32.94
-25.81
-22.83
-21.38
-19.22
-14.39
-5.14
9.62
29.77
53.47
77.54
98.30
112.75
119.54
119.28
113.97
106.13
97.63
88.92
79.13
66.65
50.21
29.86
7.33
-14.68
-33.74
-48.78
-60.70
-71.24
-82.48
-95.70
-111.05
-127.73
-144.53
-160.06
-172.58
-179.90
-178.56
-165.29
-138.05
-97.24
-46.08
10.02
65.12
114.60
156.18
191.14
222.43
253.37
286.54
323.49
364.94
411.82
465.35
518.41
561.98
584.66
575.83
530.25
451.24
349.84
241.26
139.69
53.67
-13.87
-65.07
-104.32
-135.44
-161.67
-184.95
-205.79
-223.83
-238.81
-249.77
-256.24
-258.87
-259.61
-257.49
-254.28
-251.41
-248.54
-244.68
-238.56
-230.02
-219.93
-209.29
-198.35
-187.14
-177.46
-169.01
-162.17
-157.18
-153.40
-148.49
-138.67
-120.09
-90.86
-51.45
-4.56
44.84
91.07
129.16
155.27
167.53
166.60
155.08
137.13
117.51
100.05
87.27
80.45
79.85
85.04
94.73
106.44
116.85
122.75
121.95
114.41
102.44
89.72
79.78
74.51
73.56
74.80
75.64
73.94
68.74
60.37
50.05
39.46
30.27
23.70
20.13
19.04
18.87
17.30
11.72
-0.16
-19.46
-45.39
-74.94
-103.23
-124.75
-135.27
-133.40
-121.30
-103.88
-86.88
-74.72
-69.21
-69.46
-73.09
-77.69
-81.75
-84.93
-87.50
-89.67
-91.43
-92.74
-94.07
-96.57
-101.72
-110.27
-121.10
-130.74
-134.17
-126.92
-107.46
-78.62
-47.12
-21.12
-6.86
-6.04
-15.17
-27.22
-34.67
-32.32
-18.79
3.93
32.06
61.68
89.71
113.85
132.17
142.88
144.64
137.38
122.82
104.46
86.52
72.40
63.37
58.13
53.54
46.25
34.28
17.93
-0.45
-17.69
-31.30
-40.54
-46.49
-51.33
-57.05
-64.51
-73.09
-80.98
-85.90
-85.81
-79.43
-66.52
-48.09
-26.22
-3.88
15.69
29.54
35.84
34.27
26.17
14.24
1.78
-8.05
-12.94
-11.74
-4.66
6.91
20.50
33.17
42.29
46.40
45.61
41.40
35.66
29.56
22.99
14.85
4.16
-8.87
-22.58
-34.61
-43.27
-48.42
-51.23
-53.13
-54.61
-54.68
-51.61
-44.14
-32.58
-19.02
-6.52
2.15
5.52
3.60
-2.49
-11.32
-21.64
-32.30
-42.00
-48.85
-50.41
-44.30
-29.37
-6.69
20.00
45.13
62.94
69.46
63.89
48.67
28.38
8.09
-8.15
-18.01
-20.71
-16.48
-6.09
9.24
27.60
46.47
63.08
75.23
82.09
84.44
84.46
84.78
87.49
93.38
101.74
110.71
118.11
122.14
121.86
117.19
108.64
96.88
82.58
66.59
50.15
34.99
22.89
15.02
11.18
9.73
8.15
4.13
-3.37
-13.60
-24.41
-33.26
-38.33
-39.17
-36.82
-33.26
-30.51
-30.06
-32.52
-37.73
-45.09
-53.80
-63.02
-71.88
-79.32
-84.26
-85.79
-83.65
-78.36
-71.29
-64.18
-58.46
-54.76
-52.73
-51.38
-49.73
-47.34
-44.41
-41.58
-39.28
-37.40
-35.21
-31.66
-25.97
-18.05
-8.64
1.00
9.57
16.36
21.56
26.16
31.49
38.53
47.24
56.37
63.70
66.70
63.39
52.98
36.15
14.84
-8.26
-30.39
-49.29
-63.59
-72.82
-77.25
-77.52
-74.26
-67.98
-59.12
-48.10
-35.32
-21.03
-5.37
11.47
28.87
45.55
59.70
69.57
74.31
74.56
72.24
69.68
68.48
68.74
69.15
67.68
62.68
53.49
40.63
25.48
9.99
-3.65
-13.27
-16.96
-13.57
-2.99
13.61
33.98
55.44
75.54
92.53
105.44
113.96
118.11
118.07
114.13
106.76
96.64
84.66
71.90
59.50
48.55
39.85
33.74
29.90
27.46
25.26
22.24
17.62
10.93
1.83
-10.01
-24.92
-42.84
-63.09
-84.22
-104.10
-120.35
-130.78
-133.71
-128.35
-114.90
-94.66
-69.90
-43.47
-18.07
4.44
23.47
39.60
54.12
68.30
82.90
97.77
111.93
123.87
131.87
134.60
131.38
122.34
108.21
89.61
66.26
36.57
-1.60
-49.24
-104.04
-159.33
-205.06
-230.82
-229.78
-201.58
-152.85
-94.95
-40.24
1.51
25.15
30.01
18.51
-5.17
-35.90
-67.71
-94.20
-109.64
-110.95
-99.24
-80.03
-61.56
-51.63
-54.30
-68.24
-87.43
-103.88
-111.15
-106.96
-93.76
-77.18
-63.24
-55.63
-54.27
-55.85
-55.76
-50.47
-39.28
-24.37
-9.48
2.10
9.04
12.32
14.42
17.90
24.39
34.22
46.71
60.78
75.14
88.39
98.99
105.39
106.32
101.05
89.49
72.17
50.05
24.52
-2.73
-29.63
-53.96
-73.55
-86.64
-92.22
-90.14
-81.01
-65.99
-46.67
-24.93
-2.97
16.89
32.73
43.56
49.77
52.92
55.01
57.51
60.56
63.01
63.29
60.49
55.01
48.43
42.57
38.67
36.86
36.34
36.21
36.00
35.90
36.41
37.93
40.30
42.87
44.92
46.01
46.16
45.66
44.77
43.32
40.85
36.90
31.38
24.84
18.27
12.76
9.00
6.95
5.82
4.38
1.42
-3.87
-11.54
-20.86
-30.58
-39.38
-46.26
-50.87
-53.45
-54.48
-54.18
-52.27
-48.00
-40.62
-29.96
-16.77
-2.62
10.69
21.85
30.65
37.98
45.46
54.95
68.05
85.95
109.21
137.44
168.79
199.89
226.10
242.85
247.02
237.91
217.19
187.82
152.09
110.35
61.12
2.90
-63.22
-131.86
-193.75
-238.39
-257.67
-248.64
-214.14
-161.31
-99.10
-36.03
20.97
66.52
96.57
108.48
101.79
78.76
44.38
5.15
-32.55
-64.01
-86.93
-101.35
-109.08
-112.75
-115.08
-118.24
-123.62
-131.80
-142.73
-155.97
-170.77
-186.06
-200.44
-212.33
-220.33
-223.69
-222.52
-217.65
-210.23
-201.16
-190.71
-178.48
-163.52
-144.75
-121.28
-92.82
-59.78
-23.33
14.59
51.48
84.92
113.09
135.15
151.26
161.96
168.17
170.94
171.03
168.81
164.30
157.24
147.40
134.97
120.42
104.99
90.51
78.38
69.29
63.33
60.36
60.26
63.21
69.03
77.90
90.33
106.50
126.43
150.23
178.09
210.18
246.50
285.91
322.56
349.45
359.21
346.83
312.17
260.36
199.56
141.98
91.96
50.80
18.88
-4.38
-20.45
-31.74
-40.88
-50.98
-64.71
-83.97
-107.72
-132.34
-153.28
-166.72
-170.98
-167.37
-159.94
-153.88
-154.06
-162.39
-177.78
-197.35
-218.03
-237.84
-256.34
-274.20
-291.84
-309.05
-324.29
-335.55
-341.61
-342.53
-339.34
-333.29
-325.10
-314.44
-300.51
-282.29
-259.66
-234.07
-208.34
-185.72
-168.35
-155.93
-145.48
-132.31
-111.67
-80.76
-39.65
8.99
61.01
112.15
158.84
198.26
228.22
247.04
253.65
248.00
231.37
206.36
176.72
146.83
121.14
103.57
96.65
100.85
114.26
133.05
152.61
169.14
180.84
188.22
193.42
198.81
205.68
213.60
220.73
224.63
223.31
215.83
202.47
184.56
164.15
143.67
125.57
111.74
103.02
98.88
97.70
97.46
96.59
94.42
91.21
87.56
83.84
79.82
74.99
68.94
61.77
54.11
46.70
39.94
33.64
27.32
20.56
13.38
6.30
0.03
-4.86
-8.16
-9.85
-9.83
-7.77
-3.30
3.65
12.48
21.98
30.68
37.53
42.12
44.65
45.58
45.22
43.63
40.73
36.53
31.10
24.33
15.72
4.34
-10.85
-30.36
-53.74
-79.32
-104.55
-126.63
-143.26
-153.12
-156.14
-153.36
-146.47
-137.35
-127.77
-119.27
-113.16
-110.45
-111.51
-115.65
-120.93
-124.59
-123.93
-117.36
-104.97
-88.44
-70.10
-51.94
-34.99
-19.14
-3.79
11.47
26.43
40.26
51.98
61.19
68.53
75.77
85.25
98.87
117.08
138.43
160.11
178.92
192.43
199.32
198.92
190.67
174.06
149.37
118.71
86.25
56.98
34.78
20.69
12.81
8.15
4.86
3.67
7.14
17.31
33.33
50.83
63.54
66.35
57.74
40.07
18.05
-4.02
-24.34
-43.94
-65.83
-93.34
-128.80
-172.43
-221.80
-271.66
-314.87
-344.29
-355.25
-347.49
-325.45
-296.50
-267.85
-244.21
-227.03
-215.63
-209.08
-207.07
-209.42
-214.52
-218.30
-214.49
-196.77
-161.30
-108.80
-44.71
22.23
82.49
128.39
156.10
165.92
161.35
147.19
127.64
105.21
80.81
54.75
27.99
2.56
-18.78
-33.63
-40.93
-41.25
-36.35
-28.41
-19.40
-10.90
-4.31
-1.05
-2.24
-7.92
-16.31
-24.14
-28.02
-26.57
-21.99
-19.81
-26.61
-46.50
-78.39
-115.60
-148.25
-167.24
-167.66
-149.78
-117.75
-76.92
-31.80
14.39
58.82
97.97
127.85
145.22
149.40
142.95
130.85
118.46
109.47
105.09
104.58
106.39
109.11
111.61
112.79
111.33
106.10
96.89
84.98
72.81
63.17
58.00
57.71
61.24
66.95
73.52
80.33
87.61
95.80
105.20
115.57
126.46
137.31
147.53
156.20
161.66
161.48
153.04
134.53
105.82
68.92
27.23
-15.75
-57.97
-99.27
-141.00
-184.88
-231.93
-282.09
-334.23
-386.57
-437.08
-483.48
-523.01
-552.28
-568.05
-568.19
-553.10
-525.00
-487.33
-443.52
-396.42
-348.00
-298.97
-249.76
-200.97
-154.53
-111.80
-72.97
-36.49
0.03
38.73
81.00
125.86
169.56
204.90
225.71
229.23
217.96
198.43
179.51
171.06
180.86
212.49
262.66
324.72
390.41
452.40
504.86
538.52
546.49
526.28
492.54
455.03
419.27
382.92
344.93
304.90
263.24
222.08
184.06
151.28
122.69
96.89
72.79
50.60
30.88
14.44
2.68
-3.44
-4.08
-1.90
0.77
2.76
4.78
7.96
13.21
21.20
31.81
44.17
56.17
66.26
73.81
79.30
83.20
85.45
85.48
82.23
74.67
62.08
45.01
25.25
5.04
-14.04
-31.48
-47.64
-63.22
-78.65
-94.18
-109.93
-126.23
-143.49
-161.90
-180.86
-198.86
-214.22
-226.12
-235.23
-243.32
-252.03
-261.46
-269.74
-273.85
-271.13
-260.82
-244.38
-224.67
-204.77
-187.04
-172.96
-163.70
-160.59
-164.82
-176.60
-194.25
-213.75
-229.43
-235.48
-227.66
-204.52
-167.45
-119.72
-65.15
-7.10
51.52
107.71
157.84
197.92
224.74
237.32
237.58
229.66
218.28
206.83
196.43
186.41
175.52
163.24
150.14
137.25
125.11
113.32
101.04
87.60
73.26
59.03
46.12
35.24
26.22
18.26
10.52
2.62
-5.18
-12.28
-18.24
-22.87
-26.06
-27.59
-26.96
-23.52
-16.79
-6.58
6.52
21.01
35.21
47.71
57.75
65.45
71.47
76.77
82.60
89.28
95.93
101.20
103.93
103.80
101.68
99.34
98.65
101.09
105.25
106.70
99.91
80.37
46.45
-0.21
-55.97
-117.05
-180.05
-239.09
-287.60
-318.42
-325.92
-308.60
-269.69
-215.93
-161.25
-109.92
-63.21
-21.49
15.10
46.29
71.74
92.82
111.03
129.00
151.10
180.14
215.99
255.21
291.56
317.73
327.81
319.02
292.55
253.24
206.10
154.88
101.84
48.18
-5.01
-56.19
-103.43
-144.91
-179.03
-205.82
-226.81
-244.75
-263.29
-286.18
-315.94
-352.35
-391.69
-427.30
-452.10
-461.05
-452.68
-429.01
-393.98
-351.56
-304.59
-254.78
-203.24
-151.31
-100.23
-50.55
-1.72
47.50
97.98
149.04
197.84
239.99
271.10
288.71
293.96
291.92
290.20
296.27
314.43
343.85
378.60
409.70
428.23
428.27
408.26
370.49
319.42
259.63
194.69
126.95
58.60
-7.65
-68.63
-121.62
-165.86
-203.19
-237.28
-271.50
-306.65
-339.77
-365.00
-376.17
-369.68
-346.23
-310.56
-269.25
-228.16
-190.48
-156.42
-124.02
-90.51
-53.56
-12.10
33.13
79.56
123.31
160.08
186.47
201.03
204.62
199.90
190.11
177.99
165.43
153.70
143.98
137.60
135.48
137.23
140.75
142.49
138.91
128.03
110.20
87.88
64.42
42.64
23.74
7.24
-8.42
-24.91
-43.26
-63.49
-84.74
-105.58
-124.61
-140.73
-153.29
-161.95
-166.43
-166.24
-160.74
-149.31
-131.76
-108.62
-81.19
-51.35
-21.21
7.37
32.95
54.59
71.83
84.43
92.46
96.20
96.21
93.33
88.51
82.63
76.29
69.78
63.20
56.54
49.85
43.16
36.44
29.57
22.40
14.93
7.53
0.87
-4.30
-7.43
-8.41
-7.56
-5.52
-2.89
-0.10
2.66
5.26
7.51
9.09
9.69
9.18
7.81
6.18
5.10
5.15
6.58
9.11
12.19
15.15
17.49
19.00
19.71
19.79
19.42
18.69
17.56
15.92
13.68
10.95
8.18
6.17
5.84
7.93
12.56
19.18
26.75
34.30
41.44
48.45
55.97
64.38
73.38
81.96
88.69
92.10
90.64
82.60
66.20
40.27
5.44
-35.11
-75.86
-110.53
-134.34
-145.98
-147.89
-145.10
-143.08
-145.88
-155.23
-170.93
-191.66
-215.35
-239.36
-260.14
-273.60
-275.85
-264.35
-238.63
-200.35
-152.62
-99.09
-43.31
11.38
61.75
104.76
137.89
159.88
171.19
173.85
170.78
164.68
157.24
149.03
140.01
130.29
120.56
111.98
105.62
101.81
99.88
98.39
95.85
91.43
85.42
79.11
74.21
72.02
72.97
76.40
80.85
84.31
84.32
78.06
62.89
37.27
1.81
-40.15
-83.16
-121.26
-149.95
-167.48
-174.81
-174.50
-169.15
-160.47
-149.35
-136.47
-122.81
-109.74
-98.36
-88.95
-80.79
-72.63
-63.31
-52.35
-40.08
-27.56
-16.07
-6.78
-0.33
3.44
5.39
6.78
8.80
11.99
16.06
20.08
23.02
24.31
24.06
22.90
21.46
19.88
17.70
14.22
9.14
3.12
-2.22
-4.99
-4.05
0.08
5.11
7.70
4.42
-7.21
-28.28
-58.27
-94.82
-133.53
-168.22
-191.79
-198.20
-184.61
-152.66
-108.10
-58.68
-11.35
29.80
64.07
93.10
119.30
144.66
170.43
197.27
225.31
253.79
280.65
302.47
315.27
315.73
302.60
277.22
243.22
205.35
168.10
134.60
106.22
82.76
63.15
46.09
30.65
16.35
3.19
-8.63
-18.84
-27.30
-34.01
-39.18
-43.03
-45.86
-47.79
-48.84
-48.92
-47.93
-45.84
-42.75
-38.81
-34.24
-29.31
-24.35
-19.82
-16.19
-13.79
-12.64
-12.42
-12.47
-12.20
-11.25
-9.70
-7.97
-6.59
-5.92
-6.06
-6.85
-8.03
-9.37
-10.75
-12.15
-13.64
-15.28
-17.15
-19.23
-21.41
-23.43
-24.91
-25.41
-24.60
-22.36
-18.81
-14.32
-9.40
-4.57
-0.36
2.81
4.59
4.81
3.47
0.80
-2.78
-6.79
-10.74
-14.24
-17.11
-19.33
-20.98
-22.16
-22.97
-23.41
-23.49
-23.23
-22.78
-22.39
-22.45
-23.22
-24.79
-26.96
-29.26
-31.08
-31.84
-31.17
-28.95
-25.36
-20.76
-15.58
-10.19
-4.88
0.13
4.63
8.32
10.92
12.25
12.32
11.43
10.00
8.48
7.14
6.01
4.92
3.71
2.25
0.62
-0.97
-2.30
-3.23
-3.73
-3.94
-4.09
-4.41
-5.02
-5.94
-6.99
-7.91
-8.40
-8.17
-7.04
-4.96
-2.01
1.59
5.53
9.43
12.95
15.79
17.80
19.00
19.55
19.73
19.82
20.04
20.47
21.00
21.38
21.34
20.66
19.25
17.18
14.64
11.81
8.88
5.93
2.97
-0.06
-3.20
-6.47
-9.78
-13.00
-15.95
-18.47
-20.40
-21.57
-21.83
-21.05
-19.22
-16.48
-13.11
-9.49
-6.01
-2.88
-0.21
2.03
3.89
5.41
6.68
7.75
8.78
9.90
11.20
12.66
14.17
15.55
16.65
17.37
17.71
17.70
17.37
16.68
15.55
13.89
11.66
8.95
5.97
3.00
0.30
-1.91
-3.51
-4.53
-5.07
-5.20
-4.95
-4.17
-2.58
0.12
3.98
8.62
13.22
16.72
18.28
17.74
15.72
13.44
12.21
12.82
15.11
18.09
20.42
21.09
19.97
17.92
16.49
17.28
21.20
28.24
37.49
47.54
56.94
64.58
69.94
73.64
77.77
85.94
102.39
130.23
169.45
215.97
262.21
299.51
321.45
326.05
315.96
296.39
272.08
245.05
214.35
177.70
133.82
84.35
33.68
-13.06
-52.21
-83.07
-107.61
-128.86
-149.42
-170.54
-191.37
-209.41
-221.25
-222.98
-210.94
-182.33
-136.45
-75.83
-11.35
42.42
70.80
64.44
24.08
-39.92
-112.70
-181.18
-237.40
-277.02
-301.60
-312.38
-309.26
-291.76
-260.43
-217.64
-167.33
-113.87
-62.98
-19.22
14.77
37.62
48.58
47.15
33.32
8.41
-23.77
-57.40
-85.74
-103.18
-107.79
-101.79
-89.75
-75.34
-58.86
-35.91
-0.63
50.45
115.26
185.70
251.16
303.85
342.18
370.49
396.18
423.52
450.84
471.00
475.33
458.36
420.78
368.28
307.41
243.24
177.11
109.02
40.31
-24.73
-79.92
-119.66
-138.61
-140.20
-126.36
-99.14
-60.04
-11.66
40.58
88.34
122.66
136.46
127.01
97.26
52.93
-0.23
-59.40
-124.80
-198.30
-280.31
-368.68
-457.66
-537.76
-598.58
-631.39
-632.91
-605.62
-556.61
-493.51
-423.80
-353.46
-286.57
-225.59
-171.70
-126.25
-90.02
-63.30
-44.52
-32.97
-28.87
-32.61
-43.13
-51.44
-49.61
-32.83
-13.36
-2.28
-9.23
-34.97
-76.51
-125.02
-167.63
-192.54
-192.25
-166.03
-117.95
-56.46
9.21
70.89
123.26
163.31
188.81
199.19
196.39
186.46
175.90
168.65
162.84
151.82
128.00
87.29
32.65
-26.43
-77.20
-110.20
-122.42
-117.40
-101.40
-78.90
-50.77
-14.58
32.49
91.16
155.43
215.61
262.11
286.32
284.82
260.54
221.92
179.93
144.37
120.49
108.55
104.70
103.78
102.31
99.41
96.26
94.38
94.10
94.17
92.59
87.40
77.49
63.46
47.66
33.32
23.35
19.03
19.25
20.79
19.41
11.41
-4.60
-27.27
-53.04
-77.57
-97.12
-109.52
-114.41
-112.79
-106.39
-96.82
-85.29
-72.50
-59.00
-45.63
-33.71
-24.98
-20.99
-22.31
-28.04
-36.04
-43.63
-48.70
-50.40
-49.20
-46.34
-43.03
-39.74
-36.03
-30.89
-23.42
-13.44
-1.73
10.18
20.49
27.89
31.90
32.89
31.73
29.29
26.07
22.15
17.50
12.23
6.70
1.46
-3.05
-6.61
-9.26
-11.10
-12.17
-12.34
-11.55
-9.89
-7.84
-6.08
-5.28
-5.69
-7.07
-8.79
-10.10
-10.58
-10.27
-9.59
-9.09
-9.09
-9.57
-10.22
-10.69
-10.81
-10.69
-10.60
-10.74
-11.13
-11.63
-12.02
-12.25
-12.41
-12.78
-13.60
-14.95
-16.61
-18.16
-19.09
-19.02
-17.89
-15.95
-13.75
-11.86
-10.55
-9.57
-8.17
-5.32
-0.22
7.36
16.76
26.51
34.70
39.56
39.99
35.90
28.22
18.65
9.09
1.12
-4.44
-7.59
-9.00
-9.56
-10.00
-10.58
-11.11
-11.14
-10.27
-8.43
-6.00
-3.66
-2.11
-1.74
-2.39
-3.50
-4.37
-4.57
-4.05
-2.94
-1.33
0.76
3.03
4.72
4.55
1.40
-4.81
-12.69
-19.96
-24.54
-26.39
-28.05
-33.60
-46.59
-67.87
-94.75
-121.94
-143.66
-155.35
-155.31
-144.75
-126.80
-105.99
-87.48
-76.23
-75.98
-87.99
-109.31
-133.74
-153.83
-162.90
-157.75
-139.22
-110.94
-77.06
-40.28
0.14
46.78
102.22
168.48
245.81
332.83
427.32
526.71
619.46
691.84
729.76
723.46
673.02
587.69
481.74
369.23
261.06
163.86
81.87
19.86
-25.35
-58.58
-85.91
-113.97
-148.99
-195.18
-253.74
-318.87
-380.15
-426.02
-446.76
-439.06
-407.36
-362.19
-315.72
-277.01
-248.52
-226.87
-205.73
-178.43
-142.77
-99.13
-51.12
-3.79
38.01
71.12
93.97
106.20
109.15
104.65
94.98
82.35
69.00
57.11
48.68
44.94
45.01
47.52
50.44
51.89
50.57
46.45
40.71
35.12
31.10
29.05
28.37
27.61
25.32
20.54
13.19
4.03
-5.83
-15.45
-24.47
-33.00
-41.54
-50.48
-60.02
-70.00
-80.02
-89.60
-98.40
-106.22
-112.93
-118.59
-123.29
-127.23
-130.57
-133.38
-135.65
-137.12
-137.52
-136.59
-134.27
-130.63
-125.83
-119.90
-112.63
-103.65
-92.63
-79.56
-64.79
-49.01
-33.05
-17.56
-2.98
10.53
22.87
33.95
43.66
51.90
58.66
64.06
68.26
71.37
73.39
74.24
73.88
72.36
69.99
67.26
64.74
62.98
62.35
62.96
64.62
66.91
69.38
71.55
72.96
73.27
72.37
70.30
67.41
64.16
61.12
58.91
58.09
59.24
62.91
69.62
79.64
92.57
107.16
121.36
132.97
140.03
141.48
137.69
130.64
123.63
120.46
124.26
136.22
155.25
177.24
196.11
206.02
203.65
189.82
169.28
148.64
133.75
128.09
130.86
137.84
143.67
144.24
138.23
126.98
113.23
99.71
89.18
82.63
79.37
77.50
74.83
69.72
61.68
51.72
36.20
16.53
-2.86
-17.15
-25.24
-31.87
-45.74
-75.05
-123.02
-185.83
-252.65
-311.31
-352.19
-370.73
-367.27
-345.54
-311.27
-271.51
-234.22
-206.21
-192.90
-195.70
-210.80
-230.05
-244.03
-245.79
-232.98
-209.54
-178.79
-144.80
-111.10
-80.42
-54.66
-34.81
-20.59
-10.43
-1.92
7.99
20.58
35.54
50.99
64.56
74.19
78.99
79.55
77.53
75.48
74.91
76.60
80.32
85.21
90.13
94.33
98.13
101.72
106.59
113.91
124.63
136.96
147.99
153.86
151.13
138.42
116.97
93.05
70.24
50.63
35.00
23.50
15.84
11.12
8.97
8.92
10.47
12.38
13.73
13.98
13.16
11.63
9.92
8.58
7.74
7.13
5.64
2.31
-3.40
-11.23
-20.01
-27.77
-32.35
-32.31
-27.48
-19.25
-9.55
-0.10
8.21
15.28
21.28
25.98
28.48
27.53
22.21
12.79
0.97
-10.62
-19.20
-22.72
-20.53
-13.73
-5.06
1.66
2.38
-6.18
-25.68
-55.69
-93.62
-135.07
-174.69
-207.33
-229.11
-238.31
-235.62
-223.55
-205.52
-184.81
-163.73
-143.49
-124.36
-106.10
-88.27
-70.53
-52.69
-34.81
-17.23
-0.47
15.03
29.06
41.61
52.85
62.86
71.58
78.82
84.55
88.87
91.94
93.80
94.32
93.28
90.63
86.65
81.82
76.69
71.53
66.40
61.21
56.03
51.15
47.02
43.97
41.98
40.68
39.55
38.13
36.35
34.50
33.16
32.95
34.41
37.82
43.24
50.43
58.98
68.43
78.43
88.89
100.06
112.13
124.95
137.63
148.65
156.06
158.11
153.86
143.49
128.35
110.49
92.11
74.86
59.26
44.73
30.09
13.87
-5.14
-27.81
-54.45
-84.66
-117.05
-148.93
-176.72
-197.10
-208.54
-212.05
-210.37
-205.91
-198.68
-185.77
-162.93
-127.54
-81.04
-29.18
20.21
60.60
89.22
107.46
119.17
128.14
136.43
144.04
149.91
153.25
154.13
153.27
151.39
148.42
143.40
134.64
120.72
101.20
77.09
50.65
24.60
1.19
-18.56
-34.90
-48.92
-61.77
-74.04
-85.51
-95.42
-102.89
-107.33
-108.71
-107.57
-104.84
-101.50
-98.39
-96.03
-94.72
-94.61
-95.70
-97.83
-100.67
-103.81
-106.86
-109.62
-112.20
-114.86
-117.86
-121.19
-124.49
-127.11
-128.32
-127.52
-124.39
-118.98
-111.65
-103.07
-93.92
-84.55
-74.38
-61.75
-44.24
-19.54
13.40
53.34
96.71
138.36
173.04
196.96
208.85
209.97
203.49
193.44
183.77
177.36
175.35
176.77
178.63
176.89
167.91
150.01
124.19
93.77
62.95
35.11
11.68
-8.09
-26.39
-45.88
-68.94
-97.18
-130.97
-168.95
-207.69
-241.99
-266.00
-274.91
-266.41
-241.27
-202.98
-156.56
-107.52
-61.12
-22.02
5.92
19.95
19.16
5.13
-17.77
-42.83
-62.41
-69.85
-61.45
-37.73
-3.28
34.64
68.48
92.63
104.90
106.43
100.47
90.65
79.61
68.42
57.03
44.96
32.06
18.79
6.07
-5.08
-13.91
-20.11
-23.75
-25.05
-24.35
-22.11
-19.02
-15.87
-13.44
-12.19
-12.17
-13.09
-14.56
-16.15
-17.59
-18.53
-18.63
-17.57
-15.32
-12.26
-9.20
-7.00
-6.24
-6.96
-8.65
-10.66
-12.50
-14.07
-15.41
-16.43
-16.67
-15.47
-12.31
-7.24
-1.03
5.13
10.08
13.18
14.42
14.16
12.82
10.61
7.53
3.72
-0.39
-4.02
-6.41
-7.13
-6.39
-4.98
-3.87
-3.88
-5.24
-7.54
-9.83
-10.99
-10.09
-6.74
-1.32
5.01
10.64
14.06
14.53
12.41
9.05
6.22
5.34
6.83
10.04
13.67
16.47
17.81
17.86
17.43
17.35
18.18
19.97
22.37
24.82
26.80
27.89
27.83
26.54
24.11
20.86
17.26
13.82
10.94
8.68
6.75
4.63
1.71
-2.43
-7.90
-14.46
-21.62
-28.70
-35.02
-39.99
-43.28
-44.84
-44.99
-44.19
-42.80
-40.98
-38.54
-35.22
-30.88
-25.89
-21.04
-17.23
-15.08
-14.51
-14.84
-15.01
-14.19
-12.08
-8.91
-5.20
-1.36
2.38
5.98
9.40
12.40
14.59
15.74
15.86
15.27
14.46
13.78
13.29
12.70
11.63
9.81
7.24
4.21
1.16
-1.50
-3.59
-5.04
-5.82
-5.81
-4.71
-2.11
2.22
8.07
14.68
20.82
25.08
26.28
23.93
18.35
10.56
2.06
-5.65
-11.36
-14.42
-14.72
-12.60
-8.73
-3.86
1.24
5.92
9.78
12.58
14.26
14.77
13.93
11.54
7.45
1.86
-4.58
-10.87
-16.04
-19.46
-21.04
-21.05
-19.75
-17.16
-13.06
-7.36
-0.48
6.53
12.37
16.05
17.44
17.32
16.93
17.31
18.70
20.50
21.53
20.73
17.56
12.27
5.72
-0.94
-6.64
-10.64
-12.66
-12.81
-11.39
-8.83
-5.61
-2.18
0.99
3.42
4.75
4.83
3.75
1.87
-0.31
-2.30
-3.76
-4.53
-4.52
-3.77
-2.39
-0.58
1.28
2.75
3.50
3.41
2.69
1.72
0.98
0.68
0.80
0.99
0.86
0.03
-1.54
-3.65
-5.79
-7.36
-7.94
-7.44
-6.17
-4.68
-3.57
-3.14
-3.34
-3.85
-4.24
-4.26
-3.95
-3.66
-3.86
-4.93
-6.92
-9.50
-12.05
-13.85
-14.36
-13.34
-10.86
-7.21
-2.93
1.29
4.53
5.85
4.56
0.52
-5.52
-12.12
-17.49
-20.09
-19.09
-14.50
-7.07
2.00
11.41
19.91
26.40
30.11
30.70
28.36
23.77
17.89
11.69
5.93
1.03
-2.83
-5.62
-7.35
-7.95
-7.32
-5.45
-2.44
1.36
5.47
9.35
12.59
14.99
16.49
17.18
17.14
16.44
15.11
13.18
10.73
7.80
4.33
0.26
-4.48
-9.73
-15.06
-19.73
-22.96
-24.20
-23.30
-20.54
-16.55
-12.02
-7.56
-3.53
-0.07
2.93
5.69
8.44
11.25
13.93
16.07
17.11
16.63
14.45
10.83
6.24
1.33
-3.31
-7.18
-9.97
-11.56
-11.98
-11.51
-10.63
-9.82
-9.50
-9.83
-10.72
-11.89
-12.90
-13.37
-13.03
-11.78
-9.71
-7.06
-4.17
-1.33
1.29
3.64
5.75
7.59
9.19
10.55
11.67
12.63
13.46
14.09
14.39
14.20
13.48
12.40
11.24
10.31
9.72
9.45
9.31
9.10
8.65
7.83
6.60
4.85
2.57
-0.15
-3.06
-5.81
-8.04
-9.49
-9.97
-9.45
-7.87
-5.30
-1.96
1.76
5.26
8.00
9.61
9.95
9.13
7.43
5.14
2.55
-0.04
-2.31
-4.12
-5.49
-6.66
-8.00
-9.74
-11.81
-13.84
-15.30
-15.83
-15.42
-14.47
-13.55
-13.13
-13.40
-14.14
-14.89
-15.07
-14.29
-12.41
-9.61
-6.26
-2.77
0.52
3.44
5.90
7.95
9.59
10.87
11.84
12.60
13.16
13.50
13.48
12.97
11.98
10.69
9.47
8.68
8.47
8.75
9.19
9.46
9.35
8.81
7.85
6.48
4.69
2.46
-0.08
-2.67
-4.97
-6.73
-7.83
-8.28
-8.21
-7.74
-7.07
-6.45
-6.18
-6.46
-7.29
-8.44
-9.48
-9.94
-9.54
-8.30
-6.38
-4.02
-1.25
1.99
5.70
9.58
12.91
14.77
14.35
11.43
6.53
0.75
-4.64
-8.66
-10.84
-11.23
-10.09
-7.72
-4.38
-0.43
3.59
6.88
8.70
8.60
6.64
3.47
0.03
-2.69
-3.94
-3.47
-1.47
1.42
4.39
6.68
7.86
7.92
7.24
6.36
5.68
5.32
5.16
4.98
4.71
4.46
4.44
4.83
5.59
6.58
7.54
8.29
8.70
8.68
8.10
6.85
4.92
2.46
-0.15
-2.47
-4.15
-5.09
-5.47
-5.69
-6.10
-6.93
-8.12
-9.35
-10.21
-10.34
-9.57
-7.94
-5.64
-2.93
-0.03
2.90
5.70
8.18
10.20
11.64
12.49
12.87
12.93
12.81
12.52
12.07
11.47
10.81
10.16
9.55
8.85
7.83
6.32
4.28
1.94
-0.38
-2.31
-3.63
-4.21
-4.10
-3.42
-2.44
-1.56
-1.28
-1.95
-3.65
-6.06
-8.55
-10.42
-11.19
-10.71
-9.16
-6.80
-3.91
-0.69
2.64
5.78
8.30
9.87
10.32
9.87
8.98
8.25
8.10
8.67
9.77
11.01
11.98
12.41
12.18
11.19
9.37
6.57
2.80
-1.66
-6.17
-9.83
-11.82
-11.70
-9.62
-6.32
-2.79
0.00
1.44
1.42
0.25
-1.48
-3.16
-4.27
-4.55
-3.91
-2.51
-0.60
1.47
3.30
4.57
5.08
4.86
4.09
3.03
1.98
1.10
0.41
-0.18
-0.87
-1.84
-3.20
-4.91
-6.69
-8.20
-9.06
-9.05
-8.24
-6.94
-5.52
-4.31
-3.48
-2.99
-2.76
-2.73
-2.79
-2.86
-2.79
-2.41
-1.63
-0.50
0.80
2.04
3.10
3.95
4.71
5.51
6.44
7.48
8.51
9.37
9.92
10.06
9.87
9.48
9.21
9.34
10.02
11.17
12.48
13.48
13.76
13.14
11.67
9.66
7.47
5.38
3.52
1.78
-0.04
-2.24
-5.02
-8.34
-11.88
-15.06
-17.14
-17.51
-15.95
-12.69
-8.46
-4.15
-0.66
1.50
2.19
1.65
0.33
-1.33
-3.01
-4.48
-5.65
-6.45
-6.87
-6.95
-6.74
-6.27
-5.47
-4.06
-1.71
1.86
6.64
12.19
17.66
22.03
24.36
24.05
21.03
15.77
9.04
1.74
-5.29
-11.40
-16.12
-19.17
-20.47
-20.06
-18.15
-15.08
-11.24
-7.06
-2.98
0.67
3.63
5.82
7.25
8.01
8.11
7.47
5.97
3.59
0.50
-2.86
-5.91
-8.14
-9.26
-9.26
-8.32
-6.71
-4.73
-2.61
-0.62
1.03
2.17
2.79
2.96
2.84
2.48
1.89
1.01
-0.12
-1.31
-2.21
-2.51
-1.96
-0.56
1.47
3.73
5.81
7.34
8.09
7.91
6.79
4.87
2.44
-0.00
-1.86
-2.60
-1.89
0.19
3.26
6.66
9.73
12.03
13.39
13.87
13.65
12.94
11.89
10.56
9.02
7.29
5.40
3.38
1.18
-1.19
-3.72
-6.29
-8.67
-10.60
-11.79
-12.11
-11.57
-10.35
-8.74
-6.95
-5.11
-3.25
-1.40
0.36
1.85
2.93
3.53
3.74
3.80
3.93
4.24
4.68
5.02
5.03
4.55
3.61
2.38
1.07
-0.21
-1.50
-3.00
-4.92
-7.36
-10.22
-13.17
-15.78
-17.65
-18.52
-18.40
-17.47
-15.97
-14.10
-11.94
-9.51
-6.84
-4.05
-1.40
0.84
2.42
3.19
3.16
2.47
1.36
0.04
-1.30
-2.44
-3.18
-3.30
-2.56
-0.91
1.51
4.25
6.68
8.15
8.16
6.56
3.54
-0.40
-4.66
-8.61
-11.77
-13.83
-14.74
-14.58
-13.50
-11.62
-9.01
-5.72
-1.87
2.22
6.14
9.41
11.65
12.65
12.44
11.22
9.34
7.26
5.50
4.49
4.53
5.64
7.51
9.65
11.43
12.37
12.22
11.06
9.17
6.96
4.80
2.92
1.46
0.44
-0.17
-0.49
-0.69
-1.00
-1.63
-2.69
-4.12
-5.72
-7.15
-8.09
-8.23
-7.38
-5.46
-2.58
0.98
4.74
8.10
10.55
11.73
11.57
10.15
7.68
4.37
0.48
-3.65
-7.59
-10.92
-13.37
-15.02
-16.25
-17.71
-19.91
-23.00
-26.62
-29.92
-31.92
-31.94
-29.93
-26.47
-22.60
-19.37
-17.44
-16.91
-17.27
-17.65
-17.14
-15.07
-11.25
-6.09
-0.50
4.29
7.05
7.03
4.44
0.62
-2.09
-1.16
5.16
16.82
31.49
45.13
53.33
53.03
43.83
28.26
10.82
-3.77
-12.24
-13.70
-9.57
-2.67
3.91
7.54
6.55
0.40
-10.17
-23.02
-34.70
-41.04
-38.32
-24.67
-0.98
29.02
59.87
85.91
102.81
108.34
102.16
85.31
59.54
27.25
-8.39
-43.30
-72.74
-92.20
-98.47
-90.70
-70.74
-42.81
-12.43
14.97
35.20
46.10
47.72
42.08
32.34
22.02
14.04
10.33
11.79
18.63
30.87
48.48
71.36
98.91
129.91
162.62
195.15
225.79
253.02
275.24
290.38
296.10
290.33
272.35
243.18
205.46
162.42
116.82
70.38
24.11
-20.97
-63.17
-100.28
-130.28
-152.31
-167.08
-176.55
-182.97
-187.92
-191.80
-193.79
-192.60
-187.15
-177.19
-163.60
-148.22
-133.49
-121.63
-113.96
-110.54
-110.20
-111.08
-111.30
-109.56
-105.42
-99.10
-91.11
-81.95
-71.95
-61.47
-51.07
-41.63
-34.11
-29.03
-26.11
-24.07
-21.12
-15.70
-7.43
2.54
11.92
18.39
20.79
19.86
18.03
18.56
24.26
36.31
53.67
73.03
89.76
99.27
98.65
87.67
68.92
46.89
26.43
11.28
3.31
2.49
7.56
16.51
26.86
35.81
40.50
38.78
30.15
16.34
1.03
-11.34
-17.24
-15.23
-6.43
6.15
18.77
28.21
32.53
31.26
25.07
15.36
3.86
-7.62
-17.40
-24.22
-27.57
-27.88
-26.37
-24.57
-23.63
-23.76
-24.14
-23.29
-19.81
-13.13
-3.95
5.91
13.96
17.88
16.15
8.58
-3.50
-17.48
-30.14
-38.42
-40.38
-35.59
-25.08
-10.76
5.31
21.39
36.14
48.47
57.28
61.57
60.81
55.30
46.23
35.44
24.81
15.68
8.59
3.36
-0.54
-3.78
-6.83
-9.85
-12.73
-15.16
-16.84
-17.64
-17.66
-17.20
-16.54
-15.71
-14.59
-12.85
-10.30
-7.08
-3.62
-0.50
1.75
2.88
2.87
1.97
0.50
-1.24
-2.99
-4.53
-5.76
-6.60
-7.03
-6.98
-6.27
-4.64
-1.86
2.05
6.72
11.42
15.24
17.48
17.96
17.12
15.79
14.70
14.09
13.53
12.18
9.29
4.76
-0.80
-6.31
-10.75
-13.59
-15.01
-15.61
-16.05
-16.63
-17.26
-17.55
-17.11
-15.85
-14.11
-12.61
-12.15
-13.41
-16.48
-20.87
-25.57
-29.41
-31.48
-31.47
-29.64
-26.67
-23.26
-19.85
-16.62
-13.54
-10.54
-7.68
-5.05
-2.75
-0.88
0.52
1.39
1.73
1.61
1.26
1.07
1.46
2.75
4.97
7.88
10.99
13.87
16.18
17.75
18.56
18.64
18.02
16.74
14.91
12.68
10.29
7.98
5.95
4.37
3.33
2.88
2.95
3.42
4.10
4.71
5.02
4.85
4.17
3.05
1.69
0.27
-1.06
-2.20
-3.06
-3.56
-3.62
-3.22
-2.43
-1.44
-0.48
0.29
0.80
1.13
1.38
1.57
1.64
1.46
1.01
0.33
-0.38
-0.95
-1.29
-1.42
-1.45
-1.47
-1.46
-1.39
-1.19
-0.87
-0.51
-0.21
-0.04
-0.04
-0.18
-0.44
-0.82
-1.38
-2.14
-3.05
-4.00
-4.81
-5.26
-5.19
-4.55
-3.44
-2.02
-0.58
0.66
1.56
2.12
2.39
2.52
2.72
3.18
4.10
5.51
7.31
9.20
10.75
11.68
11.89
11.57
11.04
10.59
10.30
10.04
9.59
8.82
7.84
6.87
6.19
5.91
5.95
6.05
5.93
5.38
4.26
2.48
0.03
-3.04
-6.48
-9.79
-12.36
-13.57
-13.08
-10.96
-7.71
-4.10
-0.98
1.00
1.48
0.59
-1.08
-2.52
-2.58
-0.41
4.13
10.17
16.02
19.77
20.05
16.63
10.50
3.48
-2.53
-6.20
-7.09
-5.61
-2.61
0.96
4.35
7.07
8.99
10.20
10.96
11.51
11.89
11.82
10.80
8.37
4.45
-0.43
-5.25
-8.89
-10.64
-10.35
-8.46
-5.64
-2.46
0.78
3.92
6.80
9.10
10.41
10.44
9.27
7.36
5.38
4.01
3.54
3.81
4.28
4.30
3.40
1.52
-0.98
-3.49
-5.40
-6.36
-6.45
-5.95
-5.26
-4.68
-4.36
-4.31
-4.40
-4.54
-4.62
-4.59
-4.38
-4.01
-3.50
-2.92
-2.34
-1.86
-1.50
-1.26
-1.03
-0.63
0.08
1.10
2.29
3.28
3.68
3.22
1.86
-0.10
-2.23
-4.07
-5.32
-5.89
-5.89
-5.57
-5.19
-4.92
-4.84
-4.93
-5.09
-5.19
-5.19
-5.13
-5.12
-5.26
-5.54
-5.79
-5.77
-5.24
-4.10
-2.48
-0.67
0.99
2.25
3.03
3.36
3.31
2.92
2.15
1.00
-0.43
-1.92
-3.21
-4.14
-4.70
-5.02
-5.25
-5.45
-5.58
-5.53
-5.20
-4.68
-4.08
-3.54
-2.98
-2.24
-1.06
0.65
2.68
4.50
5.43
4.87
2.65
-0.88
-4.86
-8.28
-10.27
-10.47
-9.05
-6.56
-3.61
-0.63
2.20
4.85
7.29
9.35
10.74
11.10
10.22
8.10
4.94
1.17
-2.69
-6.15
-8.77
-10.25
-10.48
-9.47
-7.41
-4.60
-1.47
1.48
3.82
5.23
5.65
5.12
3.73
1.62
-1.05
-3.88
-6.31
-7.67
-7.53
-5.94
-3.41
-0.70
1.60
3.35
4.77
6.21
7.82
9.35
10.28
10.15
8.86
6.75
4.43
2.44
1.08
0.37
0.14
0.17
0.34
0.59
0.86
0.98
0.77
0.11
-0.96
-2.21
-3.27
-3.90
-4.13
-4.22
-4.62
-5.66
-7.40
-9.54
-11.60
-13.08
-13.61
-13.12
-11.81
-10.00
-8.09
-6.40
-5.09
-4.18
-3.50
-2.85
-2.01
-0.88
0.40
1.39
1.49
0.10
-3.02
-7.61
-12.78
-17.26
-19.74
-19.36
-16.00
-10.36
-3.71
2.52
7.17
9.68
10.15
9.23
7.85
6.85
6.77
7.65
9.14
10.69
11.75
12.03
11.50
10.33
8.77
7.01
5.10
3.06
0.95
-1.13
-2.94
-4.33
-5.22
-5.67
-5.78
-5.69
-5.49
-5.27
-5.09
-5.01
-5.05
-5.17
-5.26
-5.24
-5.06
-4.76
-4.46
-4.27
-4.28
-4.53
-4.94
-5.37
-5.68
-5.71
-5.33
-4.48
-3.16
-1.38
0.78
3.16
5.47
7.33
8.37
8.44
7.66
6.40
5.16
4.31
3.95
3.89
3.78
3.27
2.19
0.61
-1.15
-2.71
-3.75
-4.16
-4.09
-3.87
-3.88
-4.37
-5.35
-6.60
-7.74
-8.41
-8.37
-7.59
-6.32
-5.02
-4.21
-4.44
-5.99
-8.76
-12.17
-15.17
-16.51
-15.06
-10.29
-2.47
7.16
16.63
23.76
26.72
24.71
18.13
8.49
-2.09
-11.52
-18.31
-21.80
-22.01
-19.43
-14.64
-8.29
-1.08
6.11
12.29
16.50
18.03
16.64
12.57
6.48
-0.74
-8.06
-14.53
-19.37
-22.08
-22.41
-20.39
-16.23
-10.21
-2.76
5.47
13.56
20.29
24.42
25.11
22.32
17.08
11.16
6.49
4.41
5.07
7.46
9.87
10.79
9.58
6.74
3.64
1.79
2.19
4.93
9.34
14.25
18.39
20.70
20.43
17.31
11.58
4.10
-3.79
-10.58
-15.00
-16.48
-15.21
-12.05
-8.07
-4.15
-0.79
1.86
3.81
5.02
5.39
4.88
3.63
1.99
0.42
-0.74
-1.44
-1.94
-2.66
-3.90
-5.66
-7.60
-9.22
-10.12
-10.13
-9.39
-8.22
-6.97
-5.92
-5.20
-4.72
-4.36
-3.98
-3.67
-3.75
-4.67
-6.81
-10.14
-14.15
-17.84
-20.19
-20.54
-18.85
-15.62
-11.55
-7.19
-2.73
1.79
6.28
10.35
13.40
14.87
14.56
12.75
10.09
7.33
5.07
3.66
3.31
4.08
6.00
8.99
12.70
16.46
19.41
20.79
20.15
17.61
13.77
9.55
5.85
3.31
2.11
2.09
2.84
3.92
5.04
6.06
6.88
7.33
7.18
6.10
4.05
1.35
-1.28
-3.03
-3.39
-2.37
-0.58
1.16
2.28
2.78
3.16
4.08
5.88
8.35
10.80
12.46
12.82
11.87
10.01
7.89
6.07
4.95
4.61
4.92
5.66
6.51
7.17
7.45
7.28
6.73
6.02
5.40
5.01
4.81
4.57
3.87
2.31
-0.30
-3.84
-7.83
-11.59
-14.47
-16.02
-16.11
-14.89
-12.71
-9.99
-7.12
-4.43
-2.14
-0.29
1.19
2.40
3.41
4.21
4.62
4.44
3.56
1.98
-0.08
-2.31
-4.34
-5.91
-6.87
-7.16
-6.81
-5.93
-4.68
-3.35
-2.23
-1.62
-1.67
-2.24
-2.97
-3.42
-3.23
-2.35
-1.06
0.12
0.67
0.27
-1.09
-3.08
-5.17
-6.68
-7.07
-5.97
-3.35
0.42
4.68
8.69
11.87
13.97
15.16
15.85
16.42
17.05
17.64
17.93
17.71
16.92
15.74
14.45
13.24
12.18
11.24
10.34
9.46
8.64
7.90
7.14
6.20
4.87
3.09
0.94
-1.33
-3.42
-5.13
-6.49
-7.70
-9.06
-10.80
-12.87
-14.99
-16.68
-17.51
-17.25
-15.95
-13.92
-11.55
-9.19
-7.03
-5.11
-3.42
-1.99
-0.84
-0.05
0.39
0.59
0.70
0.82
1.02
1.30
1.60
1.91
2.22
2.56
2.88
3.09
3.05
2.71
2.04
1.12
0.07
-1.01
-2.10
-3.22
-4.38
-5.59
-6.81
-8.00
-9.10
-10.14
-11.12
-12.04
-12.80
-13.17
-12.87
-11.68
-9.58
-6.81
-3.81
-1.17
0.66
1.36
0.95
-0.32
-1.99
-3.50
-4.36
-4.30
-3.45
-2.21
-1.08
-0.44
-0.32
-0.40
-0.22
0.56
1.94
3.60
5.08
5.97
6.09
5.45
4.20
2.49
0.47
-1.75
-4.05
-6.30
-8.35
-10.13
-11.61
-12.79
-13.64
-14.11
-14.08
-13.37
-11.86
-9.50
-6.47
-3.03
0.43
3.56
6.12
7.97
9.04
9.30
8.81
7.64
6.02
4.24
2.66
1.57
1.12
1.35
2.09
3.10
4.10
4.82
5.07
4.74
3.91
2.74
1.39
0.02
-1.37
-2.88
-4.68
-6.86
-9.41
-12.16
-14.80
-16.95
-18.26
-18.39
-17.14
-14.44
-10.45
-5.53
-0.21
4.96
9.48
13.06
15.60
17.10
17.59
17.06
15.52
13.06
9.97
6.71
3.85
1.80
0.72
0.45
0.52
0.39
-0.27
-1.38
-2.37
-2.45
-0.87
2.56
7.42
12.75
17.52
20.93
22.65
22.78
21.81
20.57
20.24
22.21
27.69
37.11
49.58
62.79
73.53
78.58
75.71
64.29
45.39
21.33
-4.81
-29.79
-50.64
-65.09
-71.93
-71.26
-64.50
-54.14
-43.20
-34.50
-29.91
-29.83
-33.14
-37.64
-40.89
-41.12
-37.85
-31.89
-24.81
-18.23
-13.12
-9.65
-7.41
-5.89
-4.81
-4.23
-4.30
-4.96
-5.90
-6.50
-6.22
-4.84
-2.62
-0.26
1.49
2.18
1.94
1.41
1.46
2.71
5.24
8.55
11.81
14.32
15.81
16.48
16.84
17.47
18.65
20.30
21.98
23.04
22.78
20.67
16.65
11.19
5.27
0.15
-3.09
-3.93
-2.61
-0.01
2.80
5.00
6.35
7.10
7.73
8.54
9.48
10.19
10.25
9.45
7.86
5.80
3.64
1.72
0.25
-0.64
-0.97
-0.89
-0.70
-0.80
-1.53
-3.01
-5.05
-7.30
-9.40
-11.16
-12.60
-13.86
-15.08
-16.29
-17.37
-18.11
-18.34
-17.81
-16.25
-13.44
-9.33
-4.25
1.04
5.46
7.94
7.89
5.49
1.62
-2.46
-5.58
-7.03
-6.65
-4.73
-1.77
1.70
5.24
8.45
11.01
12.70
13.43
13.26
12.38
11.03
9.47
7.88
6.33
4.80
3.19
1.33
-0.89
-3.42
-5.99
-8.10
-9.19
-8.86
-7.01
-3.91
-0.16
3.54
6.63
8.79
10.01
10.40
10.11
9.20
7.64
5.45
2.78
-0.04
-2.63
-4.67
-5.98
-6.59
-6.60
-6.23
-5.62
-4.99
-4.56
-4.57
-5.13
-6.26
-7.81
-9.55
-11.30
-12.98
-14.64
-16.32
-17.96
-19.36
-20.13
-19.87
-18.25
-15.20
-10.94
-5.98
-1.01
3.32
6.59
8.72
9.97
10.73
11.30
11.81
12.16
12.20
11.85
11.16
10.28
9.32
8.27
6.99
5.39
3.50
1.56
-0.10
-1.19
-1.63
-1.64
-1.65
-2.14
-3.42
-5.51
-8.12
-10.78
-12.93
-14.16
-14.27
-13.27
-11.37
-8.88
-6.13
-3.38
-0.89
1.17
2.66
3.51
3.72
3.41
2.78
2.05
1.46
1.19
1.34
1.89
2.76
3.73
4.59
5.16
5.34
5.14
4.61
3.80
2.79
1.64
0.41
-0.81
-1.94
-2.89
-3.55
-3.72
-3.15
-1.62
1.00
4.55
8.64
12.68
16.17
18.77
20.40
21.16
21.13
20.35
18.83
16.72
14.34
12.17
10.70
10.21
10.68
11.82
13.19
14.44
15.31
15.63
15.23
13.91
11.46
7.85
3.34
-1.57
-6.25
-10.20
-13.11
-14.91
-15.57
-15.04
-13.24
-10.16
-6.06
-1.49
2.73
5.87
7.47
7.57
6.59
5.16
3.91
3.23
3.18
3.62
4.29
5.01
5.71
6.42
7.20
7.93
8.34
8.07
6.83
4.56
1.47
-1.96
-5.25
-8.02
-10.12
-11.60
-12.63
-13.35
-13.87
-14.27
-14.63
-15.09
-15.79
-16.83
-18.18
-19.52
-20.38
-20.29
-18.96
-16.37
-12.85
-8.92
-4.99
-1.33
2.01
5.07
7.86
10.33
12.37
13.91
14.97
15.62
15.85
15.63
14.90
13.66
12.01
10.21
8.51
7.13
6.10
5.37
4.79
4.22
3.61
2.98
2.33
1.61
0.69
-0.60
-2.46
-5.02
-8.19
-11.72
-15.19
-18.08
-19.96
-20.51
-19.61
-17.33
-13.88
-9.60
-4.93
-0.31
3.89
7.37
10.02
11.86
12.99
13.52
13.62
13.44
13.28
13.42
14.09
15.29
16.74
17.99
18.66
18.67
18.23
17.77
17.62
17.76
17.89
17.50
16.28
14.19
11.55
8.78
6.21
3.96
1.99
0.22
-1.37
-2.70
-3.67
-4.37
-5.09
-6.25
-8.23
-11.14
-14.68
-18.13
-20.53
-21.03
-19.20
-15.20
-9.69
-3.61
2.15
6.96
10.60
13.26
15.34
17.28
19.38
21.70
24.04
25.95
26.95
26.83
26.03
25.38
25.83
27.97
31.68
36.11
39.89
41.70
40.83
38.14
35.32
34.47
37.41
44.91
56.02
67.73
75.23
72.79
56.53
25.53
-16.65
-61.93
-99.45
-118.49
-111.71
-77.38
-20.00
52.14
128.06
196.87
250.23
283.77
297.42
294.65
280.94
254.94
217.34
169.93
116.23
61.46
11.22
-30.42
-62.23
-85.84
-104.35
-119.38
-131.20
-138.64
-139.97
-134.58
-123.56
-109.71
-96.82
-88.16
-84.77
-86.40
-92.39
-101.71
-112.83
-122.96
-127.65
-121.83
-101.62
-65.72
-16.88
39.36
97.29
153.26
206.13
255.59
299.37
332.13
347.32
340.32
311.53
267.15
216.62
167.87
126.29
92.05
61.05
27.88
-10.95
-55.71
-104.25
-153.99
-203.30
-251.13
-295.98
-334.64
-362.16
-373.54
-366.24
-341.54
-304.09
-260.19
-214.87
-170.68
-127.90
-86.37
-47.55
-15.28
5.69
12.61
7.22
-3.79
-11.20
-7.50
9.50
35.35
60.70
75.72
74.28
55.96
24.81
-14.11
-57.44
-103.88
-152.36
-199.62
-239.63
-265.26
-271.45
-257.83
-229.12
-192.80
-155.48
-120.56
-87.75
-54.90
-20.49
14.73
47.85
75.24
94.35
104.74
108.05
107.07
104.57
102.33
100.68
98.81
95.23
88.59
78.36
65.17
50.72
37.30
26.79
19.96
16.10
13.24
8.99
1.67
-8.87
-21.06
-32.52
-41.64
-48.42
-54.74
-63.51
-77.08
-95.58
-116.51
-135.19
-146.59
-147.67
-138.04
-120.45
-100.42
-85.44
-82.85
-97.19
-127.49
-165.79
-199.14
-212.26
-193.19
-138.48
-55.54
39.18
125.47
185.66
209.52
195.22
149.83
86.20
19.07
-38.80
-79.33
-99.98
-103.18
-88.52
-60.23
-24.93
10.39
40.61
62.99
76.75
82.71
83.21
81.95
81.81
84.91
91.83
101.66
112.81
123.78
134.12
143.71
151.92
156.48
154.84
145.44
128.68
106.98
83.96
63.19
47.02
36.27
30.03
27.02
26.23
26.77
27.70
27.89
26.37
22.72
17.41
11.52
6.41
3.26
2.48
3.57
5.38
6.65
6.49
4.76
1.87
-1.43
-4.39
-6.67
-8.35
-9.84
-11.55
-13.70
-16.26
-19.03
-21.75
-24.29
-26.71
-29.16
-31.83
-34.76
-37.78
-40.37
-41.72
-41.00
-37.60
-31.48
-23.31
-14.23
-5.55
1.71
7.00
10.33
12.09
12.90
13.36
14.00
15.13
16.72
18.42
19.62
19.72
18.42
15.91
12.79
9.84
7.66
6.41
5.83
5.42
4.69
3.36
1.44
-0.93
-3.56
-6.29
-8.94
-11.35
-13.30
-14.67
-15.47
-15.94
-16.43
-17.29
-18.61
-20.19
-21.56
-22.19
-21.64
-19.74
-16.56
-12.31
-7.35
-2.11
2.94
7.31
10.56
12.52
13.24
13.05
12.40
11.72
11.31
11.23
11.40
11.71
12.02
12.20
12.14
11.76
10.98
9.85
8.50
7.15
5.95
4.93
3.94
2.78
1.23
-0.79
-3.19
-5.80
-8.45
-11.02
-13.38
-15.29
-16.43
-16.39
-14.94
-12.12
-8.27
-3.95
0.28
4.04
7.22
9.90
12.15
13.99
15.28
15.84
15.56
14.49
12.90
11.09
9.31
7.71
6.28
4.98
3.74
2.53
1.41
0.38
-0.55
-1.46
-2.42
-3.53
-4.83
-6.32
-7.99
-9.78
-11.63
-13.43
-14.98
-16.06
-16.44
-15.91
-14.38
-11.86
-8.52
-4.62
-0.49
3.48
6.92
9.53
11.14
11.76
11.51
10.65
9.45
8.15
6.97
6.06
5.58
5.65
6.29
7.37
8.61
9.63
10.11
9.96
9.24
8.21
7.12
6.12
5.19
4.20
3.00
1.51
-0.30
-2.33
-4.50
-6.62
-8.39
-9.49
-9.55
-8.34
-5.83
-2.27
1.86
5.94
9.40
11.76
12.80
12.53
11.22
9.28
7.19
5.34
3.91
2.89
2.08
1.25
0.20
-1.17
-2.79
-4.53
-6.26
-7.84
-9.18
-10.25
-11.10
-11.84
-12.65
-13.71
-15.20
-17.18
-19.51
-21.93
-24.01
-25.31
-25.49
-24.43
-22.21
-19.09
-15.42
-11.56
-7.80
-4.37
-1.44
0.88
2.54
3.58
4.11
4.30
4.38
4.56
5.00
5.74
6.72
7.72
8.50
8.85
8.64
7.90
6.70
5.14
3.28
1.18
-1.14
-3.60
-6.12
-8.54
-10.68
-12.38
-13.44
-13.69
-12.94
-11.11
-8.25
-4.68
-0.87
2.61
5.28
6.93
7.68
7.86
7.86
7.95
8.16
8.37
8.41
8.22
7.86
7.49
7.24
7.15
7.17
7.12
6.82
6.15
5.11
3.86
2.64
1.72
1.27
1.25
1.43
1.47
1.02
-0.13
-1.97
-4.26
-6.55
-8.36
-9.28
-9.04
-7.57
-4.96
-1.45
2.59
6.76
10.63
13.89
16.34
17.94
18.79
19.09
19.00
18.66
18.10
17.35
16.42
15.38
14.32
13.31
12.36
11.41
10.40
9.20
7.76
6.07
4.17
2.20
0.27
-1.52
-3.09
-4.46
-5.72
-7.02
-8.57
-10.47
-12.67
-14.85
-16.54
-17.19
-16.39
-14.03
-10.32
-5.74
-0.86
3.83
7.99
11.44
14.17
16.19
17.59
18.46
18.93
19.11
19.10
18.88
18.44
17.75
16.84
15.80
14.73
13.71
12.77
11.85
10.92
9.93
8.87
7.74
6.55
5.35
4.19
3.08
1.97
0.70
-0.94
-3.13
-5.83
-8.84
-11.78
-14.28
-16.04
-16.90
-16.74
-15.47
-13.05
-9.58
-5.33
-0.77
3.57
7.24
9.98
11.77
12.73
13.05
12.98
12.69
12.37
12.09
11.81
11.38
10.62
9.44
7.96
6.49
5.44
5.15
5.75
7.08
8.77
10.36
11.41
11.63
10.93
9.41
7.32
4.95
2.57
0.36
-1.63
-3.43
-5.15
-6.90
-8.80
-11.01
-13.64
-16.66
-19.84
-22.78
-24.94
-25.81
-25.04
-22.55
-18.50
-13.30
-7.57
-2.04
2.55
5.66
7.08
7.04
6.10
4.96
4.22
4.18
4.84
5.96
7.25
8.43
9.29
9.70
9.64
9.13
8.26
7.19
6.04
4.90
3.76
2.58
1.31
-0.06
-1.53
-3.04
-4.54
-5.94
-7.18
-8.17
-8.87
-9.28
-9.40
-9.35
-9.30
-9.46
-10.01
-11.01
-12.34
-13.67
-14.58
-14.66
-13.70
-11.72
-9.01
-5.95
-2.87
0.06
2.90
5.80
8.86
12.09
15.23
17.92
19.74
20.36
19.69
17.85
15.14
12.01
8.86
6.07
3.83
2.19
1.05
0.26
-0.33
-0.75
-0.96
-0.85
-0.38
0.42
1.43
2.43
3.19
3.54
3.38
2.71
1.65
0.33
-1.06
-2.37
-3.59
-4.82
-6.26
-8.03
-10.10
-12.20
-13.91
-14.79
-14.57
-13.22
-10.92
-8.00
-4.82
-1.68
1.12
3.40
4.97
5.80
6.01
5.85
5.64
5.63
5.93
6.49
7.18
7.81
8.23
8.43
8.45
8.43
8.52
8.74
9.05
9.25
9.10
8.44
7.21
5.55
3.70
1.94
0.45
-0.64
-1.37
-1.82
-2.12
-2.38
-2.76
-3.36
-4.23
-5.30
-6.41
-7.33
-7.82
-7.77
-7.23
-6.39
-5.45
-4.53
-3.58
-2.44
-0.96
0.85
2.91
4.96
6.79
8.29
9.40
10.18
10.59
10.59
10.13
9.28
8.19
7.08
6.15
5.45
4.90
4.33
3.61
2.68
1.59
0.43
-0.70
-1.71
-2.50
-2.96
-3.00
-2.63
-2.00
-1.45
-1.36
-2.04
-3.58
-5.86
-8.58
-11.36
-13.84
-15.72
-16.81
-16.90
-15.91
-13.88
-10.99
-7.66
-4.36
-1.51
0.63
2.01
2.82
3.30
3.64
3.94
4.22
4.45
4.62
4.80
5.07
5.50
6.08
6.73
7.34
7.78
7.94
7.77
7.28
6.49
5.42
4.07
2.48
0.71
-1.13
-2.97
-4.71
-6.30
-7.69
-8.85
-9.70
-10.22
-10.41
-10.32
-10.03
-9.57
-8.97
-8.20
-7.27
-6.19
-5.01
-3.80
-2.64
-1.56
-0.65
0.02
0.37
0.40
0.16
-0.27
-0.80
-1.39
-2.08
-2.89
-3.79
-4.61
-5.08
-4.98
-4.18
-2.75
-0.94
0.92
2.46
3.41
3.67
3.22
2.17
0.73
-0.90
-2.57
-4.17
-5.72
-7.23
-8.75
-10.25
-11.58
-12.56
-13.03
-12.95
-12.40
-11.55
-10.54
-9.38
-7.91
-5.92
-3.30
-0.23
2.79
5.11
6.15
5.72
4.15
2.10
0.39
-0.42
-0.28
0.43
1.15
1.39
1.01
0.22
-0.60
-1.23
-1.51
-1.27
-0.21
2.08
5.72
10.16
14.06
15.83
14.72
11.73
9.54
11.35
19.04
31.73
45.86
56.66
60.42
56.26
46.32
34.50
24.52
18.51
16.53
17.23
18.77
19.43
17.92
13.16
4.41
-8.66
-25.48
-44.62
-63.87
-80.67
-92.83
-99.04
-99.18
-94.23
-85.84
-75.79
-65.49
-55.64
-46.32
-37.33
-28.48
-19.86
-11.75
-4.61
1.17
5.31
7.65
8.36
7.84
6.82
6.08
5.95
6.11
5.45
2.60
-3.41
-12.55
-23.67
-34.84
-44.18
-50.43
-53.11
-52.18
-47.66
-39.78
-29.45
-18.95
-11.61
-10.60
-17.42
-30.56
-45.78
-58.02
-64.19
-65.13
-65.64
-71.59
-86.03
-106.72
-126.29
-135.67
-128.38
-103.21
-64.18
-18.19
28.05
69.97
105.23
132.79
151.80
161.25
160.26
148.50
126.16
93.73
52.02
2.55
-51.65
-106.02
-155.36
-195.03
-222.37
-236.99
-240.28
-234.52
-221.89
-204.12
-182.48
-157.87
-130.80
-101.54
-70.21
-37.06
-3.08
29.85
59.19
82.33
97.68
105.45
107.63
106.98
105.71
104.45
102.37
98.20
91.54
83.51
76.18
71.46
69.85
70.38
71.34
71.65
71.65
72.96
77.41
85.74
96.97
108.75
118.35
123.76
124.16
119.88
111.88
101.25
88.92
75.63
62.20
49.74
39.65
33.52
32.70
37.72
47.96
61.46
75.43
86.89
93.62
94.70
90.52
82.40
71.82
59.94
47.48
34.85
22.46
10.88
0.71
-7.51
-13.61
-17.71
-20.15
-21.33
-21.49
-20.76
-19.20
-16.90
-14.05
-10.95
-7.96
-5.40
-3.47
-2.19
-1.46
-1.06
-0.77
-0.43
0.00
0.43
0.74
0.80
0.54
-0.03
-0.83
-1.78
-2.81
-3.91
-5.09
-6.35
-7.68
-9.07
-10.48
-11.89
-13.30
-14.69
-15.98
-17.00
-17.50
-17.15
-15.69
-13.03
-9.36
-5.11
-0.88
2.76
5.38
6.78
6.98
6.17
4.64
2.70
0.69
-1.07
-2.32
-2.93
-2.81
-2.07
-0.88
0.52
1.86
2.90
3.50
3.62
3.28
2.61
1.71
0.69
-0.36
-1.35
-2.18
-2.81
-3.29
-3.72
-4.31
-5.18
-6.34
-7.62
-8.72
-9.33
-9.25
-8.44
-7.08
-5.48
-3.94
-2.72
-1.91
-1.48
-1.28
-1.20
-1.16
-1.16
-1.25
-1.42
-1.66
-1.90
-2.09
-2.25
-2.38
-2.52
-2.59
-2.51
-2.17
-1.59
-0.90
-0.35
-0.19
-0.54
-1.29
-2.14
-2.72
-2.79
-2.37
-1.73
-1.29
-1.39
-2.13
-3.36
-4.73
-5.84
-6.38
-6.20
-5.24
-3.54
-1.21
1.53
4.41
7.01
8.93
9.88
9.78
8.73
7.00
4.93
2.84
1.03
-0.28
-0.99
-1.15
-0.95
-0.70
-0.68
-1.03
-1.66
-2.34
-2.81
-2.92
-2.70
-2.35
-2.09
-2.06
-2.31
-2.76
-3.35
-4.07
-4.93
-5.97
-7.21
-8.65
-10.19
-11.69
-12.94
-13.72
-13.84
-13.23
-11.89
-9.97
-7.63
-5.06
-2.47
-0.06
2.01
3.59
4.58
5.00
4.98
4.74
4.50
4.44
4.63
5.00
5.38
5.67
5.80
5.80
5.77
5.74
5.62
5.24
4.40
3.04
1.23
-0.72
-2.45
-3.70
-4.37
-4.62
-4.68
-4.84
-5.28
-6.01
-6.91
-7.78
-8.41
-8.61
-8.25
-7.24
-5.59
-3.40
-0.98
1.33
3.17
4.32
4.73
4.48
3.75
2.66
1.28
-0.38
-2.24
-4.17
-5.91
-7.13
-7.53
-6.96
-5.41
-3.07
-0.28
2.61
5.27
7.49
9.17
10.22
10.64
10.43
9.68
8.49
7.04
5.42
3.75
2.06
0.43
-1.03
-2.13
-2.71
-2.67
-1.96
-0.65
1.10
3.03
4.79
6.07
6.64
6.50
5.83
4.97
4.21
3.69
3.39
3.20
3.03
2.80
2.54
2.28
2.01
1.73
1.42
1.15
0.94
0.83
0.79
0.75
0.55
0.10
-0.66
-1.66
-2.76
-3.77
-4.52
-4.94
-5.10
-5.14
-5.27
-5.65
-6.30
-7.13
-7.99
-8.70
-9.11
-9.11
-8.64
-7.69
-6.33
-4.67
-2.90
-1.24
0.11
1.00
1.32
1.10
0.44
-0.47
-1.44
-2.26
-2.83
-3.09
-3.08
-2.88
-2.57
-2.19
-1.76
-1.24
-0.64
0.03
0.71
1.29
1.70
1.89
1.84
1.59
1.15
0.52
-0.29
-1.27
-2.33
-3.34
-4.13
-4.55
-4.45
-3.76
-2.42
-0.46
1.95
4.48
6.60
7.73
7.42
5.48
2.10
-2.23
-6.89
-11.30
-15.09
-18.07
-20.25
-21.79
-22.98
-24.19
-25.73
-27.68
-29.83
-31.69
-32.74
-32.66
-31.49
-29.70
-27.97
-26.99
-27.21
-28.73
-31.37
-34.69
-38.14
-41.13
-43.16
-43.94
-43.42
-41.78
-39.46
-36.96
-34.81
-33.46
-33.16
-33.90
-35.32
-36.77
-37.38
-36.35
-33.12
-27.64
-20.27
-11.64
-2.38
7.15
16.90
26.98
37.47
48.21
58.67
68.11
75.71
80.82
83.13
82.67
79.81
75.14
69.34
63.13
57.09
51.72
47.22
43.58
40.46
37.38
33.75
29.09
23.14
15.96
8.04
0.22
-6.44
-10.93
-12.64
-11.51
-8.06
-3.12
2.45
7.94
12.81
16.61
18.94
19.45
18.11
15.21
11.44
7.61
4.40
2.18
1.05
0.97
1.86
3.69
6.32
9.45
12.62
15.30
17.05
17.69
17.29
16.12
14.49
12.66
10.79
8.90
6.95
4.90
2.74
0.56
-1.44
-2.99
-3.87
-3.93
-3.27
-2.22
-1.25
-0.90
-1.47
-2.94
-4.88
-6.55
-7.16
-6.31
-4.17
-1.79
-0.86
-3.35
-10.80
-23.42
-39.44
-55.10
-65.26
-65.02
-51.30
-24.23
12.78
53.97
93.01
124.85
146.87
158.87
162.45
159.94
153.66
145.62
137.55
130.76
125.97
123.00
120.75
117.55
111.59
101.52
86.69
66.95
42.45
13.20
-20.76
-58.91
-99.58
-139.79
-175.77
-203.95
-222.13
-229.67
-227.20
-215.67
-195.64
-167.02
-129.57
-83.72
-31.33
23.97
77.40
123.29
156.04
171.06
165.78
140.70
99.56
48.66
-5.01
-55.15
-97.99
-132.26
-158.38
-177.32
-189.70
-195.72
-195.57
-189.90
-178.96
-163.19
-142.47
-116.09
-83.17
-43.26
3.08
53.95
106.20
157.09
203.91
245.13
280.46
310.48
336.15
358.26
377.04
385.32
377.34
349.57
303.29
244.39
181.11
120.91
68.31
24.62
-11.07
-37.62
-56.75
-69.80
-77.69
-81.45
-82.34
-81.69
-80.73
-80.50
-81.05
-82.11
-83.00
-83.14
-82.34
-80.82
-78.98
-77.44
-76.78
-76.98
-78.03
-79.24
-79.75
-78.81
-75.93
-70.97
-64.15
-56.09
-47.56
-39.81
-34.07
-31.35
-32.04
-35.62
-40.70
-45.48
-48.38
-48.48
-45.91
-41.34
-35.58
-29.21
-22.41
-15.15
-7.47
0.29
7.56
13.79
18.84
23.14
27.71
33.84
42.48
53.72
66.50
78.91
88.78
94.57
96.09
94.59
92.33
91.67
94.46
101.32
111.47
122.78
132.13
136.06
131.68
117.88
96.00
69.92
44.88
25.53
14.14
9.60
8.16
5.29
-1.89
-12.97
-24.24
-30.36
-26.84
-12.24
10.75
36.02
55.97
64.29
57.90
37.76
8.20
-24.82
-55.79
-81.24
-100.05
-113.16
-122.39
-129.44
-135.01
-138.22
-136.68
-126.92
-105.57
-70.74
-23.51
31.62
87.24
134.65
166.16
176.91
166.04
136.64
95.03
49.23
7.44
-23.59
-39.81
-40.55
-28.57
-9.18
11.11
26.13
31.00
22.76
0.11
-36.66
-85.33
-141.63
-199.33
-251.24
-291.16
-315.97
-326.83
-328.67
-328.07
-330.47
-338.07
-349.19
-359.48
-363.85
-358.36
-341.32
-313.50
-278.02
-239.50
-202.91
-171.84
-147.11
-126.32
-104.97
-78.65
-45.36
-6.60
33.46
69.98
99.81
122.50
139.69
153.38
164.38
171.70
173.37
168.01
156.02
139.88
123.21
109.48
100.56
96.19
94.37
92.31
87.75
79.71
68.76
56.44
44.68
35.12
28.92
26.93
29.48
35.78
43.09
46.66
41.18
23.35
-5.66
-39.65
-69.25
-85.55
-83.66
-64.18
-32.38
4.28
38.62
65.21
80.78
84.15
76.33
60.41
40.86
21.96
5.99
-7.56
-20.94
-36.18
-53.21
-69.66
-82.15
-88.21
-87.51
-81.50
-72.24
-61.05
-48.27
-34.00
-19.11
-5.55
4.33
9.07
9.07
6.51
4.22
4.32
7.35
12.20
17.09
20.52
21.83
21.11
18.69
14.75
9.37
2.76
-4.41
-11.00
-15.85
-18.26
-18.30
-16.69
-14.45
-12.39
-10.89
-10.01
-9.70
-10.02
-11.20
-13.58
-17.49
-23.04
-30.17
-38.58
-48.12
-58.47
-69.24
-79.99
-90.29
-99.83
-108.40
-115.71
-121.39
-125.62
-128.71
-131.20
-133.77
-136.94
-140.83
-145.05
-148.68
-150.68
-151.13
-150.52
-149.60
-148.74
-147.72
-145.96
-143.07
-139.11
-134.58
-130.96
-128.85
-127.50
-124.65
-117.57
-104.34
-84.55
-58.96
-22.37
27.21
88.20
154.09
215.70
264.93
298.39
318.16
329.91
339.45
348.84
356.98
360.38
356.78
346.39
331.41
314.41
296.78
278.05
256.05
230.74
202.39
174.77
153.32
142.04
141.14
146.30
149.62
142.06
117.54
74.78
19.92
-35.93
-80.95
-106.68
-110.45
-95.96
-71.48
-42.17
-16.37
0.66
8.45
10.16
8.66
6.54
4.54
2.36
0.00
-2.41
-3.52
-0.77
6.05
15.07
23.52
28.75
29.62
26.91
22.22
18.09
16.41
17.35
19.57
21.23
20.76
17.69
12.85
7.51
3.29
1.32
1.48
2.86
4.34
5.07
4.73
3.45
1.34
-1.52
-5.07
-9.24
-13.60
-17.19
-18.90
-17.87
-13.94
-7.74
-0.31
7.42
14.94
22.22
29.55
37.09
44.70
51.96
58.40
63.93
68.75
73.10
76.90
79.58
80.22
77.92
72.14
62.98
51.03
37.16
22.11
6.33
-9.87
-26.12
-41.91
-56.59
-69.51
-80.05
-87.62
-91.90
-93.22
-92.30
-90.31
-88.89
-89.85
-94.59
-103.51
-115.31
-127.40
-137.11
-141.88
-140.61
-134.29
-126.13
-120.39
-120.92
-129.11
-143.99
-163.47
-184.12
-202.78
-217.64
-228.79
-237.72
-246.51
-256.29
-268.10
-283.47
-302.14
-322.36
-341.25
-355.87
-364.26
-366.72
-364.76
-352.18
-325.69
-282.80
-222.28
-145.00
-55.10
40.05
126.10
197.01
250.48
286.38
308.42
322.86
336.68
354.20
377.81
407.08
439.56
470.19
492.27
500.52
492.16
467.13
427.00
373.74
308.80
234.17
153.11
71.29
-2.40
-58.78
-92.14
-103.17
-97.49
-84.57
-73.73
-70.33
-73.69
-78.21
-77.74
-69.05
-52.77
-32.19
-11.15
7.06
19.73
24.98
22.36
13.45
1.75
-8.05
-12.08
-7.94
4.15
21.68
41.13
59.29
73.86
83.42
87.13
84.38
74.82
58.43
35.97
9.16
-19.41
-46.27
-67.41
-78.86
-77.95
-64.61
-42.36
-17.51
2.69
12.92
11.74
2.16
-10.01
-18.72
-20.36
-15.13
-6.58
-0.25
-1.97
-16.49
-46.54
-91.78
-148.05
-207.39
-259.49
-294.44
-305.81
-292.68
-259.45
-213.54
-162.33
-110.63
-60.02
-9.65
41.93
95.00
147.66
195.86
234.29
258.08
264.36
253.29
228.14
194.09
156.41
119.23
85.10
55.45
31.48
14.45
5.20
3.37
6.86
12.28
16.11
16.10
12.01
5.37
-1.42
-6.35
-8.69
-9.10
-9.10
-10.26
-13.35
-18.10
-23.29
-27.42
-29.33
-28.67
-25.87
-21.95
-17.98
-14.67
-12.12
-10.04
-7.91
-5.40
-2.61
0.03
1.92
2.64
2.12
0.68
-1.02
-2.31
-2.72
-2.12
-0.73
1.05
2.80
4.24
5.29
6.05
6.63
7.13
7.57
7.88
7.89
7.40
6.24
4.32
1.75
-1.13
-3.79
-5.72
-6.49
-5.95
-4.25
-1.69
1.39
4.63
7.71
10.32
12.17
13.00
12.69
11.28
8.99
6.17
3.21
0.49
-1.68
-3.11
-3.73
-3.62
-2.93
-1.81
-0.35
1.46
3.64
6.09
8.50
10.36
11.10
10.27
7.80
4.08
-0.16
-3.97
-6.50
-7.29
-6.51
-5.10
-4.60
-6.90
-13.49
-24.94
-40.51
-58.14
-74.96
-88.12
-95.56
-96.62
-92.10
-83.77
-73.72
-63.56
-54.00
-44.77
-35.08
-24.03
-11.14
3.59
19.73
36.66
53.73
70.24
85.35
98.14
107.70
113.39
115.10
113.27
108.68
102.20
94.57
86.29
77.72
69.18
61.04
53.64
47.24
41.90
37.52
33.85
30.57
27.43
24.19
20.65
16.64
11.95
6.35
-0.33
-8.14
-16.86
-26.05
-35.05
-43.21
-50.01
-55.23
-58.90
-61.05
-61.57
-60.15
-56.42
-50.33
-42.46
-34.09
-26.86
-22.25
-20.99
-22.78
-26.44
-30.33
-32.91
-33.07
-30.36
-24.86
-17.14
-8.21
0.67
8.15
13.19
15.27
14.64
12.11
8.79
5.66
3.40
2.31
2.48
3.87
6.30
9.45
12.82
15.80
17.92
18.95
19.02
18.49
17.81
17.32
17.19
17.33
17.53
17.57
17.24
16.51
15.48
14.31
13.17
12.12
11.09
9.96
8.60
6.98
5.19
3.37
1.69
0.21
-1.05
-2.19
-3.30
-4.51
-5.88
-7.35
-8.81
-10.00
-10.70
-10.67
-9.85
-8.30
-6.20
-3.82
-1.45
0.65
2.29
3.38
3.87
3.82
3.38
2.74
2.14
1.76
1.70
1.94
2.34
2.70
2.82
2.63
2.16
1.54
0.92
0.39
-0.05
-0.45
-0.85
-1.24
-1.57
-1.81
-1.96
-2.08
-2.24
-2.50
-2.80
-3.04
-3.16
-3.15
-3.14
-3.28
-3.65
-4.18
-4.63
-4.68
-4.05
-2.66
-0.67
1.60
3.77
5.56
6.84
7.66
8.12
8.32
8.23
7.77
6.92
5.76
4.47
3.30
2.43
1.88
1.54
1.22
0.82
0.32
-0.19
-0.59
-0.82
-0.88
-0.83
-0.75
-0.74
-0.84
-1.06
-1.39
-1.76
-2.10
-2.37
-2.54
-2.65
-2.77
-2.93
-3.19
-3.53
-3.89
-4.13
-4.11
-3.65
-2.67
-1.23
0.49
2.21
3.65
4.62
5.05
5.03
4.72
4.28
3.79
3.31
2.83
2.35
1.90
1.54
1.32
1.27
1.37
1.53
1.68
1.71
1.57
1.24
0.78
0.26
-0.23
-0.61
-0.86
-0.95
-0.90
-0.77
-0.62
-0.51
-0.54
-0.84
-1.48
-2.49
-3.78
-5.17
-6.38
-7.13
-7.24
-6.63
-5.41
-3.75
-1.95
-0.27
1.10
2.08
2.69
2.97
3.01
2.91
2.75
2.63
2.69
3.03
3.65
4.51
5.50
6.49
7.40
8.21
8.87
9.33
9.48
9.25
8.60
7.59
6.37
5.13
4.02
3.14
2.44
1.78
0.98
-0.13
-1.57
-3.23
-4.85
-6.13
-6.82
-6.82
-6.17
-5.05
-3.66
-2.20
-0.86
0.25
0.97
1.20
0.90
0.18
-0.75
-1.61
-2.23
-2.56
-2.68
-2.75
-2.84
-2.93
-2.93
-2.73
-2.37
-1.92
-1.57
-1.44
-1.55
-1.86
-2.27
-2.72
-3.20
-3.77
-4.50
-5.44
-6.56
-7.79
-8.97
-9.95
-10.57
-10.73
-10.40
-9.64
-8.51
-7.08
-5.41
-3.55
-1.67
0.02
1.27
1.89
1.86
1.34
0.56
-0.16
-0.66
-0.87
-0.87
-0.82
-0.88
-1.07
-1.33
-1.54
-1.59
-1.50
-1.39
-1.43
-1.78
-2.42
-3.19
-3.97
-4.65
-5.31
-6.02
-6.84
-7.65
-8.27
-8.48
-8.23
-7.61
-6.77
-5.85
-4.88
-3.74
-2.33
-0.65
1.16
2.89
4.30
5.26
5.80
5.99
5.92
5.67
5.29
4.82
4.35
4.01
3.95
4.21
4.70
5.29
5.81
6.17
6.39
6.60
6.96
7.46
7.94
8.13
7.73
6.54
4.60
2.17
-0.36
-2.68
-4.58
-6.08
-7.37
-8.62
-9.84
-10.77
-10.82
-9.26
-5.35
1.28
10.39
21.08
31.97
41.60
48.88
53.40
55.46
55.69
54.67
52.46
48.44
41.72
31.81
19.47
6.95
-2.41
-5.25
0.36
13.91
32.40
51.13
65.21
70.87
66.62
53.48
34.57
14.27
-2.79
-12.76
-13.41
-4.74
10.85
29.08
45.08
55.24
58.78
58.20
58.08
62.44
72.06
83.34
89.47
83.79
63.49
31.45
-5.01
-37.75
-61.80
-77.11
-87.44
-97.05
-107.60
-117.23
-122.07
-119.18
-108.83
-94.76
-82.28
-75.53
-75.35
-79.11
-82.33
-81.11
-74.09
-62.85
-51.01
-42.30
-38.93
-40.74
-45.62
-50.66
-53.56
-53.38
-50.59
-46.54
-42.56
-39.40
-37.01
-34.86
-32.43
-29.61
-26.94
-25.39
-25.80
-28.31
-31.96
-34.87
-34.98
-30.96
-22.76
-11.61
0.87
13.56
26.42
40.13
55.25
71.30
86.68
99.22
107.29
110.55
109.98
107.15
103.19
98.15
91.01
80.32
65.14
45.63
23.18
0.10
-21.06
-38.09
-49.62
-55.27
-55.44
-51.01
-42.93
-32.17
-19.82
-7.17
4.24
12.86
17.54
17.96
14.65
8.87
2.15
-4.13
-8.99
-11.94
-12.89
-12.06
-9.85
-6.86
-3.68
-0.85
1.29
2.62
3.23
3.27
2.90
2.22
1.33
0.39
-0.40
-0.85
-0.88
-0.60
-0.31
-0.36
-1.01
-2.28
-3.93
-5.53
-6.64
-6.95
-6.39
-5.12
-3.40
-1.56
0.12
1.41
2.11
2.10
1.37
0.03
-1.67
-3.38
-4.73
-5.46
-5.43
-4.68
-3.34
-1.67
0.05
1.54
2.56
3.05
3.04
2.71
2.28
1.89
1.56
1.24
0.83
0.27
-0.43
-1.21
-1.96
-2.62
-3.14
-3.58
-4.09
-4.81
-5.91
-7.45
-9.33
-11.32
-13.10
-14.29
-14.61
-13.89
-12.18
-9.73
-6.91
-4.16
-1.82
-0.04
1.25
2.27
3.24
4.26
5.25
6.04
6.43
6.33
5.77
4.86
3.72
2.50
1.34
0.38
-0.24
-0.41
-0.11
0.57
1.47
2.35
3.02
3.36
3.31
2.91
2.24
1.40
0.45
-0.56
-1.62
-2.74
-3.92
-5.15
-6.40
-7.68
-9.01
-10.34
-11.60
-12.60
-13.12
-13.04
-12.33
-11.14
-9.69
-8.21
-6.84
-5.60
-4.45
-3.32
-2.21
-1.22
-0.44
0.05
0.30
0.42
0.59
0.92
1.41
1.97
2.49
2.91
3.23
3.51
3.83
4.22
4.65
5.04
5.29
5.30
5.08
4.69
4.27
3.88
3.58
3.26
2.84
2.24
1.55
0.90
0.42
0.10
-0.21
-0.74
-1.63
-2.80
-3.96
-4.71
-4.74
-3.97
-2.57
-0.85
0.94
2.60
4.04
5.20
6.03
6.47
6.49
6.13
5.55
4.91
4.40
4.13
4.16
4.50
5.15
6.07
7.18
8.31
9.28
9.94
10.15
9.92
9.33
8.51
7.61
6.75
5.95
5.15
4.26
3.17
1.85
0.37
-1.16
-2.62
-3.92
-5.05
-6.05
-6.99
-7.91
-8.87
-9.86
-10.85
-11.75
-12.43
-12.71
-12.43
-11.53
-10.10
-8.35
-6.54
-4.92
-3.65
-2.74
-2.12
-1.64
-1.18
-0.73
-0.35
-0.15
-0.17
-0.38
-0.58
-0.59
-0.23
0.51
1.52
2.58
3.47
4.04
4.20
3.90
3.20
2.15
0.87
-0.55
-1.96
-3.27
-4.44
-5.43
-6.24
-6.90
-7.49
-8.07
-8.77
-9.64
-10.64
-11.60
-12.29
-12.52
-12.22
-11.40
-10.15
-8.55
-6.66
-4.54
-2.33
-0.24
1.44
2.52
2.92
2.76
2.26
1.70
1.30
1.19
1.41
1.98
2.84
3.93
5.13
6.27
7.15
7.60
7.45
6.64
5.19
3.26
1.09
-1.03
-2.82
-4.06
-4.61
-4.49
-3.86
-3.00
-2.28
-2.05
-2.51
-3.64
-5.21
-6.78
-7.93
-8.33
-7.85
-6.51
-4.52
-2.16
0.32
2.66
4.66
6.14
6.98
7.14
6.65
5.70
4.57
3.59
3.02
3.01
3.48
4.21
4.91
5.36
5.48
5.38
5.18
4.98
4.73
4.31
3.57
2.47
1.14
-0.21
-1.35
-2.19
-2.75
-3.14
-3.51
-3.96
-4.51
-5.12
-5.71
-6.15
-6.27
-5.88
-4.82
-3.13
-0.92
1.50
3.78
5.64
6.90
7.55
7.82
7.99
8.22
8.63
9.16
9.69
10.16
10.50
10.71
11.17
12.19
13.95
16.38
19.21
21.98
24.26
25.73
26.24
26.55
27.54
29.90
33.94
39.40
45.56
51.58
56.66
60.28
63.45
67.34
73.04
81.15
91.61
103.78
116.82
130.04
143.21
158.19
177.23
202.30
234.35
272.75
315.53
360.08
404.21
436.48
448.03
432.64
388.66
319.88
234.42
142.06
51.54
-30.91
-101.96
-159.19
-202.04
-231.38
-249.12
-257.79
-260.10
-258.49
-254.92
-250.79
-245.74
-238.93
-229.46
-216.93
-201.86
-185.74
-170.54
-157.91
-148.66
-141.87
-135.96
-129.47
-121.71
-112.88
-103.83
-95.43
-88.14
-81.99
-76.44
-71.01
-65.49
-59.89
-54.35
-49.07
-44.11
-39.47
-35.14
-31.03
-27.10
-23.35
-19.85
-16.74
-14.14
-12.03
-10.28
-8.63
-6.85
-4.85
-2.75
-0.84
0.61
1.47
1.89
2.20
2.72
3.75
5.18
6.81
8.37
9.60
10.23
10.10
9.13
7.32
4.86
1.86
-1.44
-4.77
-7.88
-10.58
-12.71
-14.15
-14.90
-15.02
-14.70
-14.13
-13.48
-12.88
-12.32
-11.76
-11.13
-10.39
-9.62
-8.97
-8.55
-8.38
-8.33
-8.22
-7.85
-7.24
-6.51
-5.91
-5.67
-5.84
-6.26
-6.65
-6.71
-6.22
-5.10
-3.47
-1.60
0.14
1.45
2.07
1.94
1.17
-0.01
-1.33
-2.57
-3.59
-4.34
-4.80
-5.00
-5.03
-5.05
-5.20
-5.55
-6.08
-6.63
-7.07
-7.30
-7.40
-7.53
-7.83
-8.35
-8.98
-9.48
-9.66
-9.66
-9.59
-9.58
-9.75
-10.13
-10.70
-11.44
-12.34
-13.43
-14.63
-15.68
-16.19
-15.78
-14.21
-11.50
-7.97
-4.09
-0.39
2.73
5.13
6.82
7.94
8.64
9.02
9.13
9.00
8.61
7.99
7.20
6.36
5.67
5.29
5.30
5.70
6.33
6.98
7.43
7.58
7.39
6.91
6.18
5.23
4.09
2.82
1.51
0.31
-0.64
-1.34
-1.90
-2.49
-3.33
-4.49
-5.92
-7.35
-8.42
-8.78
-8.21
-6.72
-4.53
-2.01
0.51
2.77
4.69
6.22
7.34
7.98
8.08
7.72
7.11
6.54
6.27
6.40
6.84
7.37
7.77
7.93
7.83
7.49
6.96
6.29
5.57
4.96
4.56
4.42
4.40
4.29
3.84
2.93
1.65
0.22
-1.07
-2.10
-2.88
-3.62
-4.51
-5.65
-6.91
-7.96
-8.41
-7.98
-6.61
-4.52
-2.08
0.33
2.41
4.08
5.37
6.36
7.10
7.50
7.52
7.12
6.45
5.72
5.19
5.03
5.25
5.70
6.15
6.39
6.36
6.09
5.71
5.30
4.88
4.39
3.76
2.96
1.99
0.92
-0.18
-1.22
-2.14
-2.90
-3.49
-3.97
-4.43
-4.93
-5.51
-6.14
-6.73
-7.12
-7.14
-6.67
-5.64
-4.10
-2.23
-0.28
1.46
2.82
3.73
4.27
4.55
4.66
4.60
4.34
3.89
3.34
2.86
2.60
2.60
2.81
3.09
3.30
3.33
3.18
2.85
2.40
1.86
1.31
0.78
0.36
0.09
0.01
0.08
0.24
0.39
0.37
0.09
-0.55
-1.55
-2.83
-4.17
-5.35
-6.13
-6.34
-5.95
-5.03
-3.72
-2.16
-0.50
1.19
2.82
4.30
5.52
6.39
6.82
6.84
6.53
6.01
5.42
4.88
4.42
4.09
3.88
3.78
3.77
3.83
3.91
3.96
3.89
3.67
3.27
2.72
2.10
1.46
0.82
0.17
-0.54
-1.31
-2.12
-2.95
-3.77
-4.56
-5.33
-5.98
-6.40
-6.40
-5.86
-4.79
-3.30
-1.57
0.21
1.92
3.48
4.83
5.87
6.48
6.56
6.11
5.27
4.26
3.35
2.77
2.59
2.77
3.14
3.51
3.71
3.68
3.40
2.90
2.24
1.44
0.55
-0.32
-1.06
-1.53
-1.67
-1.56
-1.38
-1.34
-1.57
-2.05
-2.63
-3.14
-3.43
-3.48
-3.29
-2.86
-2.15
-1.11
0.28
1.90
3.54
4.97
5.99
6.53
6.65
6.40
5.87
5.11
4.14
3.07
2.04
1.19
0.64
0.39
0.36
0.41
0.47
0.50
0.53
0.56
0.54
0.36
-0.04
-0.63
-1.29
-1.85
-2.24
-2.51
-2.82
-3.36
-4.17
-5.11
-5.91
-6.29
-6.06
-5.24
-3.94
-2.41
-0.88
0.49
1.62
2.49
3.13
3.58
3.88
4.04
4.08
4.01
3.88
3.72
3.55
3.36
3.15
2.93
2.78
2.77
2.94
3.24
3.49
3.55
3.28
2.70
1.92
1.09
0.31
-0.39
-1.00
-1.58
-2.12
-2.61
-2.98
-3.17
-3.13
-2.81
-2.21
-1.38
-0.35
0.78
1.94
3.06
4.11
5.04
5.83
6.41
6.69
6.61
6.17
5.47
4.70
4.12
3.88
4.04
4.45
4.91
5.24
5.32
5.18
4.90
4.51
4.00
3.33
2.49
1.58
0.73
0.07
-0.38
-0.73
-1.15
-1.78
-2.66
-3.67
-4.62
-5.31
-5.63
-5.55
-5.06
-4.14
-2.83
-1.19
0.65
2.42
3.86
4.79
5.16
5.08
4.75
4.34
3.91
3.43
2.85
2.14
1.38
0.73
0.37
0.40
0.84
1.53
2.26
2.80
2.99
2.77
2.19
1.35
0.34
-0.73
-1.75
-2.59
-3.18
-3.49
-3.59
-3.66
-3.90
-4.39
-5.14
-5.98
-6.67
-6.96
-6.70
-5.87
-4.58
-3.00
-1.37
0.08
1.15
1.72
1.82
1.55
1.13
0.73
0.50
0.49
0.68
0.98
1.24
1.37
1.32
1.11
0.81
0.51
0.31
0.18
0.09
-0.07
-0.40
-0.88
-1.43
-1.90
-2.17
-2.20
-2.05
-1.87
-1.83
-2.04
-2.53
-3.21
-3.94
-4.56
-4.94
-4.98
-4.66
-3.96
-2.95
-1.70
-0.31
1.11
2.44
3.58
4.48
5.10
5.41
5.43
5.14
4.54
3.66
2.59
1.44
0.36
-0.54
-1.21
-1.65
-1.90
-1.98
-1.90
-1.67
-1.34
-0.99
-0.79
-0.87
-1.29
-1.99
-2.80
-3.51
-3.95
-4.08
-4.00
-3.96
-4.14
-4.64
-5.34
-5.98
-6.28
-6.03
-5.23
-4.03
-2.65
-1.29
-0.05
1.07
2.12
3.11
4.01
4.73
5.17
5.25
4.93
4.22
3.23
2.15
1.20
0.54
0.26
0.30
0.55
0.87
1.14
1.31
1.34
1.20
0.86
0.31
-0.41
-1.23
-2.03
-2.74
-3.35
-3.90
-4.45
-4.99
-5.48
-5.75
-5.69
-5.23
-4.46
-3.53
-2.63
-1.90
-1.37
-0.95
-0.53
0.04
0.84
1.85
2.98
4.06
4.94
5.55
5.91
6.11
6.24
6.32
6.32
6.13
5.75
5.18
4.52
3.83
3.16
2.50
1.85
1.26
0.79
0.47
0.24
-0.02
-0.47
-1.21
-2.25
-3.48
-4.73
-5.82
-6.55
-6.80
-6.50
-5.71
-4.56
-3.24
-1.93
-0.73
0.32
1.22
2.01
2.69
3.26
3.67
3.90
3.94
3.82
3.57
3.27
3.00
2.78
2.57
2.28
1.80
1.05
0.10
-0.94
-1.85
-2.49
-2.82
-2.93
-3.00
-3.20
-3.63
-4.26
-4.95
-5.54
-5.91
-6.03
-6.03
-6.06
-6.28
-6.70
-7.14
-7.34
-7.06
-6.21
-4.92
-3.46
-2.11
-1.02
-0.19
0.48
1.08
1.60
1.94
1.97
1.65
1.09
0.45
-0.09
-0.45
-0.63
-0.71
-0.74
-0.74
-0.68
-0.54
-0.31
-0.05
0.16
0.24
0.12
-0.18
-0.66
-1.25
-1.89
-2.51
-3.08
-3.57
-3.97
-4.25
-4.38
-4.27
-3.79
-2.91
-1.69
-0.31
1.00
2.02
2.63
2.82
2.63
2.15
1.46
0.69
-0.00
-0.46
-0.56
-0.32
0.13
0.54
0.67
0.43
-0.16
-0.86
-1.48
-1.83
-1.91
-1.87
-1.93
-2.29
-3.03
-4.11
-5.38
-6.66
-7.73
-8.39
-8.46
-7.82
-6.46
-4.56
-2.40
-0.31
1.45
2.77
3.64
4.14
4.32
4.19
3.78
3.10
2.28
1.48
0.83
0.46
0.42
0.72
1.30
2.08
2.91
3.62
4.02
3.99
3.50
2.65
1.61
0.55
-0.33
-0.95
-1.29
-1.38
-1.26
-0.97
-0.49
0.18
1.02
1.95
2.85
3.56
3.98
4.05
3.82
3.38
2.85
2.29
1.77
1.30
0.87
0.49
0.22
0.12
0.28
0.67
1.24
1.80
2.15
2.12
1.63
0.73
-0.40
-1.60
-2.70
-3.64
-4.39
-4.96
-5.35
-5.53
-5.46
-5.12
-4.52
-3.71
-2.75
-1.67
-0.51
0.77
2.14
3.56
4.93
6.13
7.09
7.75
8.07
8.04
7.64
6.87
5.82
4.70
3.78
3.31
3.35
3.75
4.17
4.28
3.86
2.93
1.72
0.52
-0.44
-1.10
-1.56
-1.99
-2.52
-3.21
-3.97
-4.65
-5.11
-5.26
-5.02
-4.42
-3.43
-2.08
-0.42
1.43
3.30
5.03
6.45
7.47
8.04
8.15
7.82
7.10
6.16
5.22
4.53
4.29
4.52
5.07
5.67
6.04
6.05
5.72
5.17
4.53
3.82
3.00
2.01
0.80
-0.55
-1.94
-3.23
-4.40
-5.46
-6.44
-7.28
-7.86
-7.98
-7.51
-6.40
-4.75
-2.76
-0.64
1.43
3.28
4.79
5.83
6.33
6.29
5.82
5.08
4.28
3.58
3.08
2.85
2.88
3.15
3.57
4.00
4.26
4.19
3.69
2.79
1.60
0.28
-1.02
-2.24
-3.36
-4.38
-5.26
-5.94
-6.38
-6.61
-6.72
-6.88
-7.16
-7.52
-7.83
-7.87
-7.47
-6.57
-5.23
-3.60
-1.87
-0.20
1.27
2.47
3.37
3.95
4.29
4.46
4.58
4.73
4.93
5.16
5.35
5.43
5.36
5.11
4.71
4.19
3.59
2.96
2.30
1.64
0.98
0.36
-0.23
-0.79
-1.36
-2.00
-2.73
-3.58
-4.51
-5.47
-6.40
-7.30
-8.13
-8.91
-9.56
-10.02
-10.19
-10.04
-9.58
-8.90
-8.06
-7.04
-5.77
-4.14
-2.17
0.03
2.18
4.03
5.31
5.95
6.02
5.69
5.18
4.68
4.28
4.02
3.84
3.69
3.53
3.37
3.25
3.17
3.13
3.08
2.95
2.68
2.27
1.75
1.20
0.65
0.10
-0.50
-1.21
-2.05
-2.95
-3.77
-4.41
-4.84
-5.15
-5.46
-5.89
-6.41
-6.87
-7.09
-6.94
-6.41
-5.63
-4.77
-3.91
-3.06
-2.08
-0.91
0.44
1.84
3.10
4.06
4.69
5.08
5.34
5.54
5.64
5.53
5.10
4.36
3.46
2.67
2.23
2.25
2.68
3.32
3.90
4.20
4.09
3.57
2.76
1.81
0.92
0.22
-0.25
-0.56
-0.84
-1.28
-1.92
-2.73
-3.60
-4.40
-5.04
-5.56
-6.05
-6.60
-7.20
-7.74
-8.04
-7.87
-7.12
-5.81
-4.07
-2.15
-0.30
1.30
2.56
3.50
4.17
4.62
4.89
4.99
4.91
4.71
4.41
4.07
3.71
3.34
2.99
2.67
2.41
2.20
1.97
1.67
1.21
0.57
-0.19
-0.93
-1.48
-1.73
-1.65
-1.34
-1.02
-0.91
-1.20
-1.93
-3.04
-4.35
-5.62
-6.60
-7.16
-7.24
-6.94
-6.36
-5.62
-4.73
-3.64
-2.33
-0.83
0.70
2.03
2.96
3.37
3.33
3.00
2.57
2.12
1.64
1.06
0.36
-0.38
-0.99
-1.26
-1.12
-0.60
0.12
0.83
1.37
1.68
1.75
1.61
1.24
0.59
-0.41
-1.72
-3.23
-4.70
-5.86
-6.46
-6.38
-5.62
-4.40
-3.07
-2.02
-1.53
-1.74
-2.54
-3.66
-4.77
-5.51
-5.66
-5.10
-3.89
-2.16
-0.16
1.83
3.54
4.78
5.52
5.83
5.89
5.88
5.91
6.02
6.19
6.35
6.37
6.15
5.59
4.66
3.40
1.96
0.54
-0.71
-1.70
-2.47
-3.06
-3.53
-3.85
-3.93
-3.71
-3.22
-2.63
-2.21
-2.18
-2.71
-3.72
-5.02
-6.23
-7.00
-7.07
-6.40
-5.13
-3.57
-1.98
-0.57
0.63
1.66
2.56
3.32
3.88
4.18
4.20
3.99
3.65
3.26
2.86
2.45
2.12
1.94
2.07
2.54
3.25
3.96
4.39
4.32
3.71
2.69
1.52
0.44
-0.43
-1.09
-1.65
-2.26
-2.99
-3.89
-4.87
-5.83
-6.59
-7.00
-6.86
-6.07
-4.60
-2.51
-0.01
2.59
4.96
6.76
7.78
7.93
7.33
6.19
4.80
3.44
2.25
1.28
0.52
-0.06
-0.45
-0.60
-0.47
-0.11
0.32
0.59
0.53
0.05
-0.76
-1.66
-2.45
-2.99
-3.32
-3.54
-3.76
-4.02
-4.25
-4.38
-4.37
-4.28
-4.17
-4.02
-3.75
-3.21
-2.33
-1.18
0.00
0.99
1.63
1.95
2.09
2.18
2.29
2.40
2.44
2.39
2.29
2.25
2.34
2.53
2.71
2.70
2.36
1.63
0.62
-0.45
-1.26
-1.54
-1.16
-0.25
0.88
1.77
2.05
1.58
0.47
-0.96
-2.32
-3.35
-3.92
-4.01
-3.66
-2.87
-1.63
0.01
1.85
3.64
5.06
5.91
6.18
6.00
5.59
5.12
4.64
4.16
3.63
3.10
2.61
2.22
1.94
1.74
1.54
1.31
1.04
0.72
0.32
-0.23
-0.96
-1.87
-2.87
-3.84
-4.71
-5.46
-6.13
-6.69
-7.05
-7.05
-6.57
-5.60
-4.31
-2.97
-1.85
-1.10
-0.72
-0.56
-0.38
0.10
1.12
2.76
4.95
7.37
9.55
10.99
11.37
10.68
9.21
7.45
5.87
4.71
3.95
3.35
2.67
1.71
0.46
-0.91
-2.20
-3.24
-3.95
-4.42
-4.83
-5.38
-6.26
-7.52
-9.18
-11.22
-13.62
-16.30
-19.13
-21.85
-24.17
-25.91
-27.07
-27.89
-28.63
-29.23
-29.14
-27.27
-22.45
-13.94
-1.90
12.55
27.68
41.68
53.08
60.96
64.84
64.59
60.40
52.88
43.17
32.81
23.42
16.16
11.39
8.64
6.95
5.31
3.13
0.33
-2.83
-5.99
-8.90
-11.50
-13.76
-15.57
-16.68
-16.77
-15.65
-13.40
-10.37
-7.12
-4.14
-1.76
-0.07
1.03
1.73
2.18
2.48
2.66
2.72
2.65
2.47
2.24
2.00
1.73
1.33
0.65
-0.49
-2.20
-4.50
-7.24
-10.21
-13.11
-15.65
-17.57
-18.70
-18.92
-18.24
-16.76
-14.69
-12.30
-9.80
-7.34
-5.01
-2.86
-0.94
0.67
1.90
2.72
3.16
3.25
3.04
2.56
1.86
1.01
0.13
-0.62
-1.15
-1.44
-1.60
-1.71
-1.84
-1.95
-1.95
-1.81
-1.54
-1.24
-1.01
-0.89
-0.81
-0.68
-0.44
-0.10
0.27
0.59
0.85
1.10
1.42
1.86
2.40
2.95
3.39
3.58
3.42
2.82
1.81
0.45
-1.07
-2.57
-3.89
-4.96
-5.73
-6.20
-6.38
-6.24
-5.76
-4.95
-3.85
-2.54
-1.11
0.31
1.59
2.55
3.05
2.99
2.38
1.36
0.07
-1.31
-2.61
-3.67
-4.40
-4.77
-4.83
-4.74
-4.65
-4.69
-4.80
-4.79
-4.42
-3.47
-1.92
0.04
2.11
3.94
5.31
6.14
6.47
6.40
6.00
5.33
4.41
3.32
2.16
1.12
0.35
-0.04
0.03
0.50
1.29
2.24
3.20
3.97
4.45
4.57
4.36
3.92
3.36
2.76
2.20
1.69
1.20
0.73
0.22
-0.33
-0.87
-1.35
-1.67
-1.74
-1.48
-0.87
0.08
1.30
2.69
4.11
5.37
6.29
6.74
6.69
6.22
5.49
4.66
3.80
2.95
2.12
1.33
0.63
0.08
-0.30
-0.58
-0.84
-1.17
-1.59
-2.01
-2.26
-2.21
-1.78
-1.02
-0.11
0.75
1.38
1.70
1.75
1.63
1.48
1.43
1.58
1.94
2.44
2.99
3.49
3.85
4.03
4.07
4.02
3.94
3.86
3.78
3.63
3.35
2.89
2.22
1.35
0.34
-0.73
-1.73
-2.58
-3.21
-3.60
-3.77
-3.75
-3.59
-3.30
-2.93
-2.53
-2.16
-1.85
-1.62
-1.46
-1.36
-1.26
-1.12
-0.87
-0.51
-0.09
0.19
0.12
-0.50
-1.69
-3.25
-4.82
-5.97
-6.47
-6.31
-5.74
-5.13
-4.78
-4.81
-5.15
-5.60
-5.94
-6.04
-5.82
-5.28
-4.40
-3.19
-1.67
0.12
2.01
3.85
5.42
6.55
7.14
7.13
6.51
5.34
3.76
1.99
0.29
-1.03
-1.76
-1.83
-1.37
-0.64
0.01
0.28
0.03
-0.68
-1.60
-2.42
-2.89
-2.88
-2.47
-1.86
-1.24
-0.77
-0.49
-0.40
-0.48
-0.73
-1.20
-1.92
-2.84
-3.84
-4.67
-5.04
-4.69
-3.50
-1.54
0.96
3.61
6.01
7.85
8.94
9.23
8.72
7.50
5.71
3.55
1.33
-0.65
-2.12
-3.02
-3.46
-3.68
-3.93
-4.32
-4.76
-5.08
-5.06
-4.59
-3.72
-2.63
-1.54
-0.64
0.01
0.46
0.81
1.15
1.52
1.87
2.07
2.01
1.62
0.95
0.13
-0.72
-1.51
-2.27
-3.09
-4.01
-4.94
-5.62
-5.67
-4.82
-2.97
-0.34
2.66
5.54
7.90
9.44
10.02
9.62
8.33
6.31
3.77
0.99
-1.76
-4.26
-6.34
-7.86
-8.78
-9.13
-9.04
-8.71
-8.35
-8.05
-7.74
-7.15
-6.02
-4.11
-1.43
1.82
5.21
8.26
10.57
11.90
12.25
11.83
10.94
9.91
8.97
8.23
7.72
7.38
7.13
6.83
6.33
5.49
4.18
2.40
0.29
-1.91
-3.89
-5.42
-6.46
-7.15
-7.73
-8.42
-9.21
-9.88
-10.02
-9.29
-7.55
-5.00
-2.09
0.55
2.40
3.09
2.54
0.88
-1.51
-4.16
-6.47
-7.88
-7.96
-6.58
-3.95
-0.59
2.76
5.42
6.89
7.00
5.90
3.90
1.39
-1.23
-3.65
-5.63
-6.96
-7.54
-7.38
-6.64
-5.66
-4.85
-4.53
-4.80
-5.47
-6.12
-6.24
-5.42
-3.62
-1.23
1.01
2.32
2.20
0.50
-2.43
-5.95
-9.32
-11.91
-13.43
-13.94
-13.51
-12.30
-10.68
-9.18
-8.26
-8.03
-8.17
-8.09
-7.24
-5.21
-2.31
0.20
0.47
-3.03
-10.55
-20.65
-30.49
-36.73
-36.16
-26.93
-9.42
13.88
39.27
63.05
82.32
95.15
98.17
89.02
68.55
41.28
13.31
-10.14
-25.93
-32.99
-32.25
-26.26
-17.73
-8.80
-0.91
5.39
10.16
13.59
15.98
17.38
17.72
17.28
16.58
15.64
14.05
11.30
6.74
0.46
-7.19
-15.78
-24.75
-33.35
-41.26
-48.21
-52.83
-55.34
-56.12
-55.66
-54.13
-51.91
-47.03
-38.27
-25.57
-10.22
5.31
18.62
27.84
32.32
32.63
30.30
26.92
24.02
22.78
23.51
26.11
29.52
32.39
33.97
34.78
35.89
38.36
42.31
46.53
49.07
48.14
43.12
34.78
24.97
15.50
7.62
1.73
-2.51
-5.76
-8.45
-10.37
-11.02
-9.35
-5.13
0.82
6.87
11.19
12.19
9.41
3.85
-2.62
-8.08
-11.42
-12.67
-12.53
-11.78
-11.39
-11.75
-12.45
-12.55
-11.10
-7.65
-2.66
2.88
7.69
10.05
8.80
3.92
-3.82
-13.79
-24.26
-34.87
-45.89
-53.57
-55.80
-52.93
-46.98
-39.84
-32.54
-25.64
-19.91
-16.03
-14.25
-14.88
-17.63
-21.29
-24.13
-24.43
-21.09
-14.00
-3.90
6.88
16.85
24.32
28.32
28.96
27.27
24.72
22.58
21.71
22.32
23.79
25.13
25.78
25.77
25.48
25.32
25.39
25.41
25.73
26.31
27.10
28.41
30.72
34.49
39.77
46.15
52.92
59.31
64.64
68.52
70.86
71.83
71.61
70.33
68.03
64.76
60.60
55.71
50.35
44.89
39.73
35.14
31.21
27.85
24.93
22.38
20.26
18.72
17.88
17.64
17.67
17.36
16.10
13.38
8.94
2.73
-5.05
-14.03
-23.57
-32.94
-41.39
-48.37
-53.75
-57.76
-60.87
-63.52
-65.95
-68.10
-69.76
-70.69
-70.79
-70.06
-68.61
-66.60
-64.22
-61.70
-59.38
-57.63
-56.69
-56.66
-57.48
-58.93
-60.78
-62.75
-64.62
-66.13
-67.19
-67.76
-68.02
-68.22
-68.57
-69.09
-69.58
-69.63
-68.64
-65.85
-60.43
-51.72
-39.52
-24.42
-7.83
8.32
22.17
32.51
39.07
42.37
43.26
42.44
40.25
36.79
32.24
27.11
22.23
18.51
16.60
16.65
18.29
20.88
23.75
26.58
29.39
32.51
36.29
40.85
46.08
51.61
56.99
61.72
65.36
67.46
67.70
65.99
62.67
58.53
54.59
51.79
50.74
51.60
54.14
57.97
62.58
67.31
71.23
73.13
71.80
66.37
56.74
43.71
28.73
13.51
-0.57
-12.63
-22.38
-29.83
-35.09
-38.16
-39.06
-37.99
-35.49
-32.45
-29.95
-28.91
-29.82
-32.44
-35.86
-38.72
-39.74
-38.17
-34.08
-28.26
-21.91
-16.20
-11.99
-9.71
-9.46
-11.09
-14.12
-17.76
-20.76
-21.62
-18.86
-11.42
0.93
17.49
36.71
56.69
75.69
92.36
105.83
115.59
121.46
123.38
121.43
115.76
106.85
95.66
83.51
71.86
61.91
54.36
49.16
45.56
42.18
37.85
32.10
25.19
17.83
10.83
4.75
-0.54
-5.90
-13.68
-26.23
-45.18
-71.27
-104.10
-141.92
-181.37
-218.22
-248.26
-270.19
-283.85
-290.03
-290.65
-288.68
-287.20
-287.97
-291.33
-295.64
-300.50
-303.46
-300.66
-288.92
-268.04
-241.23
-213.34
-189.73
-173.87
-169.62
-175.61
-185.23
-189.75
-182.40
-160.81
-126.84
-86.50
-25.41
54.91
140.46
214.61
269.25
305.13
323.02
328.83
326.42
319.43
308.33
294.88
282.79
274.64
270.52
268.47
266.24
262.43
257.87
252.12
246.10
241.74
239.63
238.01
233.09
220.11
196.08
161.44
117.49
67.22
15.01
-35.69
-82.70
-124.97
-163.32
-197.24
-224.35
-242.98
-253.32
-256.84
-257.41
-259.11
-264.58
-275.90
-290.44
-301.18
-300.77
-285.81
-257.23
-221.57
-187.85
-149.70
-110.80
-79.13
-57.66
-39.53
-20.66
8.35
50.30
102.68
160.71
216.92
263.50
296.19
314.47
318.51
309.66
288.80
257.97
220.53
178.84
136.67
95.01
59.23
33.70
19.36
12.31
8.03
3.97
-1.30
-6.93
-10.71
-10.51
-6.91
-1.98
1.37
1.51
-1.53
-6.92
-12.74
-16.57
-16.44
-12.64
-7.10
-2.55
-0.96
-2.84
-7.41
-12.75
-16.55
-16.93
-13.92
-9.24
-5.56
-5.57
-11.12
-22.90
-39.87
-58.45
-73.29
-78.67
-70.40
-47.51
-13.25
25.30
59.06
79.92
83.34
69.94
44.98
16.30
-8.57
-25.01
-32.44
-33.64
-32.51
-31.88
-32.24
-31.99
-28.89
-21.83
-11.75
-1.11
7.45
12.71
15.19
16.63
19.18
24.30
32.41
43.22
56.38
70.73
86.07
102.18
118.34
133.23
145.17
152.59
154.56
151.09
142.88
130.94
115.98
98.20
77.73
55.04
31.44
9.11
-9.66
-23.51
-32.77
-39.63
-47.10
-57.51
-71.17
-86.06
-98.54
-105.27
-104.95
-99.09
-91.39
-85.63
-83.90
-85.60
-88.07
-88.25
-84.70
-78.39
-72.39
-69.61
-70.58
-73.07
-73.49
-69.05
-58.83
-44.72
-29.70
-17.20
-8.86
-3.67
0.64
5.83
12.23
20.01
28.30
36.85
44.16
49.08
51.72
52.74
52.71
51.60
50.31
48.16
44.91
38.44
27.45
12.86
-4.00
-22.83
-45.87
-75.36
-115.33
-151.79
-172.18
-174.05
-163.56
-146.47
-124.21
-107.00
-90.71
-74.56
-59.77
-50.76
-51.64
-58.02
-66.45
-72.86
-74.62
-69.74
-60.34
-49.21
-39.71
-32.46
-24.16
-10.45
11.66
41.13
74.30
104.21
124.92
132.92
128.78
116.75
101.77
87.52
74.94
63.79
52.50
40.74
29.33
20.00
14.37
12.45
12.87
13.46
13.08
11.64
10.46
10.98
13.63
17.32
19.62
18.22
12.08
2.17
-9.15
-18.94
-24.82
-25.65
-21.50
-13.37
-2.77
8.56
18.71
25.77
28.38
26.32
20.73
13.88
8.35
5.99
7.20
10.86
14.81
16.89
15.68
10.91
3.43
-5.14
-12.78
-17.37
-17.02
-10.58
1.82
18.45
36.11
50.99
59.95
61.65
57.05
48.88
40.34
33.88
30.28
28.67
27.10
23.40
15.85
3.65
-12.90
-32.30
-52.05
-69.18
-81.01
-86.01
-84.27
-77.38
-67.71
-57.48
-48.11
-40.15
-33.52
-27.93
-22.99
-18.10
-12.45
-5.18
3.99
14.37
24.23
31.45
34.49
33.25
29.13
24.42
21.23
20.64
22.33
25.18
27.85
29.59
30.26
30.22
29.97
29.82
29.89
30.02
29.83
28.72
26.08
21.46
14.92
7.05
-1.14
-8.73
-15.25
-20.81
-25.96
-31.13
-36.35
-41.07
-44.38
-45.46
-43.83
-39.48
-32.85
-24.60
-15.46
-6.13
2.76
10.72
17.43
22.82
27.13
30.76
34.24
37.96
42.10
46.47
50.58
53.76
55.44
55.38
53.83
51.51
49.35
48.15
48.33
49.93
52.58
55.75
58.73
60.85
61.58
60.67
58.30
55.05
51.74
49.04
47.14
45.60
43.54
40.14
35.10
28.94
22.80
18.03
15.46
15.05
15.71
15.65
13.04
6.65
-3.65
-16.81
-31.00
-44.22
-55.00
-62.63
-67.29
-69.62
-70.28
-69.62
-67.65
-64.24
-59.44
-53.72
-47.95
-43.15
-40.14
-39.36
-40.79
-44.10
-48.59
-53.30
-57.10
-59.02
-58.63
-56.15
-52.42
-48.11
-43.18
-36.69
-27.32
-14.15
2.64
21.65
40.89
58.48
73.23
84.57
92.21
95.83
95.16
90.27
81.68
69.97
55.48
37.87
16.53
-8.58
-36.06
-62.82
-84.82
-98.63
-102.81
-98.65
-89.66
-80.02
-72.89
-69.21
-67.82
-66.56
-63.69
-59.04
-54.05
-50.91
-51.35
-55.59
-62.22
-68.89
-73.26
-74.02
-71.07
-65.26
-57.72
-49.24
-40.08
-30.10
-19.31
-8.21
2.09
10.22
15.05
16.17
13.94
9.28
3.20
-3.59
-10.78
-18.26
-25.74
-32.60
-37.75
-39.87
-37.77
-30.70
-18.69
-2.68
15.54
33.72
49.77
62.39
71.59
78.53
85.00
92.31
100.61
108.56
113.90
114.41
108.90
97.69
82.46
65.72
49.90
36.78
27.36
21.98
20.48
22.42
27.23
34.24
42.96
52.72
62.58
71.24
77.08
78.50
74.45
64.88
51.10
35.73
21.75
11.71
7.28
9.13
16.87
29.13
43.86
58.69
72.04
82.55
89.24
92.18
92.63
92.51
93.38
95.80
99.12
103.19
106.81
107.91
105.07
98.46
89.52
80.04
71.52
64.97
62.93
65.91
71.64
76.85
79.20
77.64
72.06
63.16
52.33
43.86
39.96
39.25
38.89
36.83
31.94
23.64
11.72
-20.30
-72.36
-128.66
-172.67
-198.81
-210.05
-211.93
-209.38
-205.76
-202.72
-198.44
-191.23
-182.23
-173.57
-166.49
-161.39
-158.57
-158.17
-160.01
-161.43
-159.64
-154.64
-147.06
-136.67
-122.68
-104.73
-83.78
-62.20
-41.93
-25.49
-15.21
-11.02
-9.91
-7.45
-0.28
12.39
28.56
45.25
58.81
65.74
63.87
52.81
33.77
9.24
-17.29
-41.95
-61.08
-72.48
-76.38
-74.89
-71.07
-68.01
-67.90
-71.41
-77.40
-83.06
-84.80
-79.63
-66.34
-46.18
-22.37
1.29
22.20
39.98
56.31
73.51
92.88
113.76
133.77
150.01
160.52
165.20
165.75
164.97
165.74
170.28
179.89
194.79
213.80
234.32
252.30
262.92
261.70
245.74
214.09
167.42
107.74
38.23
-36.19
-108.34
-169.24
-209.88
-223.72
-208.59
-167.23
-105.91
-33.12
41.73
109.31
161.14
190.84
195.94
178.87
146.77
109.48
75.32
47.93
26.14
5.95
-16.30
-41.70
-68.57
-93.40
-112.07
-122.49
-125.48
-123.59
-119.81
-116.34
-113.94
-112.53
-111.39
-109.03
-105.30
-102.15
-102.19
-107.42
-117.87
-127.86
-130.33
-125.32
-112.90
-92.30
-66.66
-40.70
-18.89
-4.19
2.47
1.29
-6.61
-18.66
-32.29
-45.51
-56.18
-62.27
-62.27
-55.58
-43.18
-27.07
-8.98
9.34
26.14
40.35
51.58
59.80
65.17
67.60
66.99
63.82
58.66
51.91
44.18
36.27
29.03
23.30
19.64
18.23
19.09
21.68
24.93
27.60
28.58
27.08
22.82
15.96
7.03
-3.03
-13.22
-22.59
-30.35
-36.00
-39.35
-40.42
-39.29
-36.05
-30.77
-23.69
-15.34
-6.60
1.48
7.99
12.43
14.88
15.95
16.63
17.97
20.75
25.22
30.90
36.70
41.23
43.30
42.39
38.84
33.61
27.90
22.55
17.83
13.37
8.50
2.52
-4.90
-13.61
-22.89
-31.52
-38.05
-41.24
-40.70
-37.21
-32.61
-28.92
-27.22
-26.70
-24.60
-17.20
-1.54
23.17
54.86
89.15
120.81
145.33
160.11
164.71
160.42
149.51
134.40
117.18
99.27
81.30
63.13
44.15
23.63
1.27
-22.51
-46.52
-68.99
-88.06
-102.14
-110.34
-112.60
-109.64
-102.87
-93.90
-84.30
-75.28
-67.59
-61.54
-57.01
-53.60
-50.80
-48.16
-45.18
-41.40
-36.46
-30.18
-22.61
-13.94
-4.38
5.78
15.98
25.74
34.60
42.21
48.29
52.66
55.51
57.32
58.51
58.86
58.11
56.08
52.51
47.12
39.58
30.13
19.74
9.57
-0.06
-8.29
-13.79
-15.70
-14.12
-10.75
-7.47
-5.75
-6.80
-12.19
-21.30
-31.17
-38.56
-41.38
-40.45
-37.69
-35.23
-35.46
-41.45
-53.30
-67.83
-80.90
-89.03
-91.39
-88.08
-80.25
-59.12
-28.02
-1.46
7.92
-5.12
-29.97
-57.13
-81.31
-94.78
-96.65
-92.05
-86.52
-82.79
-80.90
-79.10
-76.32
-71.22
-62.56
-50.78
-38.36
-27.33
-18.59
-12.95
-11.19
-14.67
-23.36
-35.71
-50.19
-66.07
-82.18
-96.64
-107.77
-114.75
-118.60
-121.12
-123.88
-127.92
-132.77
-135.88
-133.66
-123.50
-105.29
-81.70
-56.38
-32.02
-9.36
13.08
38.36
69.57
108.24
153.41
201.54
247.47
285.73
311.75
323.23
320.66
306.92
286.30
263.09
240.56
220.37
202.73
186.69
170.82
153.70
134.49
113.32
91.21
69.71
50.19
33.27
18.78
6.09
-5.33
-15.57
-24.37
-31.44
-36.86
-41.03
-44.41
-47.09
-48.63
-48.34
-45.81
-41.32
-35.87
-30.83
-27.26
-25.52
-25.16
-25.29
-25.10
-24.37
-23.50
-23.24
-24.23
-26.53
-29.54
-32.17
-33.31
-32.27
-28.95
-23.85
-17.70
-11.21
-4.88
0.99
6.14
10.23
12.95
14.22
14.39
14.30
14.91
16.90
20.22
24.06
27.15
28.41
27.39
24.49
20.69
16.98
13.94
11.48
9.08
6.12
2.19
-2.83
-8.77
-15.24
-21.67
-27.27
-31.11
-32.44
-31.00
-27.23
-22.10
-16.68
-11.64
-7.05
-2.54
2.13
6.76
10.73
13.40
14.71
15.32
16.23
18.12
20.77
23.07
23.60
21.52
17.08
11.51
6.38
2.73
0.52
-1.25
-4.02
-9.00
-16.65
-26.58
-37.75
-48.64
-57.48
-62.49
-62.10
-55.39
-42.65
-25.43
-6.44
11.28
25.04
33.09
34.80
30.56
21.53
9.44
-3.70
-15.93
-25.67
-31.89
-34.00
-31.74
-25.00
-13.89
1.03
18.67
37.47
55.85
72.61
87.15
99.09
107.71
111.62
108.83
97.57
77.08
48.34
13.98
-22.26
-56.52
-85.69
-107.94
-122.77
-130.64
-132.44
-128.97
-120.91
-108.90
-93.96
-77.60
-61.76
-48.45
-39.13
-34.38
-33.71
-35.74
-38.58
-40.33
-39.56
-35.78
-29.59
-22.58
-16.81
-14.11
-15.35
-20.05
-26.45
-32.10
-34.60
-32.30
-24.59
-11.80
5.08
24.61
45.03
64.25
80.05
90.56
94.75
92.85
86.33
77.37
68.17
60.31
54.44
50.50
48.04
46.70
46.46
47.59
50.62
55.89
63.23
71.60
79.05
83.11
81.55
73.31
59.11
41.37
23.51
8.81
-0.65
-4.52
-4.08
-1.49
1.03
2.11
1.37
-0.69
-3.23
-5.56
-7.46
-9.14
-11.08
-13.95
-18.46
-25.12
-33.75
-43.02
-50.48
-53.46
-50.54
-42.95
-34.84
-31.68
-37.88
-54.40
-78.11
-103.13
-123.49
-135.56
-138.87
-135.40
-127.72
-117.65
-105.84
-92.47
-77.95
-63.18
-49.11
-36.18
-24.07
-12.07
0.10
11.66
20.72
25.04
23.14
15.34
4.12
-6.52
-12.34
-10.38
0.01
16.95
36.73
55.13
68.69
75.44
75.04
68.25
56.39
40.88
22.92
3.53
-16.23
-34.93
-50.55
-60.44
-62.12
-54.44
-38.49
-17.81
2.43
17.21
23.38
20.60
11.17
-1.28
-13.03
-21.15
-23.61
-19.32
-8.19
8.52
27.96
46.14
58.94
63.62
59.73
48.97
34.35
18.80
4.24
-8.65
-19.87
-29.50
-37.15
-42.02
-43.41
-41.06
-35.35
-27.30
-18.27
-9.56
-2.12
3.55
7.58
10.54
13.27
16.53
20.78
26.13
32.41
39.29
46.33
52.97
58.66
62.86
65.25
65.91
65.48
65.22
66.70
71.32
79.77
91.70
105.72
120.03
133.14
144.40
153.92
161.77
167.32
168.81
163.86
150.46
127.85
96.49
57.33
11.33
-40.09
-93.69
-143.38
-180.89
-198.28
-191.38
-162.07
-117.82
-68.71
-23.60
12.51
38.52
55.40
64.03
64.32
56.02
40.12
19.60
-1.28
-18.80
-31.39
-39.90
-46.58
-53.70
-62.22
-71.61
-80.31
-86.78
-90.21
-90.78
-89.51
-87.79
-86.86
-87.56
-90.48
-96.05
-104.70
-116.68
-131.66
-148.37
-164.48
-177.05
-183.25
-181.47
-172.00
-156.93
-139.02
-120.21
-100.46
-77.93
-50.37
-17.06
19.99
56.47
87.64
110.37
124.53
132.85
139.36
147.27
157.52
168.73
178.40
184.77
187.58
188.05
188.23
189.96
193.82
198.58
201.49
199.11
189.04
169.96
141.84
106.46
67.47
29.47
-3.39
-28.73
-46.50
-57.68
-64.81
-71.09
-78.56
-86.77
-93.66
-97.63
-99.05
-100.29
-102.99
-109.34
-121.97
-142.21
-168.29
-195.33
-216.44
-223.99
-211.20
-171.70
-105.17
-19.61
71.15
152.57
213.47
248.17
256.95
230.68
173.49
104.52
44.67
2.94
-22.44
-36.46
-42.93
-44.10
-41.84
-36.09
-28.24
-21.54
-18.90
-20.43
-23.87
-26.74
-27.77
-27.18
-24.23
-19.12
-13.50
-9.34
-7.38
-7.03
-7.16
-6.65
-4.73
-0.19
6.59
13.46
17.70
17.97
14.97
10.36
5.92
2.62
0.91
0.02
-1.33
-4.15
-8.30
-12.80
-16.42
-18.41
-18.72
-17.31
-15.14
-13.04
-11.29
-9.86
-8.72
-8.32
-9.76
-14.31
-22.60
-33.76
-45.24
-53.66
-55.78
-49.85
-36.21
-17.45
2.28
18.61
28.23
30.16
25.56
17.45
9.71
6.02
8.00
14.96
24.81
35.39
45.13
53.35
59.79
64.21
66.95
67.43
65.04
59.56
51.36
40.50
26.58
8.69
-13.75
-39.13
-65.46
-89.56
-106.76
-111.28
-98.89
-68.47
-23.09
31.26
88.68
142.03
185.18
214.27
228.42
228.30
215.92
193.97
157.15
112.78
70.20
35.57
6.43
-19.44
-43.24
-61.12
-69.92
-68.17
-55.85
-37.28
-18.49
-4.37
3.69
6.57
6.44
4.29
-0.29
-8.14
-21.89
-43.95
-74.69
-111.44
-150.01
-185.99
-216.21
-238.41
-250.24
-250.10
-236.72
-209.58
-169.81
-121.72
-72.50
-30.83
-3.99
4.52
-5.14
-29.68
-64.08
-102.61
-139.63
-169.65
-187.58
-189.17
-171.90
-136.30
-86.49
-29.50
26.28
72.96
105.06
120.35
119.97
107.54
87.78
65.26
43.58
25.24
11.90
4.70
4.32
10.73
22.94
38.79
55.28
69.16
77.75
79.60
74.81
65.05
52.85
40.88
31.01
23.87
18.94
15.20
11.83
8.81
6.77
6.54
8.38
11.65
14.77
15.88
13.67
8.04
0.09
-8.48
-16.39
-23.48
-30.58
-38.57
-47.33
-54.99
-58.28
-53.83
-39.63
-15.77
15.88
52.99
93.82
137.31
181.94
224.15
257.74
275.14
270.51
242.73
196.94
143.21
92.83
54.20
30.35
19.41
17.27
20.49
27.53
37.70
49.00
56.87
55.32
39.99
11.22
-24.89
-58.64
-80.75
-86.30
-76.33
-56.73
-35.21
-18.11
-8.52
-6.19
-8.81
-13.45
-17.82
-20.81
-22.35
-22.82
-22.54
-21.42
-19.13
-15.66
-11.77
-9.18
-10.05
-15.87
-26.60
-40.34
-53.81
-63.48
-66.76
-62.83
-52.80
-39.33
-25.84
-15.53
-10.39
-10.68
-14.74
-19.73
-22.75
-22.14
-18.23
-13.21
-10.23
-12.03
-19.87
-33.09
-49.43
-65.77
-79.07
-87.02
-88.34
-83.04
-72.30
-58.35
-44.02
-32.06
-24.36
-21.25
-21.47
-22.70
-22.52
-19.52
-13.92
-7.43
-2.39
-0.64
-2.67
-7.53
-13.33
-18.18
-20.92
-21.35
-19.86
-16.81
-12.17
-5.56
3.18
13.57
24.21
33.07
38.21
38.50
34.14
26.68
18.42
11.61
7.68
6.96
8.91
12.85
18.63
26.81
38.27
53.41
71.48
90.54
108.12
122.18
131.80
137.18
139.04
137.82
133.25
124.55
111.04
92.79
70.85
46.98
23.16
1.06
-18.22
-34.12
-46.50
-55.61
-61.99
-66.43
-69.79
-72.81
-75.92
-79.22
-82.54
-85.64
-88.34
-90.61
-92.61
-94.66
-97.33
-101.50
-108.15
-118.10
-131.48
-147.43
-164.09
-179.02
-189.90
-195.16
-194.27
-187.58
-175.86
-159.90
-140.42
-118.23
-94.43
-70.59
-48.56
-30.08
-16.51
-8.64
-6.82
-10.75
-20.28
-35.25
-55.17
-78.90
-105.04
-132.38
-160.35
-189.00
-217.95
-246.02
-270.54
-287.35
-291.75
-280.40
-252.81
-211.49
-161.19
-106.80
-53.49
-5.96
32.91
63.11
87.63
111.53
140.12
176.13
219.59
263.76
297.43
310.85
300.52
270.65
231.37
194.98
171.61
170.13
189.65
221.57
256.96
292.38
329.99
374.74
430.33
496.03
572.19
649.82
714.47
756.15
774.43
774.94
763.64
743.24
712.78
677.89
637.19
583.97
514.09
429.75
336.14
238.34
141.55
0.12
-171.71
-321.26
-412.32
-449.98
-459.14
-462.12
-470.59
-486.23
-505.19
-513.80
-506.96
-487.91
-460.17
-423.62
-378.42
-329.09
-283.93
-251.09
-228.12
-213.13
-206.35
-206.93
-211.58
-216.39
-218.13
-213.90
-201.20
-175.43
-139.08
-101.36
-71.97
-56.15
-52.77
-57.04
-62.62
-64.07
-57.28
-43.59
-28.30
-16.28
-9.35
-6.40
-5.15
-3.85
-1.84
0.31
1.01
-0.50
-2.62
-2.62
1.11
7.38
12.62
14.02
9.45
-1.09
-15.21
-29.00
-38.76
-41.48
-34.80
-17.26
12.14
50.16
90.21
122.12
137.19
131.15
106.05
69.49
25.58
-13.46
-37.90
-48.27
-53.34
-61.14
-73.42
-85.13
-87.83
-74.67
-42.38
4.46
55.79
100.63
130.64
141.21
131.24
106.18
68.79
26.22
-13.32
-42.29
-55.75
-52.94
-37.92
-17.86
