1542719922.00
64.000000
-0.00
-0.00
-0.00
-0.00
-0.00
-0.00
-0.00
-0.00
-0.00
-0.00
0.00
0.01
0.01
-0.00
-0.03
-0.05
-0.05
0.00
0.13
0.36
0.66
1.01
1.37
1.72
2.06
2.40
2.79
3.24
3.80
4.42
5.06
5.66
6.20
6.68
7.15
7.68
8.31
9.14
10.09
11.04
11.88
12.56
13.14
13.76
14.65
15.96
17.91
20.32
22.90
25.38
27.58
29.57
31.68
34.32
37.81
42.54
48.15
54.10
59.83
64.97
69.58
74.14
79.34
85.71
93.76
103.00
112.62
121.73
129.77
136.75
143.30
150.75
157.77
166.64
177.95
191.79
206.97
220.57
228.25
225.36
208.53
176.87
132.76
80.05
23.07
-34.94
-92.44
-149.16
-205.23
-260.37
-313.74
-363.87
-409.83
-450.91
-486.50
-515.74
-537.23
-549.22
-549.96
-538.37
-514.21
-478.67
-433.88
-382.45
-327.02
-269.84
-212.63
-156.66
-102.95
-52.37
-5.90
35.58
71.43
101.35
125.50
144.38
158.69
169.15
176.37
180.75
182.57
182.07
179.51
175.23
169.65
163.18
156.15
148.81
141.30
133.69
126.02
118.33
110.69
103.16
95.80
88.68
81.83
75.25
68.95
62.95
57.25
51.86
46.78
42.03
37.59
33.45
29.61
26.07
22.81
19.83
17.11
14.67
12.48
10.54
8.83
7.35
6.07
4.97
4.05
3.27
2.62
2.09
1.65
1.30
1.01
0.79
0.61
0.48
0.38
0.31
0.26
0.23
0.22
0.22
0.23
0.25
0.28
0.31
0.35
0.39
0.44
0.48
0.53
0.58
0.63
0.69
0.74
0.81
0.88
0.95
1.03
1.12
1.22
1.34
1.47
1.61
1.77
1.95
2.15
2.37
2.61
2.88
3.18
3.51
3.87
4.26
4.69
5.15
5.66
6.19
6.78
7.40
8.07
8.78
9.54
10.34
11.19
12.08
13.03
14.02
15.08
16.19
17.38
18.62
19.91
21.21
22.48
23.62
24.57
25.19
25.36
24.97
23.91
22.14
19.63
16.45
12.63
8.39
3.87
-0.70
-5.11
-9.15
-12.65
-15.48
-17.57
-18.89
-19.47
-19.38
-18.74
-17.65
-16.20
-14.52
-12.72
-10.86
-9.02
-7.21
-5.48
-3.84
-2.24
-0.63
1.01
2.72
4.50
6.36
8.34
10.38
12.46
14.63
16.93
19.40
22.03
24.80
27.72
30.83
33.98
37.14
40.40
43.86
47.58
51.51
55.57
59.63
63.77
67.69
71.42
75.18
79.22
83.61
88.20
92.68
96.67
100.04
102.26
103.35
103.53
103.04
101.68
98.66
92.44
80.73
65.74
48.06
28.54
8.16
-12.13
-31.77
-50.73
-69.37
-88.36
-108.36
-130.70
-156.16
-184.54
-214.23
-242.08
-263.94
-275.96
-275.96
-264.24
-244.05
-219.70
-195.10
-172.60
-152.70
-134.71
-117.62
-100.84
-84.26
-68.40
-53.52
-39.66
-26.74
-14.87
-4.42
4.07
10.15
13.74
15.18
15.29
15.21
15.87
17.79
20.82
24.29
27.33
29.24
29.74
29.13
28.01
27.00
26.47
26.34
26.21
25.53
23.90
21.22
17.73
14.02
10.81
8.81
8.55
10.20
13.54
18.03
22.92
27.39
30.83
32.86
33.42
32.68
30.96
28.60
25.94
23.28
20.86
18.93
17.58
16.77
16.33
15.96
15.34
14.32
12.89
11.20
9.41
7.61
5.78
3.78
1.49
-1.07
-3.69
-5.98
-7.49
-7.75
-6.47
-3.58
0.72
5.93
11.30
16.04
19.37
20.82
20.32
18.18
15.07
11.73
8.85
6.82
5.77
5.62
6.08
6.87
7.65
8.19
8.28
7.85
6.85
5.36
3.47
1.28
-1.11
-3.66
-6.36
-9.16
-11.88
-14.14
-15.37
-15.02
-12.75
-8.64
-3.29
2.40
7.48
11.24
13.29
13.62
12.45
10.09
6.93
3.38
-0.18
-3.40
-6.06
-8.07
-9.44
-10.24
-10.55
-10.49
-10.15
-9.70
-9.25
-8.93
-8.82
-9.06
-9.78
-11.10
-13.03
-15.36
-17.61
-19.11
-19.24
-17.63
-14.30
-9.69
-4.47
0.65
5.08
8.48
10.75
11.96
12.28
11.94
11.18
10.22
9.21
8.28
7.51
6.95
6.61
6.46
6.47
6.59
6.79
7.06
7.35
7.53
7.34
6.46
4.61
1.73
-1.84
-5.37
-7.90
-8.63
-7.13
-3.58
1.26
6.40
10.86
13.94
15.38
15.26
13.85
11.53
8.65
5.55
2.58
0.07
-1.72
-2.65
-2.72
-2.14
-1.20
-0.29
0.27
0.25
-0.45
-1.79
-3.70
-6.10
-8.88
-11.84
-14.57
-16.49
-17.01
-15.71
-12.59
-8.15
-3.23
1.23
4.52
6.26
6.52
5.65
4.10
2.32
0.60
-0.91
-2.13
-3.08
-3.78
-4.26
-4.53
-4.61
-4.58
-4.53
-4.58
-4.83
-5.38
-6.32
-7.77
-9.85
-12.61
-15.87
-19.16
-21.72
-22.67
-21.37
-17.68
-12.10
-5.59
0.65
5.68
8.96
10.46
10.55
9.70
8.38
6.91
5.50
4.29
3.40
2.92
2.93
3.42
4.26
5.18
5.86
6.00
5.46
4.29
2.68
0.76
-1.45
-4.10
-7.23
-10.64
-13.68
-15.48
-15.21
-12.54
-7.88
-2.20
3.22
7.34
9.64
10.16
9.26
7.50
5.30
3.03
0.94
-0.72
-1.77
-2.20
-2.16
-1.96
-1.93
-2.30
-3.09
-4.19
-5.39
-6.55
-7.65
-8.83
-10.31
-12.29
-14.87
-17.88
-20.88
-23.15
-23.93
-22.58
-18.96
-13.43
-6.83
-0.17
5.69
10.22
13.29
14.97
15.40
14.67
12.91
10.43
7.73
5.46
4.12
3.89
4.53
5.47
6.06
5.85
4.75
2.99
0.99
-0.85
-2.35
-3.59
-4.91
-6.75
-9.50
-13.28
-17.86
-22.59
-26.54
-28.67
-28.22
-24.89
-19.02
-11.47
-3.39
4.13
10.34
14.87
17.72
19.06
19.13
18.13
16.38
14.29
12.40
11.24
11.22
12.41
14.54
17.07
19.32
20.73
20.99
20.04
18.15
15.70
13.11
10.62
8.26
5.86
3.12
-0.19
-4.19
-8.72
-13.34
-17.41
-20.16
-20.84
-18.90
-14.24
-7.28
1.05
9.56
17.09
22.83
26.44
28.01
27.90
26.54
24.29
21.47
18.42
15.55
13.26
11.87
11.40
11.58
11.90
11.86
11.11
9.63
7.65
5.56
3.69
2.16
0.91
-0.30
-1.74
-3.58
-5.95
-8.89
-12.34
-16.09
-19.66
-22.35
-23.39
-22.20
-18.64
-13.15
-6.61
-0.07
5.61
9.91
12.74
14.26
14.73
14.38
13.46
12.28
11.21
10.66
10.92
12.07
13.91
16.06
18.03
19.37
19.76
19.10
17.49
15.16
12.44
9.65
6.97
4.38
1.76
-1.10
-4.36
-8.09
-12.24
-16.62
-20.85
-24.31
-26.21
-25.74
-22.37
-16.11
-7.65
1.77
10.76
18.14
23.29
26.11
26.96
26.33
24.69
22.42
19.85
17.31
15.18
13.77
13.33
13.89
15.22
16.93
18.52
19.53
19.65
18.79
17.09
14.79
12.16
9.39
6.59
3.78
0.89
-2.14
-5.43
-9.14
-13.27
-17.65
-21.72
-24.66
-25.51
-23.58
-18.69
-11.33
-2.54
6.41
14.34
20.44
24.31
25.95
25.63
23.81
21.05
17.95
15.14
13.07
12.04
12.05
12.85
13.95
14.81
14.96
14.10
12.28
9.80
7.12
4.70
2.78
1.34
0.02
-1.65
-4.14
-7.65
-12.05
-16.78
-21.01
-23.76
-24.22
-21.97
-17.10
-10.32
-2.71
4.50
10.31
14.18
16.06
16.28
15.30
13.54
11.32
8.92
6.65
4.90
4.01
4.13
5.10
6.49
7.75
8.41
8.29
7.52
6.40
5.26
4.20
3.11
1.68
-0.41
-3.36
-7.11
-11.31
-15.37
-18.59
-20.32
-20.08
-17.69
-13.32
-7.52
-1.04
5.29
10.77
14.94
17.62
18.82
18.66
17.33
15.09
12.31
9.46
7.04
5.43
4.83
5.15
6.05
7.06
7.68
7.60
6.76
5.30
3.51
1.67
-0.13
-1.96
-4.01
-6.50
-9.48
-12.84
-16.16
-18.88
-20.41
-20.27
-18.28
-14.58
-9.64
-4.12
1.30
6.03
9.61
11.77
12.44
11.68
9.76
7.09
4.20
1.61
-0.28
-1.23
-1.26
-0.57
0.47
1.46
2.02
1.91
1.12
-0.13
-1.53
-2.82
-3.91
-4.99
-6.32
-8.19
-10.64
-13.49
-16.28
-18.45
-19.48
-19.02
-16.96
-13.44
-8.82
-3.64
1.43
5.78
8.87
10.40
10.34
8.90
6.54
3.76
1.10
-1.01
-2.31
-2.68
-2.20
-1.08
0.34
1.71
2.70
3.11
2.94
2.29
1.33
0.20
-1.01
-2.39
-4.03
-6.04
-8.35
-10.69
-12.58
-13.41
-12.65
-10.04
-5.78
-0.49
4.94
9.63
12.92
14.56
14.56
13.18
10.77
7.70
4.42
1.40
-0.94
-2.32
-2.73
-2.40
-1.72
-1.07
-0.70
-0.66
-0.86
-1.20
-1.66
-2.31
-3.33
-4.92
-7.17
-9.98
-13.02
-15.72
-17.40
-17.45
-15.60
-11.94
-7.04
-1.71
3.17
6.90
9.12
9.78
9.13
7.57
5.54
3.49
1.77
0.59
0.02
-0.04
0.20
0.54
0.79
0.89
0.85
0.71
0.48
0.03
-0.78
-2.16
-4.20
-6.87
-9.97
-13.12
-15.80
-17.44
-17.49
-15.65
-11.94
-6.84
-1.19
4.04
8.01
10.21
10.57
9.42
7.35
4.93
2.68
0.86
-0.42
-1.24
-1.69
-1.85
-1.75
-1.43
-1.01
-0.65
-0.62
-1.09
-2.10
-3.58
-5.32
-7.17
-9.04
-10.91
-12.66
-14.04
-14.63
-14.01
-11.89
-8.35
-3.86
0.88
5.10
8.23
9.93
10.22
9.31
7.55
5.35
3.12
1.25
0.07
-0.20
0.45
1.83
3.54
5.09
6.09
6.33
5.85
4.83
3.48
1.91
0.07
-2.17
-4.84
-7.73
-10.35
-11.99
-12.02
-10.13
-6.49
-1.78
3.07
7.12
9.77
10.80
10.39
8.97
6.99
4.85
2.80
1.02
-0.39
-1.37
-1.93
-2.20
-2.36
-2.60
-3.04
-3.61
-4.19
-4.61
-4.85
-5.05
-5.52
-6.56
-8.32
-10.64
-13.04
-14.89
-15.54
-14.57
-11.89
-7.82
-3.02
1.70
5.53
7.91
8.62
7.78
5.78
3.12
0.26
-2.43
-4.72
-6.47
-7.64
-8.28
-8.49
-8.48
-8.46
-8.62
-9.05
-9.76
-10.70
-11.86
-13.24
-14.87
-16.74
-18.69
-20.43
-21.52
-21.46
-19.83
-16.43
-11.39
-5.28
1.07
6.73
10.92
13.25
13.80
12.99
11.42
9.68
8.18
7.14
6.62
6.57
6.87
7.40
8.02
8.67
9.28
9.79
10.08
9.95
9.13
7.43
4.76
1.28
-2.60
-6.19
-8.65
-9.15
-7.04
-2.16
5.08
13.60
21.90
28.45
32.02
32.03
28.56
22.25
14.05
5.00
-3.89
-11.68
-17.63
-21.28
-22.51
-21.64
-19.37
-16.61
-14.23
-12.94
-13.13
-14.80
-17.54
-20.57
-22.92
-23.83
-23.10
-21.37
-19.87
-19.89
-22.00
-25.61
-29.04
-30.29
-28.07
-22.44
-14.92
-7.72
-2.77
-0.82
-1.27
-2.69
-3.55
-3.00
-1.01
1.80
4.68
7.20
9.33
11.35
13.51
15.85
18.20
20.30
21.90
22.84
23.06
22.55
21.28
19.22
16.46
13.24
9.96
7.17
5.42
5.10
6.31
8.81
11.99
15.01
17.00
17.23
15.39
11.59
6.38
0.59
-4.91
-9.39
-12.50
-14.20
-14.76
-14.56
-14.00
-13.40
-12.95
-12.72
-12.67
-12.69
-12.70
-12.77
-13.10
-13.93
-15.38
-17.23
-18.83
-19.29
-17.79
-13.93
-8.03
-0.99
5.98
11.80
15.89
18.22
19.22
19.42
19.24
18.77
17.92
16.51
14.60
12.50
10.76
9.96
10.43
12.15
14.66
17.20
18.93
19.09
17.21
13.14
7.07
-0.37
-8.18
-15.05
-19.59
-20.70
-17.92
-11.55
-2.63
7.43
17.23
25.67
32.03
35.98
37.42
36.45
33.40
28.83
23.55
18.38
13.99
10.68
8.38
6.71
5.29
3.86
2.40
1.07
0.02
-0.79
-1.65
-2.99
-5.24
-8.58
-12.79
-17.24
-21.05
-23.41
-23.83
-22.26
-19.10
-15.06
-10.89
-7.20
-4.40
-2.64
-1.99
-2.35
-3.55
-5.31
-7.25
-8.97
-10.13
-10.59
-10.38
-9.70
-8.84
-8.04
-7.46
-7.14
-7.06
-7.20
-7.60
-8.37
-9.73
-11.84
-14.82
-18.51
-22.45
-25.89
-27.94
-27.85
-25.22
-20.17
-13.37
-5.76
1.62
7.93
12.72
15.89
17.63
18.19
17.84
16.76
15.12
13.13
11.14
9.51
8.54
8.34
8.73
9.32
9.66
9.37
8.29
6.50
4.21
1.74
-0.67
-2.83
-4.71
-6.38
-7.99
-9.77
-11.95
-14.64
-17.83
-21.25
-24.36
-26.47
-26.86
-25.00
-20.82
-14.76
-7.73
-0.79
5.13
9.52
12.35
13.96
14.77
15.12
15.12
14.71
13.84
12.60
11.28
10.27
9.90
10.25
11.14
12.14
12.80
12.81
12.12
10.96
9.70
8.65
7.97
7.54
7.09
6.29
5.00
3.28
1.37
-0.43
-1.97
-3.29
-4.57
-6.07
-7.96
-10.31
-13.08
-16.18
-19.42
-22.42
-24.59
-25.17
-23.46
-19.17
-12.54
-4.46
3.89
11.36
17.16
21.03
23.08
23.65
23.07
21.61
19.51
17.10
14.80
13.06
12.18
12.16
12.69
13.28
13.46
12.95
11.76
10.06
8.10
6.06
4.04
2.05
0.01
-2.10
-4.29
-6.47
-8.52
-10.32
-11.74
-12.80
-13.63
-14.44
-15.52
-17.07
-19.13
-21.53
-23.89
-25.67
-26.27
-25.20
-22.25
-17.60
-11.81
-5.72
-0.12
4.43
7.69
9.76
10.84
11.12
10.69
9.63
8.13
6.50
5.12
4.29
4.05
4.24
4.58
4.82
4.91
4.93
4.99
5.15
5.23
5.00
4.23
2.84
0.98
-1.06
-2.96
-4.56
-5.83
-6.95
-8.12
-9.59
-11.51
-13.93
-16.68
-19.36
-21.28
-21.69
-20.02
-16.09
-10.35
-3.70
2.79
8.17
11.90
13.92
14.49
14.01
12.89
11.43
9.86
8.34
6.98
5.87
5.10
4.75
4.88
5.45
6.29
7.12
7.65
7.62
6.99
5.84
4.34
2.64
0.79
-1.21
-3.32
-5.44
-7.44
-9.24
-10.96
-12.82
-15.07
-17.70
-20.35
-22.36
-22.95
-21.57
-18.09
-12.95
-6.94
-1.03
3.93
7.43
9.30
9.71
8.96
7.37
5.27
2.87
0.43
-1.74
-3.30
-3.97
-3.67
-2.58
-1.13
0.18
0.96
1.06
0.59
-0.22
-1.12
-1.96
-2.73
-3.49
-4.27
-5.03
-5.72
-6.26
-6.68
-7.09
-7.57
-8.05
-8.23
-7.60
-5.61
-2.01
3.07
9.02
14.98
20.18
24.11
26.61
27.78
27.76
26.70
24.77
22.18
19.34
16.69
14.60
13.26
12.61
12.46
12.57
12.75
12.88
12.90
12.75
12.41
11.88
11.23
10.53
9.86
9.20
8.46
7.43
5.90
3.71
0.88
-2.36
-5.60
-8.25
-9.76
-9.75
-8.14
-5.18
-1.37
2.73
6.62
9.91
12.43
14.09
14.84
14.65
13.54
11.67
9.36
7.07
5.25
4.20
4.03
4.60
5.64
6.84
7.90
8.62
8.85
8.53
7.65
6.29
4.58
2.68
0.74
-1.15
-3.00
-4.89
-6.96
-9.30
-11.84
-14.35
-16.40
-17.48
-17.15
-15.25
-11.98
-7.86
-3.60
0.19
3.03
4.78
5.47
5.30
4.48
3.27
1.87
0.49
-0.64
-1.38
-1.60
-1.27
-0.51
0.49
1.49
2.24
2.61
2.56
2.15
1.46
0.61
-0.32
-1.30
-2.29
-3.32
-4.42
-5.69
-7.22
-9.01
-10.91
-12.59
-13.60
-13.51
-12.07
-9.32
-5.59
-1.34
2.87
6.56
9.38
11.17
11.82
11.40
10.05
8.00
5.61
3.29
1.48
0.48
0.39
1.08
2.15
3.14
3.61
3.38
2.51
1.26
-0.09
-1.33
-2.49
-3.69
-5.10
-6.76
-8.65
-10.70
-12.83
-14.99
-17.07
-18.75
-19.53
-18.85
-16.37
-12.15
-6.74
-1.00
4.17
8.14
10.67
11.83
11.91
11.17
9.81
7.99
5.90
3.79
1.99
0.72
0.14
0.23
0.81
1.61
2.33
2.72
2.62
2.05
1.14
0.12
-0.81
-1.59
-2.27
-3.10
-4.32
-6.12
-8.52
-11.30
-14.05
-16.25
-17.38
-17.12
-15.33
-12.17
-8.04
-3.50
0.85
4.50
7.09
8.45
8.61
7.71
6.01
3.83
1.57
-0.31
-1.40
-1.43
-0.42
1.26
3.04
4.36
4.84
4.44
3.36
1.92
0.41
-1.01
-2.31
-3.56
-4.85
-6.30
-7.98
-9.88
-11.89
-13.67
-14.74
-14.57
-12.85
-9.56
-5.13
-0.19
4.55
8.61
11.78
14.02
15.37
15.75
15.05
13.23
10.51
7.40
4.65
2.92
2.54
3.36
4.78
6.01
6.35
5.51
3.69
1.50
-0.32
-1.21
-1.07
-0.27
0.46
0.41
-0.85
-3.24
-6.20
-8.77
-9.89
-8.58
-4.28
2.90
12.02
21.41
29.17
33.93
35.57
35.48
36.11
39.89
48.02
59.87
73.12
84.87
92.87
96.45
96.54
95.01
93.56
93.08
93.44
93.89
93.49
91.38
86.68
78.51
66.22
49.91
30.68
10.65
-7.87
-23.21
-34.99
-44.05
-51.71
-58.97
-66.01
-72.36
-77.50
-81.36
-84.38
-87.24
-90.35
-93.66
-96.80
-99.41
-101.41
-102.94
-104.20
-105.13
-105.30
-104.03
-100.71
-95.05
-87.29
-78.08
-68.29
-58.71
-49.89
-42.09
-35.38
-29.74
-25.18
-21.80
-19.73
-19.11
-19.97
-22.07
-24.83
-27.36
-28.61
-27.79
-24.62
-19.45
-13.19
-6.88
-1.41
2.77
5.58
7.17
7.78
7.60
6.83
5.76
4.72
4.04
3.91
4.32
5.01
5.62
5.75
5.16
3.78
1.74
-0.69
-3.23
-5.70
-7.97
-10.04
-11.88
-13.49
-14.82
-15.79
-16.29
-16.13
-15.00
-12.61
-8.77
-3.62
2.31
8.20
13.17
16.57
18.18
18.10
16.63
14.09
10.71
6.71
2.35
-1.97
-5.81
-8.72
-10.31
-10.25
-8.36
-4.59
0.85
7.47
14.50
21.05
26.34
29.86
31.49
31.35
29.71
26.83
22.85
17.92
12.28
6.45
1.16
-2.72
-4.53
-4.04
-1.64
1.78
5.19
7.76
9.08
9.09
7.99
6.03
3.40
0.35
-2.70
-5.16
-6.41
-5.98
-3.82
-0.29
3.89
7.92
11.11
13.11
13.87
13.56
12.48
10.89
8.93
6.61
3.82
0.48
-3.43
-7.67
-11.79
-15.18
-17.17
-17.24
-15.23
-11.37
-6.28
-0.74
4.47
8.78
11.84
13.51
13.80
12.83
10.84
8.24
5.59
3.46
2.27
2.18
2.97
4.23
5.50
6.45
6.94
7.01
6.75
6.23
5.47
4.42
3.05
1.31
-0.85
-3.42
-6.26
-9.12
-11.52
-12.84
-12.55
-10.38
-6.41
-1.15
4.64
10.16
14.75
18.01
19.76
20.02
18.94
16.81
13.96
10.81
7.75
5.13
3.13
1.79
1.00
0.55
0.22
-0.15
-0.68
-1.41
-2.34
-3.44
-4.73
-6.27
-8.16
-10.52
-13.39
-16.63
-19.87
-22.51
-23.88
-23.47
-21.01
-16.69
-11.00
-4.65
1.64
7.25
11.77
14.97
16.76
17.21
16.52
15.02
13.15
11.39
10.15
9.64
9.85
10.48
11.11
11.31
10.79
9.55
7.82
5.98
4.34
3.06
2.10
1.24
0.20
-1.27
-3.25
-5.65
-8.15
-10.28
-11.49
-11.32
-9.55
-6.25
-1.83
3.07
7.79
11.78
14.72
16.51
17.23
17.02
16.01
14.34
12.25
10.06
8.21
7.08
6.88
7.45
8.36
9.00
8.90
7.88
6.15
4.05
1.96
0.02
-1.86
-3.86
-6.13
-8.70
-11.45
-14.15
-16.51
-18.18
-18.77
-17.93
-15.46
-11.47
-6.42
-0.98
4.17
8.50
11.77
13.98
15.16
15.38
14.66
13.13
11.07
8.92
7.19
6.20
6.05
6.54
7.27
7.83
7.90
7.33
6.19
4.65
2.94
1.24
-0.35
-1.85
-3.39
-5.11
-7.14
-9.59
-12.40
-15.37
-18.10
-20.04
-20.63
-19.47
-16.49
-12.02
-6.64
-1.09
3.96
8.02
10.80
12.19
12.28
11.25
9.47
7.37
5.42
4.01
3.34
3.45
4.18
5.27
6.45
7.43
7.99
7.97
7.31
6.07
4.40
2.54
0.74
-0.84
-2.23
-3.55
-4.97
-6.63
-8.62
-10.86
-13.16
-15.26
-16.77
-17.28
-16.44
-14.08
-10.36
-5.68
-0.69
3.97
7.78
10.41
11.77
11.94
11.11
9.61
7.77
5.97
4.53
3.64
3.37
3.65
4.32
5.19
6.03
6.68
6.97
6.77
6.01
4.71
2.95
0.93
-1.11
-2.93
-4.38
-5.49
-6.39
-7.39
-8.73
-10.56
-12.75
-14.91
-16.47
-16.84
-15.63
-12.79
-8.64
-3.81
0.97
5.07
8.04
9.69
10.02
9.19
7.44
5.11
2.59
0.28
-1.45
-2.36
-2.36
-1.56
-0.19
1.41
2.85
3.82
4.11
3.70
2.72
1.45
0.21
-0.77
-1.43
-1.89
-2.41
-3.23
-4.50
-6.25
-8.30
-10.36
-12.03
-12.89
-12.60
-11.01
-8.19
-4.46
-0.30
3.78
7.32
10.01
11.71
12.41
12.18
11.20
9.71
8.01
6.42
5.25
4.72
4.88
5.63
6.70
7.76
8.50
8.77
8.57
8.02
7.26
6.43
5.56
4.65
3.68
2.62
1.46
0.12
-1.49
-3.50
-5.94
-8.64
-11.20
-13.03
-13.54
-12.40
-9.60
-5.58
-1.02
3.39
7.11
9.84
11.51
12.18
11.95
10.98
9.48
7.72
6.02
4.68
3.88
3.70
4.04
4.69
5.37
5.76
5.62
4.80
3.34
1.43
-0.62
-2.53
-4.08
-5.15
-5.75
-5.94
-5.80
-5.44
-4.89
-4.14
-3.09
-1.55
0.71
3.83
7.77
12.22
16.66
20.43
22.94
23.81
22.96
20.59
17.10
12.97
8.76
4.95
1.95
0.00
-0.86
-0.81
-0.19
0.57
1.14
1.34
1.15
0.70
0.11
-0.52
-1.17
-1.85
-2.62
-3.56
-4.79
-6.43
-8.51
-10.92
-13.35
-15.33
-16.35
-15.99
-14.05
-10.64
-6.18
-1.28
3.37
7.16
9.72
10.91
10.86
9.86
8.25
6.37
4.50
2.92
1.82
1.36
1.53
2.16
2.97
3.55
3.63
3.11
2.09
0.81
-0.45
-1.52
-2.37
-3.12
-3.96
-5.08
-6.54
-8.31
-10.17
-11.75
-12.67
-12.55
-11.28
-8.90
-5.76
-2.28
1.07
3.91
6.02
7.25
7.62
7.15
6.01
4.45
2.82
1.54
0.95
1.18
2.11
3.40
4.58
5.32
5.43
4.98
4.16
3.20
2.23
1.28
0.34
-0.69
-1.91
-3.40
-5.22
-7.31
-9.49
-11.37
-12.49
-12.41
-10.94
-8.17
-4.52
-0.61
2.95
5.72
7.49
8.30
8.27
7.54
6.24
4.53
2.65
0.91
-0.38
-1.02
-1.03
-0.66
-0.21
0.00
-0.10
-0.46
-0.90
-1.32
-1.72
-2.18
-2.86
-3.83
-5.14
-6.79
-8.74
-10.86
-12.88
-14.34
-14.72
-13.61
-10.91
-6.96
-2.44
1.89
5.42
7.90
9.37
10.03
10.11
9.70
8.84
7.64
6.29
5.06
4.25
3.98
4.18
4.58
4.90
4.88
4.47
3.77
2.94
2.10
1.29
0.40
-0.73
-2.25
-4.19
-6.45
-8.71
-10.53
-11.45
-11.11
-9.39
-6.53
-2.97
0.68
3.85
6.17
7.52
7.92
7.52
6.46
4.89
3.04
1.20
-0.28
-1.07
-1.03
-0.25
0.98
2.26
3.28
3.86
4.03
3.90
3.53
2.90
1.94
0.57
-1.22
-3.35
-5.70
-8.05
-10.14
-11.65
-12.21
-11.55
-9.55
-6.40
-2.53
1.46
4.98
7.58
9.03
9.32
8.63
7.20
5.35
3.40
1.61
0.24
-0.61
-0.93
-0.79
-0.38
0.10
0.41
0.42
0.03
-0.80
-2.00
-3.51
-5.26
-7.20
-9.34
-11.65
-14.00
-16.06
-17.38
-17.45
-15.93
-12.75
-8.26
-3.10
1.92
6.09
8.94
10.37
10.55
9.82
8.57
7.11
5.71
4.54
3.69
3.21
3.05
3.09
3.17
3.13
2.87
2.35
1.65
0.78
-0.21
-1.35
-2.69
-4.29
-6.22
-8.44
-10.75
-12.76
-13.93
-13.76
-11.97
-8.67
-4.40
0.08
4.06
7.05
8.95
9.87
9.98
9.39
8.18
6.45
4.47
2.65
1.40
0.96
1.28
2.00
2.65
2.83
2.33
1.22
-0.30
-1.99
-3.72
-5.52
-7.52
-9.83
-12.44
-15.11
-17.41
-18.79
-18.80
-17.19
-14.01
-9.62
-4.56
0.56
5.20
8.90
11.35
12.40
12.05
10.55
8.30
5.84
3.67
2.17
1.50
1.56
2.12
2.87
3.51
3.90
3.96
3.72
3.22
2.44
1.35
-0.15
-2.08
-4.42
-7.01
-9.53
-11.56
-12.66
-12.46
-10.82
-7.85
-3.96
0.32
4.41
7.86
10.39
11.88
12.31
11.75
10.39
8.54
6.64
5.12
4.30
4.22
4.67
5.25
5.59
5.43
4.77
3.76
2.65
1.64
0.80
0.06
-0.76
-1.90
-3.55
-5.73
-8.25
-10.69
-12.47
-12.99
-11.87
-8.99
-4.64
0.56
5.84
10.48
13.92
15.91
16.48
15.85
14.37
12.46
10.53
8.96
8.04
7.92
8.52
9.56
10.67
11.43
11.62
11.18
10.26
9.07
7.79
6.51
5.22
3.81
2.13
0.04
-2.54
-5.54
-8.65
-11.37
-13.03
-13.09
-11.30
-7.84
-3.32
1.52
5.94
9.49
11.99
13.46
14.00
13.71
12.71
11.15
9.27
7.38
5.81
4.81
4.45
4.65
5.13
5.55
5.60
5.15
4.23
3.08
1.97
1.11
0.53
0.09
-0.49
-1.50
-3.16
-5.53
-8.48
-11.62
-14.39
-16.13
-16.34
-14.77
-11.58
-7.33
-2.77
1.38
4.64
6.86
8.09
8.50
8.25
7.44
6.19
4.76
3.53
2.90
3.06
3.97
5.30
6.56
7.39
7.58
7.19
6.42
5.49
4.58
3.68
2.69
1.41
-0.38
-2.80
-5.81
-9.14
-12.30
-14.66
-15.66
-14.96
-12.62
-9.03
-4.82
-0.62
3.07
5.96
7.97
9.14
9.53
9.22
8.39
7.24
6.11
5.27
4.93
5.08
5.56
6.08
6.36
6.20
5.53
4.48
3.22
1.95
0.79
-0.26
-1.33
-2.62
-4.29
-6.40
-8.75
-10.97
-12.54
-12.98
-12.04
-9.73
-6.35
-2.37
1.73
5.48
8.51
10.53
11.36
10.98
9.54
7.39
4.98
2.77
1.08
0.04
-0.36
-0.28
0.09
0.56
1.01
1.33
1.51
1.55
1.49
1.35
1.10
0.61
-0.23
-1.52
-3.28
-5.30
-7.26
-8.69
-9.16
-8.33
-6.15
-2.82
1.17
5.23
8.76
11.31
12.63
12.69
11.64
9.77
7.42
5.02
2.97
1.58
1.02
1.23
1.97
2.88
3.62
3.93
3.76
3.16
2.31
1.34
0.36
-0.65
-1.77
-3.17
-4.93
-7.02
-9.15
-10.89
-11.71
-11.23
-9.33
-6.29
-2.63
1.06
4.26
6.67
8.16
8.72
8.40
7.33
5.71
3.85
2.12
0.83
0.15
0.07
0.38
0.81
1.14
1.21
1.00
0.51
-0.25
-1.24
-2.47
-3.88
-5.46
-7.16
-8.95
-10.72
-12.25
-13.21
-13.23
-12.01
-9.53
-6.10
-2.25
1.39
4.30
6.14
6.84
6.42
5.09
3.11
0.86
-1.24
-2.77
-3.48
-3.34
-2.55
-1.47
-0.48
0.13
0.22
-0.14
-0.76
-1.43
-1.98
-2.45
-2.98
-3.82
-5.15
-6.95
-8.93
-10.59
-11.36
-10.81
-8.77
-5.43
-1.23
3.22
7.30
10.48
12.41
12.92
12.05
9.99
7.07
3.73
0.42
-2.39
-4.37
-5.30
-5.20
-4.25
-2.81
-1.28
0.00
0.86
1.26
1.28
1.01
0.43
-0.53
-2.00
-3.94
-6.15
-8.20
-9.53
-9.66
-8.37
-5.76
-2.30
1.38
4.67
7.16
8.68
9.26
9.08
8.29
7.08
5.63
4.15
2.82
1.79
1.06
0.53
0.06
-0.47
-1.13
-1.91
-2.81
-3.80
-4.84
-5.91
-6.96
-8.03
-9.14
-10.34
-11.56
-12.54
-12.91
-12.28
-10.44
-7.54
-4.02
-0.48
2.50
4.58
5.69
5.92
5.44
4.44
3.12
1.68
0.39
-0.53
-0.95
-0.93
-0.63
-0.28
-0.04
0.04
-0.03
-0.21
-0.53
-1.08
-1.96
-3.20
-4.78
-6.59
-8.44
-10.05
-11.10
-11.23
-10.17
-7.86
-4.50
-0.58
3.30
6.55
8.78
9.86
9.81
8.85
7.18
5.07
2.83
0.81
-0.67
-1.37
-1.28
-0.56
0.41
1.26
1.69
1.63
1.16
0.48
-0.25
-1.01
-1.96
-3.30
-5.17
-7.48
-9.84
-11.66
-12.29
-11.36
-8.82
-5.03
-0.65
3.55
6.94
9.13
10.06
9.88
8.91
7.52
6.01
4.64
3.58
2.92
2.65
2.67
2.84
2.98
2.97
2.72
2.22
1.49
0.55
-0.60
-1.98
-3.64
-5.60
-7.79
-10.06
-12.08
-13.45
-13.76
-12.78
-10.52
-7.26
-3.50
0.20
3.41
5.82
7.29
7.82
7.51
6.51
5.04
3.38
1.78
0.51
-0.27
-0.51
-0.26
0.28
0.88
1.34
1.52
1.35
0.81
-0.16
-1.65
-3.74
-6.34
-9.17
-11.69
-13.32
-13.58
-12.28
-9.60
-6.01
-2.10
1.54
4.52
6.64
7.88
8.31
8.06
7.28
6.11
4.71
3.27
1.95
0.93
0.29
0.05
0.08
0.18
0.12
-0.31
-1.21
-2.56
-4.25
-6.13
-8.12
-10.14
-12.06
-13.66
-14.58
-14.43
-12.91
-9.98
-5.91
-1.25
3.39
7.45
10.56
12.55
13.39
13.15
11.97
10.09
7.83
5.60
3.74
2.51
1.98
2.02
2.38
2.76
2.92
2.71
2.09
1.13
-0.09
-1.52
-3.19
-5.16
-7.46
-9.91
-12.15
-13.64
-13.89
-12.67
-10.06
-6.50
-2.57
1.12
4.16
6.29
7.48
7.78
7.34
6.40
5.19
4.00
3.06
2.59
2.69
3.33
4.35
5.45
6.29
6.61
6.33
5.51
4.35
3.01
1.54
-0.16
-2.18
-4.53
-6.92
-8.90
-9.90
-9.50
-7.56
-4.32
-0.27
3.95
7.79
10.82
12.85
13.89
14.04
13.45
12.31
10.88
9.43
8.26
7.56
7.37
7.50
7.61
7.37
6.55
5.17
3.39
1.43
-0.55
-2.51
-4.48
-6.49
-8.57
-10.64
-12.54
-14.02
-14.72
-14.31
-12.52
-9.34
-5.05
-0.22
4.51
8.56
11.61
13.59
14.57
14.73
14.22
13.24
12.03
10.91
10.13
9.84
9.97
10.24
10.29
9.81
8.70
7.06
5.12
3.11
1.19
-0.62
-2.45
-4.41
-6.63
-9.13
-11.81
-14.42
-16.55
-17.71
-17.44
-15.48
-11.81
-6.81
-1.14
4.44
9.23
12.79
14.99
15.93
15.88
15.12
13.91
12.47
11.04
9.83
9.02
8.69
8.77
9.04
9.20
8.98
8.21
6.86
5.07
3.08
1.18
-0.48
-1.84
-3.05
-4.35
-5.99
-8.11
-10.65
-13.29
-15.49
-16.71
-16.50
-14.73
-11.59
-7.54
-3.14
1.08
4.78
7.81
10.06
11.45
11.89
11.42
10.24
8.64
6.95
5.54
4.63
4.31
4.47
4.90
5.26
5.24
4.56
3.09
1.04
-1.18
-3.18
-4.83
-6.28
-7.85
-9.90
-12.72
-16.44
-20.60
-24.56
-27.76
-29.98
-31.19
-31.49
-30.99
-29.99
-28.89
-27.30
-24.59
-20.46
-15.33
-10.28
-6.53
-5.02
-6.24
-10.08
-14.53
-17.06
-15.92
-11.02
-3.59
4.80
13.19
21.32
29.64
40.88
58.25
83.80
117.44
157.11
199.88
242.78
283.02
306.17
300.61
262.93
201.42
131.62
67.98
19.02
-12.87
-29.86
-35.16
-33.49
-28.15
-21.39
-15.00
-10.10
-6.79
-4.53
-2.95
-3.37
-5.75
-9.82
-15.53
-23.06
-32.48
-43.21
-54.08
-63.90
-71.86
-76.80
-77.66
-74.14
-66.96
-57.64
-47.94
-39.46
-33.41
-30.41
-29.90
-30.57
-31.01
-30.38
-28.65
-26.43
-24.60
-23.87
-24.48
-25.91
-27.17
-27.33
-25.96
-23.30
-20.07
-17.12
-15.12
-14.37
-14.71
-15.72
-16.93
-17.97
-18.61
-18.79
-18.49
-17.75
-16.63
-15.22
-13.69
-12.25
-11.12
-10.45
-10.33
-10.72
-11.55
-12.74
-14.23
-16.02
-18.15
-20.66
-23.44
-26.20
-28.45
-29.71
-29.61
-28.09
-25.39
-21.94
-18.15
-14.30
-10.51
-6.91
-3.73
-1.31
-0.04
-0.11
-1.39
-3.48
-5.82
-7.89
-9.29
-9.72
-9.02
-7.08
-4.03
-0.17
3.89
7.49
10.10
11.53
11.94
11.74
11.37
11.08
10.98
11.06
11.36
11.97
13.00
14.48
16.22
17.94
19.22
19.77
19.47
18.39
16.79
14.90
12.95
11.01
9.11
7.19
5.26
3.36
1.61
0.11
-1.10
-2.12
-3.08
-4.13
-5.29
-6.46
-7.49
-8.30
-9.00
-9.87
-11.22
-13.18
-15.58
-17.93
-19.58
-19.99
-18.92
-16.49
-13.14
-9.46
-6.02
-3.28
-1.51
-0.79
-1.06
-2.11
-3.63
-5.29
-6.77
-7.86
-8.44
-8.53
-8.23
-7.70
-7.13
-6.70
-6.48
-6.50
-6.71
-7.02
-7.37
-7.75
-8.20
-8.82
-9.68
-10.76
-11.94
-12.90
-13.31
-12.87
-11.43
-9.05
-6.02
-2.73
0.34
2.79
4.28
4.70
4.12
2.76
0.99
-0.89
-2.59
-3.96
-4.95
-5.60
-5.92
-6.01
-5.96
-5.88
-5.86
-5.88
-5.89
-5.82
-5.70
-5.67
-5.99
-6.83
-8.26
-10.05
-11.80
-12.96
-13.06
-11.84
-9.34
-5.92
-2.12
1.43
4.25
6.07
6.89
6.91
6.41
5.68
4.84
3.95
2.98
1.94
0.94
0.12
-0.40
-0.57
-0.51
-0.40
-0.44
-0.74
-1.28
-1.99
-2.87
-4.03
-5.65
-7.78
-10.17
-12.25
-13.27
-12.64
-10.21
-6.37
-1.93
2.23
5.45
7.49
8.46
8.63
8.26
7.50
6.47
5.30
4.17
3.23
2.56
2.04
1.50
0.77
-0.17
-1.23
-2.22
-3.01
-3.61
-4.17
-4.93
-6.11
-7.82
-9.99
-12.36
-14.44
-15.65
-15.50
-13.72
-10.45
-6.22
-1.83
1.92
4.45
5.47
5.06
3.50
1.18
-1.47
-4.06
-6.27
-7.87
-8.81
-9.16
-9.11
-8.89
-8.67
-8.61
-8.82
-9.35
-10.24
-11.45
-12.96
-14.69
-16.62
-18.73
-20.97
-23.17
-25.08
-26.31
-26.49
-25.34
-22.84
-19.29
-15.27
-11.50
-8.68
-7.23
-7.19
-8.21
-9.63
-10.77
-11.09
-10.30
-8.34
-5.27
-1.22
3.66
9.18
15.12
21.19
27.16
32.85
38.11
42.75
46.41
48.64
49.00
47.37
44.15
40.27
36.89
35.11
35.53
38.19
42.60
48.05
53.82
59.31
63.95
67.19
68.49
67.42
63.82
57.96
50.45
42.10
33.65
25.60
18.19
11.45
5.39
0.13
-4.09
-7.01
-8.47
-8.48
-7.30
-5.32
-3.00
-0.72
1.26
2.90
4.33
5.83
7.70
10.22
13.46
17.30
21.40
25.29
28.55
30.82
32.01
32.20
31.64
30.68
29.66
28.90
28.61
28.92
29.74
30.79
31.49
31.07
28.64
23.39
14.85
3.03
-11.48
-27.70
-44.46
-60.69
-75.51
-88.29
-98.48
-105.64
-109.46
-109.89
-107.33
-102.61
-96.80
-90.96
-85.86
-81.89
-79.06
-77.17
-75.95
-75.15
-74.63
-74.28
-74.06
-73.86
-73.49
-72.71
-71.32
-69.25
-66.64
-63.69
-60.45
-56.68
-51.81
-45.26
-36.76
-26.65
-15.82
-5.27
4.46
13.64
23.26
34.50
48.08
63.80
80.58
96.96
111.59
123.66
132.70
138.29
139.82
136.64
128.48
115.96
100.59
84.48
69.54
56.88
46.59
38.08
30.53
23.41
16.47
9.67
2.83
-4.39
-12.47
-21.75
-32.21
-43.21
-53.44
-61.19
-64.80
-63.47
-57.84
-50.00
-42.82
-38.82
-39.18
-43.26
-49.10
-54.47
-57.91
-59.17
-59.01
-58.49
-58.24
-58.25
-58.01
-57.05
-55.29
-53.18
-51.44
-50.74
-51.35
-52.98
-54.98
-56.55
-57.17
-56.62
-55.06
-52.75
-49.80
-46.08
-41.29
-35.16
-27.66
-19.14
-10.27
-1.90
5.12
10.17
12.95
13.55
12.40
10.23
7.84
5.99
5.17
5.49
6.77
8.61
10.58
12.33
13.67
14.53
14.90
14.68
13.74
11.92
9.16
5.63
1.80
-1.62
-3.83
-4.20
-2.48
1.11
5.95
11.19
16.04
19.90
22.45
23.67
23.73
22.99
21.84
20.69
19.85
19.50
19.69
20.26
20.99
21.60
21.89
21.86
21.73
21.87
22.62
24.08
26.04
28.03
29.64
30.78
31.87
33.74
37.37
43.45
52.11
62.91
74.89
86.94
98.05
107.52
115.05
120.75
125.09
128.92
133.30
139.28
147.32
156.69
165.29
169.79
166.61
153.03
127.99
92.25
47.85
-2.58
-56.19
-109.78
-159.58
-201.36
-231.23
-246.87
-248.43
-238.60
-221.65
-201.83
-182.13
-163.79
-146.75
-130.55
-114.99
-100.44
-87.52
-76.62
-67.78
-60.78
-55.36
-51.40
-48.90
-47.80
-47.69
-47.82
-47.33
-45.61
-42.51
-38.43
-34.05
-30.14
-27.20
-25.51
-25.06
-25.68
-26.99
-28.49
-29.61
-29.86
-28.98
-27.04
-24.30
-21.10
-17.78
-14.56
-11.63
-9.20
-7.42
-6.35
-5.88
-5.68
-5.38
-4.69
-3.55
-2.12
-0.63
0.76
2.09
3.55
5.34
7.41
9.45
10.93
11.22
9.97
7.18
3.33
-0.68
-3.79
-5.04
-3.80
0.06
6.22
13.99
22.63
31.42
39.89
47.70
54.64
60.54
65.21
68.33
69.37
67.62
62.45
53.63
41.77
28.41
15.56
5.02
-2.50
-7.53
-11.50
-15.75
-20.75
-25.92
-30.26
-33.22
-35.33
-37.98
-42.52
-49.36
-57.52
-64.97
-69.54
-69.84
-65.73
-58.19
-48.72
-38.73
-29.17
-20.45
-12.62
-5.59
0.80
6.60
11.84
16.53
20.68
24.36
27.75
31.00
34.19
37.23
39.94
42.02
43.20
43.27
42.11
39.67
35.93
30.93
24.88
18.25
11.91
7.04
4.83
6.03
10.60
17.60
25.53
32.83
38.41
41.90
43.50
43.57
42.38
39.96
36.38
31.96
27.41
23.55
20.90
19.29
17.85
15.33
10.68
3.63
-5.21
-14.53
-22.91
-29.41
-33.83
-36.73
-39.03
-41.53
-44.55
-47.79
-50.44
-51.46
-49.91
-45.22
-37.41
-27.07
-15.27
-3.25
7.81
17.05
23.90
28.10
29.57
28.43
25.02
19.98
14.22
8.74
4.44
1.82
0.86
1.15
2.03
2.89
3.34
3.26
2.75
2.04
1.32
0.63
-0.18
-1.44
-3.51
-6.63
-10.70
-15.15
-19.01
-21.07
-20.26
-15.96
-8.33
1.76
12.97
23.89
33.37
40.86
46.21
49.60
51.21
51.17
49.63
46.87
43.49
40.30
38.12
37.56
38.78
41.53
45.21
49.15
52.74
55.58
57.49
58.51
58.71
58.14
56.78
54.50
51.15
46.63
41.00
34.54
27.80
21.56
16.79
14.42
15.07
18.85
25.23
33.16
41.35
48.61
54.05
57.21
58.00
56.58
53.29
48.63
43.21
37.75
32.90
29.12
26.59
25.07
24.10
23.03
21.38
18.90
15.69
12.13
8.61
5.35
2.31
-0.79
-4.34
-8.63
-13.74
-19.54
-25.66
-31.51
-36.29
-39.11
-39.16
-35.99
-29.70
-21.09
-11.40
-2.03
5.87
11.67
15.22
16.72
16.46
14.80
12.14
8.96
5.87
3.48
2.24
2.19
3.06
4.30
5.36
5.87
5.71
4.94
3.71
2.12
0.22
-2.06
-4.84
-8.27
-12.45
-17.36
-22.72
-28.04
-32.58
-35.54
-36.22
-34.27
-29.76
-23.25
-15.59
-7.77
-0.70
4.94
8.74
10.67
10.89
9.69
7.43
4.65
1.91
-0.17
-1.24
-1.31
-0.70
0.06
0.39
-0.16
-1.73
-4.15
-7.01
-9.96
-12.90
-15.73
-18.62
-22.03
-26.48
-32.22
-39.14
-46.41
-52.98
-57.88
-59.78
-58.02
-53.13
-46.69
-40.51
-36.26
-34.42
-35.00
-37.87
-41.16
-43.31
-43.91
-43.88
-44.34
-46.56
-49.94
-53.71
-57.33
-57.92
-53.27
-43.56
-31.33
-19.61
-11.09
-4.52
2.95
14.60
36.64
73.13
123.19
180.87
238.11
286.98
324.57
350.36
343.61
293.76
207.09
104.60
8.04
-60.90
-106.08
-133.14
-146.57
-149.51
-142.91
-125.91
-98.63
-63.16
-22.24
21.64
67.74
113.24
152.99
184.18
205.33
216.64
219.17
215.36
209.48
207.04
210.66
219.32
231.49
244.59
256.37
264.41
257.10
230.21
189.42
145.77
108.39
84.44
70.23
61.58
55.12
48.05
40.30
32.42
23.86
13.12
-0.93
-18.85
-39.55
-61.79
-84.50
-105.76
-124.37
-140.53
-155.67
-171.36
-189.00
-208.80
-230.94
-255.68
-282.14
-308.73
-333.04
-351.79
-361.41
-359.37
-344.70
-319.12
-286.47
-250.91
-216.07
-184.33
-156.85
-133.87
-115.35
-100.85
-89.84
-81.51
-74.61
-67.80
-60.16
-51.39
-41.77
-32.09
-23.10
-15.36
-9.10
-4.20
-0.40
2.50
4.49
5.34
4.67
2.26
-1.75
-6.67
-11.33
-14.32
-14.41
-11.01
-4.41
4.27
13.45
21.58
27.58
31.08
32.31
31.86
30.31
28.08
25.40
22.48
19.57
17.02
15.15
14.11
13.75
13.75
13.67
13.24
12.36
11.10
9.56
7.69
5.24
1.89
-2.53
-7.80
-13.19
-17.62
-19.96
-19.43
-15.97
-10.16
-3.08
4.12
10.48
15.46
18.85
20.62
20.89
19.77
17.57
14.73
11.84
9.44
7.84
6.98
6.48
5.74
4.29
1.88
-1.37
-5.07
-8.81
-12.39
-16.01
-20.19
-25.61
-32.70
-41.33
-50.75
-59.74
-67.02
-71.75
-73.72
-73.32
-71.23
-67.97
-63.68
-58.18
-51.29
-43.16
-34.38
-25.84
-18.37
-12.29
-7.43
-3.37
0.34
4.12
8.47
14.22
22.55
34.57
50.43
68.65
86.24
99.64
106.18
105.24
98.35
88.28
77.71
68.11
59.67
51.97
44.92
39.15
35.76
35.59
38.51
43.41
48.51
52.18
53.53
52.51
49.55
45.39
40.70
35.92
31.27
26.83
22.58
18.42
14.13
9.45
4.22
-1.57
-7.73
-13.91
-19.79
-25.25
-30.54
-36.26
-43.21
-52.16
-63.59
-77.32
-92.25
-106.36
-117.10
-122.03
-119.64
-109.88
-94.24
-75.18
-55.23
-36.18
-18.78
-2.85
12.14
26.56
40.40
53.33
64.75
73.91
79.94
81.98
79.53
72.75
62.66
50.86
39.12
28.72
20.26
13.79
9.27
6.80
6.67
8.84
12.61
16.47
18.55
17.30
12.22
4.04
-5.53
-14.47
-21.13
-24.68
-25.23
-23.49
-20.36
-16.61
-12.68
-8.68
-4.64
-0.60
3.29
6.78
9.64
11.75
13.14
13.91
14.24
14.25
14.08
13.90
13.90
14.30
15.26
16.84
18.96
21.34
23.52
24.97
25.20
23.97
21.46
18.34
15.70
14.70
16.25
20.62
27.38
35.51
43.74
50.92
56.30
59.60
60.90
60.57
59.04
56.80
54.33
52.08
50.38
49.42
49.13
49.20
49.23
48.84
47.82
46.17
44.04
41.58
38.78
35.37
30.91
24.87
16.87
6.96
-4.25
-15.54
-25.30
-32.00
-34.64
-33.14
-28.36
-21.78
-15.01
-9.34
-5.45
-3.49
-3.31
-4.68
-7.37
-11.16
-15.73
-20.57
-25.17
-29.14
-32.30
-34.75
-36.75
-38.51
-40.07
-41.31
-42.01
-41.99
-41.30
-40.20
-39.20
-38.86
-39.56
-41.25
-43.35
-44.79
-44.33
-40.94
-34.18
-24.44
-12.84
-0.86
10.02
18.73
24.62
27.54
27.59
25.11
20.65
14.98
9.07
3.83
-0.03
-2.23
-2.91
-2.59
-1.90
-1.45
-1.54
-2.27
-3.50
-4.97
-6.51
-8.07
-9.75
-11.73
-14.09
-16.65
-18.87
-19.92
-18.89
-15.15
-8.61
0.14
9.96
19.49
27.49
33.11
36.03
36.37
34.57
31.27
27.17
22.99
19.26
16.32
14.18
12.63
11.31
9.95
8.39
6.56
4.43
1.96
-0.92
-4.31
-8.24
-12.79
-17.97
-23.81
-30.17
-36.71
-42.79
-47.56
-50.18
-50.03
-46.95
-41.27
-33.83
-25.66
-17.83
-11.33
-6.89
-4.94
-5.42
-7.82
-11.10
-13.95
-15.05
-13.46
-8.98
-2.24
5.57
13.15
19.50
24.16
27.12
28.72
29.30
29.07
28.09
26.62
24.99
23.43
21.70
18.99
14.83
9.55
4.51
1.59
2.72
8.62
18.35
29.43
38.53
43.59
44.30
41.61
36.94
32.29
29.71
31.44
39.35
53.71
74.11
98.56
123.16
142.29
150.87
145.86
127.79
100.94
71.81
49.14
40.41
48.23
64.35
75.61
68.72
38.21
-6.43
-56.59
-103.66
-140.69
-162.07
-164.87
-149.20
-118.60
-79.85
-42.67
-18.74
-16.45
-38.24
-79.10
-127.92
-170.47
-194.46
-193.49
-169.00
-129.90
-87.95
-54.42
-37.38
-40.03
-59.65
-88.36
-115.45
-130.95
-129.16
-109.22
-74.73
-31.85
13.00
54.99
91.06
119.57
139.70
151.26
155.41
154.69
152.00
149.54
148.19
147.56
146.83
145.54
143.79
142.27
141.46
140.95
139.23
134.09
123.50
106.48
83.84
58.33
33.95
14.76
3.36
0.04
2.84
8.81
15.66
22.73
30.87
41.33
54.48
69.02
82.26
90.99
92.36
84.44
66.35
38.23
1.50
-40.98
-84.93
-125.25
-157.07
-176.88
-183.30
-177.22
-161.42
-139.74
-116.36
-94.90
-77.73
-65.61
-57.80
-52.81
-49.26
-46.51
-44.76
-44.76
-47.31
-53.15
-62.51
-74.94
-89.40
-104.32
-117.87
-128.36
-134.66
-136.58
-135.22
-131.94
-127.82
-123.48
-119.19
-115.16
-111.64
-109.02
-107.65
-108.30
-110.70
-113.59
-115.33
-114.68
-111.26
-105.40
-97.62
-88.10
-77.41
-64.79
-48.86
-28.51
-3.80
24.04
53.24
82.36
115.29
151.73
188.54
221.07
245.75
261.12
267.16
264.62
254.86
241.03
223.80
204.65
185.80
169.40
156.72
147.69
140.98
134.41
126.74
115.64
100.09
80.69
59.47
39.10
21.87
8.90
-0.02
-6.17
-11.79
-18.04
-24.82
-31.24
-36.50
-40.62
-44.47
-49.40
-56.43
-66.13
-77.70
-89.36
-99.08
-105.38
-107.72
-106.49
-102.54
-96.70
-89.51
-80.76
-69.96
-56.92
-42.24
-27.39
-14.35
-4.89
-0.02
0.14
-3.66
-10.19
-18.08
-26.00
-32.74
-37.29
-39.12
-38.32
-35.82
-33.08
-31.80
-33.24
-37.81
-44.88
-52.80
-59.39
-62.60
-61.33
-55.98
-48.56
-42.07
-39.34
-41.72
-48.22
-55.48
-58.77
-53.52
-37.08
-9.76
24.98
61.46
93.42
115.73
125.64
123.29
111.22
93.44
74.12
56.72
43.31
34.54
29.61
26.38
21.77
12.36
-4.61
-30.16
-62.79
-98.62
-132.46
-159.43
-176.55
-183.61
-182.96
-178.35
-173.52
-170.91
-171.43
-174.67
-179.70
-185.53
-191.33
-196.29
-199.55
-200.26
-197.95
-192.89
-186.09
-178.74
-171.65
-164.50
-155.93
-144.02
-127.16
-104.54
-76.31
-43.40
-7.06
31.59
71.68
112.30
152.03
188.76
220.24
244.76
261.95
272.90
279.71
284.81
289.95
295.73
301.45
306.10
308.53
307.60
301.95
290.37
272.86
250.65
225.83
199.79
173.74
147.90
121.84
94.75
66.52
38.95
14.40
-5.72
-22.93
-38.51
-53.12
-66.27
-77.38
-85.85
-89.84
-88.09
-80.82
-71.98
-63.94
-57.63
-52.28
-47.35
-41.92
-32.46
-14.91
13.40
49.78
92.17
138.06
185.06
228.90
253.18
246.00
206.88
164.62
131.51
111.26
97.25
86.33
75.11
61.57
47.74
37.17
32.27
29.76
26.89
20.20
7.08
-16.88
-54.81
-104.86
-161.52
-217.73
-269.75
-313.33
-345.96
-355.80
-336.36
-290.85
-230.87
-170.49
-119.62
-87.05
-69.62
-62.69
-61.28
-63.20
-67.46
-70.85
-70.83
-66.01
-57.66
-47.59
-38.67
-32.80
-31.87
-36.31
-44.49
-53.75
-61.29
-65.50
-65.17
-60.05
-49.73
-34.34
-13.77
12.67
45.64
84.97
128.62
172.77
212.10
241.83
258.90
263.14
257.20
245.10
230.46
215.03
198.67
180.11
158.56
134.44
109.29
84.92
62.44
41.97
23.11
5.79
-9.38
-21.26
-28.94
-32.63
-33.87
-34.86
-37.34
-41.74
-47.06
-51.59
-53.86
-53.36
-50.66
-47.15
-44.41
-43.70
-45.57
-49.74
-55.19
-60.51
-64.31
-65.68
-64.38
-60.83
-55.81
-50.09
-44.30
-38.86
-34.13
-30.44
-28.06
-27.01
-26.89
-27.02
-26.64
-25.30
-23.05
-20.41
-18.04
-16.38
-15.41
-14.67
-13.53
-11.60
-9.00
-6.49
-5.08
-5.66
-8.55
-13.40
-19.25
-24.89
-29.13
-31.08
-30.21
-26.46
-20.23
-12.34
-3.96
3.65
9.45
12.86
13.87
12.88
10.61
7.76
4.94
2.63
1.11
0.49
0.64
1.29
2.09
2.75
3.11
3.17
2.98
2.53
1.72
0.32
-1.89
-5.03
-8.95
-13.26
-17.27
-20.13
-21.00
-19.20
-14.47
-7.01
2.47
12.96
23.34
32.60
40.01
45.15
48.00
48.79
48.06
46.42
44.50
42.72
41.27
40.06
38.84
37.40
35.66
33.73
31.75
29.85
28.00
26.08
23.92
21.40
18.47
15.17
11.60
7.96
4.56
1.75
-0.04
-0.42
0.82
3.66
7.70
12.26
16.47
19.53
20.91
20.40
18.21
14.75
10.55
6.11
1.87
-1.87
-4.87
-7.06
-8.58
-9.72
-10.88
-12.44
-14.56
-17.16
-19.93
-22.43
-24.25
-25.19
-25.32
-24.98
-24.59
-24.48
-24.61
-24.56
-23.72
-21.52
-17.83
-12.96
-7.61
-2.57
1.58
4.57
6.43
7.24
7.07
5.92
3.87
1.14
-1.85
-4.61
-6.65
-7.73
-7.81
-7.15
-6.19
-5.49
-5.55
-6.64
-8.78
-11.74
-15.23
-19.08
-23.24
-27.77
-32.52
-37.07
-40.69
-42.55
-42.11
-39.38
-34.95
-29.84
-25.06
-21.36
-19.05
-18.11
-18.40
-19.78
-22.12
-25.08
-28.06
-30.18
-30.69
-29.36
-26.70
-23.81
-21.92
-21.72
-23.04
-25.02
-26.53
-26.84
-25.90
-24.28
-22.80
-22.00
-21.99
-22.45
-22.96
-23.24
-23.17
-22.71
-21.65
-19.57
-15.99
-10.69
-3.98
3.23
9.71
14.28
16.29
15.77
13.39
10.07
6.67
3.73
1.49
-0.09
-1.13
-1.75
-2.10
-2.29
-2.40
-2.47
-2.57
-2.75
-3.22
-4.17
-5.73
-7.66
-9.35
-9.85
-8.26
-4.10
2.40
10.33
18.45
25.55
30.87
34.13
35.40
34.93
32.96
29.76
25.62
20.98
16.31
11.99
8.22
4.95
2.04
-0.70
-3.29
-5.62
-7.45
-8.59
-8.97
-8.71
-8.12
-7.63
-7.65
-8.47
-10.14
-12.41
-14.69
-16.22
-16.20
-14.11
-9.90
-4.07
2.46
8.67
13.71
17.22
19.26
20.21
20.49
20.37
19.93
19.16
18.06
16.74
15.36
14.01
12.66
11.13
9.28
7.08
4.74
2.68
1.30
0.83
1.14
1.79
2.16
1.65
-0.05
-2.82
-6.11
-9.06
-10.80
-10.65
-8.33
-4.00
1.78
8.28
14.83
20.95
26.34
30.88
34.39
36.66
37.52
36.95
35.15
32.62
30.01
27.92
26.74
26.52
27.01
27.78
28.33
28.30
27.49
25.91
23.70
21.07
18.20
15.15
11.81
7.93
3.22
-2.44
-8.85
-15.39
-21.14
-25.15
-26.88
-26.35
-24.32
-21.94
-20.48
-20.87
-23.54
-28.34
-34.65
-41.48
-47.61
-51.79
-52.99
-50.76
-45.46
-38.18
-30.43
-23.59
-18.47
-15.10
-12.93
-11.23
-9.51
-7.74
-6.19
-5.26
-5.25
-6.33
-8.56
-11.99
-16.62
-22.26
-28.45
-34.49
-39.62
-43.35
-45.66
-47.02
-48.25
-50.23
-53.55
-58.24
-63.73
-68.98
-72.89
-74.75
-74.48
-72.57
-69.62
-65.73
-60.30
-52.34
-41.24
-27.58
-13.26
-0.91
7.33
10.73
10.25
7.90
5.74
5.18
7.06
12.21
21.87
37.42
59.38
86.33
114.77
140.33
159.85
173.05
182.67
192.82
206.39
223.08
239.21
249.43
249.36
237.64
216.43
190.20
163.55
139.55
118.87
100.16
81.09
59.53
34.47
6.51
-22.30
-49.11
-71.13
-86.75
-96.12
-101.15
-105.02
-111.55
-124.23
-145.00
-173.14
-204.13
-229.68
-239.36
-224.01
-179.85
-111.35
-31.05
44.08
98.54
123.72
120.33
96.91
65.33
35.90
14.33
1.65
-3.80
-3.93
0.34
8.75
20.48
33.42
44.60
51.63
54.66
57.10
64.39
81.44
109.75
146.16
183.62
213.62
228.98
226.69
208.62
180.37
148.64
118.44
91.53
66.44
39.67
6.67
-35.65
-87.26
-144.17
-198.73
-241.00
-261.01
-251.90
-213.00
-153.46
-88.44
-33.89
-0.98
6.64
-7.30
-34.40
-65.18
-92.26
-115.76
-137.04
-154.21
-160.29
-146.47
-107.38
-44.78
31.66
106.67
157.18
165.92
129.12
58.08
-27.83
-110.60
-179.83
-234.08
-278.71
-330.63
-403.34
-499.89
-612.18
-728.00
-838.36
-939.65
-1031.03
-1054.68
-972.59
-786.91
-543.50
-299.35
-92.22
64.85
174.80
248.06
296.64
321.65
323.00
304.12
274.50
244.43
223.13
214.36
217.91
231.27
243.98
246.87
235.83
213.27
184.91
156.21
130.88
111.71
100.89
92.82
83.29
70.67
56.85
45.31
38.73
37.65
40.94
46.59
50.57
50.74
47.86
45.48
47.70
56.82
72.24
91.23
110.31
125.58
134.60
136.42
131.64
121.94
109.96
99.20
93.74
97.23
111.44
135.29
164.70
193.97
217.81
233.21
239.99
240.22
236.64
231.27
224.74
216.66
206.55
194.72
182.42
171.26
162.34
155.66
150.19
144.47
137.34
128.41
118.15
107.42
96.95
86.97
77.17
66.97
55.99
44.26
32.29
20.91
10.92
2.80
-3.42
-8.20
-12.24
-16.31
-20.98
-26.55
-33.01
-40.03
-47.06
-53.36
-58.12
-60.67
-60.72
-58.47
-54.63
-50.17
-45.96
-42.57
-40.13
-38.51
-37.52
-37.10
-37.33
-38.34
-40.16
-42.68
-45.64
-48.73
-51.65
-54.20
-56.23
-57.75
-58.89
-59.87
-60.96
-62.31
-63.89
-65.36
-66.16
-65.55
-62.78
-57.35
-49.22
-38.88
-27.40
-16.12
-6.35
0.91
5.19
6.54
5.40
2.39
-1.75
-6.37
-10.93
-15.10
-18.72
-21.78
-24.31
-26.26
-27.55
-28.11
-28.00
-27.54
-27.25
-27.71
-29.34
-32.11
-35.39
-38.04
-38.77
-36.57
-31.17
-23.10
-13.57
-3.95
4.65
11.67
17.13
21.35
24.69
27.37
29.43
30.87
31.81
32.52
33.47
35.13
37.83
41.58
46.06
50.71
54.88
58.04
59.92
60.52
60.17
59.50
59.26
60.26
62.97
67.31
72.54
77.42
80.61
81.12
78.52
72.94
64.67
53.79
40.01
22.77
1.50
-23.96
-53.04
-84.19
-114.94
-142.08
-162.36
-173.30
-174.09
-165.98
-152.08
-136.40
-122.58
-112.83
-107.41
-104.91
-103.08
-99.70
-93.35
-83.61
-71.01
-56.64
-41.80
-27.66
-15.14
-4.89
2.66
7.27
8.94
7.95
4.95
0.85
-3.38
-6.94
-9.47
-11.06
-12.15
-13.36
-15.17
-17.78
-21.16
-25.06
-29.10
-32.80
-35.53
-36.52
-35.00
-30.44
-22.80
-12.65
-1.08
10.65
21.40
30.35
36.99
41.06
42.39
40.95
36.93
30.81
23.39
15.66
8.64
3.19
-0.18
-1.47
-1.28
-0.68
-0.90
-3.04
-7.59
-14.33
-22.18
-29.59
-34.83
-36.47
-33.75
-26.77
-16.46
-4.28
8.20
19.66
29.30
36.84
42.33
45.97
47.95
48.41
47.46
45.24
41.93
37.74
32.97
27.95
23.04
18.57
14.73
11.41
8.15
4.21
-1.14
-8.19
-16.55
-25.02
-31.95
-35.83
-35.89
-32.36
-26.32
-19.14
-11.82
-4.74
2.32
9.61
16.99
23.76
28.96
31.95
32.80
32.40
32.04
32.79
35.07
38.53
42.28
45.38
47.07
46.97
45.00
41.25
36.09
30.23
24.74
20.84
19.53
21.21
25.45
31.22
37.16
42.14
45.45
46.80
46.15
43.55
39.07
32.96
25.80
18.51
12.19
7.84
5.99
6.53
8.74
11.52
13.67
14.28
12.83
9.28
3.97
-2.49
-9.22
-15.11
-18.90
-19.44
-16.06
-8.90
0.98
11.80
21.67
29.10
33.41
34.75
33.77
31.25
27.77
23.70
19.22
14.52
9.86
5.57
1.90
-1.04
-3.34
-5.25
-7.11
-9.21
-11.79
-15.00
-18.95
-23.62
-28.76
-33.73
-37.52
-38.89
-36.81
-30.80
-21.24
-9.32
3.30
14.90
24.17
30.42
33.57
33.95
32.17
28.93
24.94
20.81
16.98
13.73
11.15
9.23
7.82
6.80
5.93
4.96
3.65
1.81
-0.70
-3.98
-8.13
-13.20
-19.01
-24.87
-29.63
-31.86
-30.38
-24.80
-15.77
-4.84
6.07
15.35
22.08
26.11
27.76
27.52
25.77
22.78
18.89
14.54
10.30
6.66
3.89
1.89
0.28
-1.46
-3.83
-7.06
-11.14
-15.82
-20.85
-26.09
-31.60
-37.58
-44.08
-50.87
-57.28
-62.30
-64.88
-64.21
-59.99
-52.46
-42.31
-30.42
-17.64
-4.64
8.10
20.13
30.98
40.16
47.31
52.42
55.88
58.40
60.71
63.18
65.62
67.48
68.05
67.01
64.54
61.33
58.20
55.75
54.04
52.65
50.93
48.40
45.04
41.38
38.22
36.33
36.14
37.67
40.62
44.53
48.93
53.33
57.17
59.81
60.69
59.53
56.43
51.93
46.71
41.40
36.30
31.50
26.83
22.10
17.20
12.04
6.55
0.65
-5.74
-12.70
-20.24
-28.41
-37.20
-46.48
-55.92
-64.85
-72.33
-77.36
-79.22
-77.77
-73.55
-67.62
-61.23
-55.40
-50.69
-47.23
-44.79
-43.11
-41.96
-41.20
-40.65
-40.03
-38.96
-37.12
-34.36
-30.87
-27.13
-23.73
-21.16
-19.61
-18.93
-18.80
-18.99
-19.44
-20.36
-22.03
-24.47
-27.24
-29.49
-30.20
-28.59
-24.54
-18.60
-11.82
-5.35
-0.11
3.43
5.13
5.18
3.88
1.60
-1.24
-4.20
-6.88
-8.97
-10.30
-10.85
-10.76
-10.30
-9.81
-9.63
-10.03
-11.08
-12.69
-14.70
-16.97
-19.50
-22.32
-25.29
-27.94
-29.45
-28.87
-25.55
-19.47
-11.38
-2.55
5.65
12.20
16.65
19.03
19.60
18.62
16.31
12.95
9.00
5.08
1.83
-0.36
-1.45
-1.77
-1.76
-1.81
-2.08
-2.62
-3.48
-4.83
-6.94
-10.04
-14.13
-18.86
-23.51
-27.06
-28.54
-27.25
-23.04
-16.45
-8.48
-0.37
6.74
12.12
15.50
16.97
16.82
15.42
13.15
10.39
7.59
5.11
3.23
2.06
1.50
1.35
1.34
1.18
0.66
-0.40
-2.04
-4.19
-6.73
-9.46
-12.17
-14.58
-16.33
-16.93
-15.96
-13.19
-8.73
-3.09
2.93
8.50
12.94
15.84
17.09
16.77
15.10
12.37
9.00
5.42
2.05
-0.81
-3.03
-4.66
-5.81
-6.65
-7.28
-7.80
-8.30
-8.88
-9.66
-10.80
-12.47
-14.82
-17.80
-21.14
-24.20
-26.08
-25.91
-23.15
-17.91
-11.03
-3.81
2.41
6.62
8.47
8.19
6.35
3.56
0.32
-3.05
-6.40
-9.54
-12.35
-14.75
-16.71
-18.27
-19.54
-20.60
-21.53
-22.44
-23.44
-24.65
-26.16
-28.01
-30.13
-32.38
-34.48
-36.01
-36.42
-35.09
-31.50
-25.36
-16.80
-6.31
5.39
17.66
30.04
42.39
54.76
67.27
79.97
92.79
105.59
118.12
130.04
140.92
150.19
157.11
160.97
161.14
157.31
149.60
138.61
125.25
110.35
94.47
77.72
59.99
41.25
21.93
2.91
-14.62
-29.66
-41.71
-50.93
-57.95
-63.52
-68.24
-72.36
-75.93
-78.87
-81.11
-82.63
-83.41
-83.35
-82.34
-80.28
-77.17
-73.14
-68.49
-63.59
-58.85
-54.56
-50.92
-47.94
-45.53
-43.53
-41.80
-40.29
-39.00
-37.89
-36.76
-35.20
-32.69
-28.83
-23.53
-17.16
-10.46
-4.33
0.47
3.50
4.70
4.32
2.76
0.48
-2.06
-4.48
-6.45
-7.71
-8.21
-8.03
-7.44
-6.78
-6.36
-6.40
-6.96
-8.03
-9.61
-11.76
-14.55
-17.93
-21.59
-24.90
-27.02
-27.17
-24.93
-20.46
-14.41
-7.78
-1.59
3.42
6.90
8.87
9.56
9.30
8.38
7.07
5.60
4.22
3.19
2.72
2.92
3.74
4.93
6.11
6.91
7.07
6.48
5.18
3.25
0.79
-2.02
-4.87
-7.19
-8.26
-7.43
-4.41
0.56
6.72
12.99
18.37
22.11
23.91
23.80
22.02
18.84
14.65
9.80
4.72
-0.20
-4.63
-8.31
-11.13
-13.03
-14.09
-14.51
-14.60
-14.73
-15.29
-16.57
-18.69
-21.64
-25.10
-28.54
-31.18
-32.17
-30.80
-26.79
-20.47
-12.70
-4.72
2.33
7.67
11.05
12.67
12.97
12.36
11.17
9.61
7.88
6.21
4.83
3.93
3.49
3.38
3.34
3.14
2.65
1.88
0.86
-0.37
-1.87
-3.78
-6.18
-8.92
-11.58
-13.43
-13.71
-11.81
-7.61
-1.52
5.54
12.48
18.34
22.48
24.75
25.32
24.59
22.98
20.90
18.69
16.64
15.03
14.01
13.60
13.64
13.87
13.95
13.62
12.73
11.18
8.94
6.00
2.37
-1.89
-6.59
-11.33
-15.53
-18.50
-19.57
-18.39
-15.08
-10.27
-5.04
-0.52
2.39
3.27
2.23
-0.34
-4.00
-8.41
-13.39
-18.69
-23.91
-28.46
-31.87
-33.98
-35.21
-36.36
-38.30
-41.58
-46.11
-51.30
-56.36
-60.75
-64.48
-68.15
-72.49
-77.96
-84.24
-90.12
-93.89
-93.70
-88.12
-76.38
-58.61
-35.71
-9.45
17.76
43.29
64.81
81.23
93.12
102.45
111.56
121.77
132.43
141.11
144.80
141.42
130.81
114.55
95.01
74.13
52.72
30.69
7.80
-15.70
-38.88
-60.48
-79.55
-95.66
-108.71
-118.62
-125.00
-127.27
-124.91
-117.93
-106.99
-93.45
-78.90
-64.66
-51.37
-38.97
-27.02
-15.25
-3.97
5.95
13.39
17.56
18.36
16.37
12.57
7.87
2.89
-2.07
-6.80
-11.11
-14.77
-17.73
-20.27
-22.87
-26.02
-29.86
-33.96
-37.35
-38.82
-37.28
-32.17
-23.73
-12.85
-0.94
10.57
20.53
28.29
33.73
37.14
38.96
39.65
39.57
39.01
38.21
37.46
36.96
36.83
37.05
37.39
37.63
37.64
37.52
37.53
37.89
38.53
39.19
39.15
37.54
33.58
27.09
18.68
9.77
2.13
-2.50
-2.76
1.74
10.34
21.43
33.03
43.30
50.94
55.29
56.32
54.86
51.76
47.69
42.97
37.72
32.17
26.67
21.32
16.12
12.14
10.11
10.15
11.70
14.04
16.82
20.07
23.43
26.76
32.27
41.45
54.14
68.14
80.30
88.42
92.04
91.57
89.49
92.83
107.22
134.58
171.94
213.22
252.60
286.31
311.80
330.36
350.11
378.44
419.12
470.62
527.88
586.05
641.99
692.40
699.39
636.64
499.26
310.85
109.58
-72.81
-220.08
-319.79
-384.31
-423.32
-437.13
-425.03
-389.44
-337.88
-283.63
-238.22
-208.92
-199.24
-205.81
-218.64
-228.81
-231.89
-229.34
-226.27
-227.22
-234.12
-247.33
-263.79
-277.68
-284.89
-284.11
-277.07
-266.81
-255.28
-242.74
-228.96
-212.31
-190.69
-163.58
-132.37
-100.10
-70.33
-45.69
-27.48
-16.19
-11.09
-10.90
-14.51
-20.98
-29.41
-38.67
-47.27
-53.81
-57.44
-57.77
-55.05
-49.81
-42.63
-34.04
-24.69
-15.40
-7.12
-0.66
3.56
5.60
5.90
5.12
4.00
3.47
4.65
8.77
16.76
28.81
44.06
60.76
76.79
90.38
100.70
108.00
113.25
117.55
121.51
124.98
127.18
127.20
124.51
119.23
112.05
103.86
95.39
86.97
78.64
70.47
62.87
56.69
53.01
52.74
56.09
62.27
69.54
75.59
78.25
76.10
69.03
58.23
45.79
34.06
24.92
19.32
17.16
17.55
19.16
20.77
21.65
21.96
22.83
26.14
33.72
46.40
63.03
80.40
94.03
99.68
94.93
80.00
57.53
31.31
4.89
-19.27
-40.01
-56.85
-69.46
-77.50
-80.84
-80.07
-76.71
-72.87
-70.67
-71.45
-75.35
-81.39
-88.00
-93.73
-97.82
-100.31
-101.82
-103.10
-104.58
-106.16
-107.16
-106.54
-103.20
-96.23
-85.23
-70.59
-53.51
-35.84
-19.56
-6.17
3.63
10.10
14.11
16.59
18.26
19.44
20.27
20.91
21.69
23.02
25.17
28.17
31.72
35.28
38.25
40.17
40.80
40.18
38.65
36.71
34.83
33.24
31.69
29.48
25.71
19.62
11.13
0.96
-9.43
-18.33
-24.30
-26.60
-25.25
-20.90
-14.59
-7.49
-0.89
3.99
6.27
5.79
3.38
0.74
-0.23
1.79
6.96
14.17
21.67
27.84
31.96
34.45
36.58
39.94
45.71
54.23
64.86
76.19
86.53
94.40
98.93
99.89
97.54
92.25
84.23
73.39
59.38
41.75
20.19
-5.32
-34.18
-65.01
-95.51
-122.60
-142.93
-153.62
-153.03
-141.44
-121.32
-97.10
-74.35
-58.62
-54.21
-63.09
-84.61
-115.82
-152.48
-190.16
-225.13
-254.74
-277.38
-292.13
-298.54
-296.56
-286.51
-269.27
-246.13
-218.75
-188.81
-157.78
-126.76
-96.55
-67.72
-40.93
-16.96
3.41
19.63
31.76
40.46
46.86
52.03
56.54
60.37
63.01
64.05
63.61
62.48
61.92
63.12
66.76
72.81
80.61
89.14
97.30
104.16
109.04
111.68
112.29
111.47
109.95
108.27
106.47
104.10
100.56
95.56
89.45
83.07
77.40
73.02
69.88
67.47
65.17
62.65
60.08
57.85
56.31
55.48
55.04
54.52
53.57
52.16
50.61
49.36
48.74
48.76
49.11
49.22
48.48
46.50
43.18
38.84
34.15
29.98
27.22
26.58
28.37
32.45
38.25
44.89
51.34
56.62
59.87
60.51
58.21
53.01
45.23
35.48
24.52
13.15
2.14
-7.85
-16.28
-22.90
-27.79
-31.51
-34.90
-38.91
-44.22
-51.07
-59.28
-68.42
-78.13
-88.13
-98.18
-107.85
-116.36
-122.65
-125.72
-124.91
-120.19
-112.18
-101.94
-90.69
-79.55
-69.43
-60.98
-54.69
-50.84
-49.49
-50.32
-52.52
-54.82
-55.70
-53.87
-48.72
-40.50
-30.30
-19.56
-9.62
-1.34
4.98
9.39
12.14
13.45
13.55
12.73
11.41
10.02
8.93
8.22
7.79
7.44
7.00
6.49
6.07
5.90
6.10
6.60
7.17
7.40
6.81
4.95
1.54
-3.35
-9.24
-15.19
-20.06
-22.87
-23.13
-21.01
-17.34
-13.29
-9.95
-8.03
-7.73
-8.74
-10.50
-12.42
-14.01
-15.01
-15.32
-14.99
-14.15
-12.93
-11.34
-9.23
-6.27
-2.13
3.45
10.38
18.25
26.37
33.97
40.35
44.99
47.63
48.27
47.15
44.73
41.63
38.48
35.80
33.90
32.84
32.50
32.67
33.18
33.87
34.66
35.49
36.34
37.15
37.89
38.53
39.03
39.36
39.48
39.44
39.39
39.60
40.40
42.04
44.52
47.51
50.43
52.58
53.36
52.46
49.92
45.99
41.07
35.53
29.69
23.79
18.04
12.67
7.84
3.71
0.28
-2.55
-5.00
-7.34
-9.72
-12.16
-14.52
-16.62
-18.42
-20.09
-21.97
-24.36
-27.32
-30.51
-33.31
-34.97
-34.87
-32.74
-28.70
-23.21
-16.96
-10.68
-5.00
-0.36
3.11
5.49
7.06
8.13
9.01
9.95
11.10
12.52
14.13
15.72
16.97
17.52
17.20
16.06
14.38
12.54
10.85
9.32
7.76
5.73
2.83
-1.13
-5.92
-10.90
-15.18
-17.77
-18.01
-15.75
-11.42
-5.92
-0.31
4.50
7.91
9.70
9.99
9.07
7.43
5.67
4.45
4.29
5.47
7.81
10.66
13.14
14.36
13.81
11.40
7.43
2.29
-3.83
-10.95
-19.13
-28.18
-37.39
-45.51
-51.09
-52.98
-50.71
-44.64
-35.77
-25.32
-14.38
-3.68
6.34
15.45
23.30
29.39
33.07
33.58
30.23
22.58
10.58
-5.13
-23.01
-40.63
-55.09
-63.76
-65.45
-61.30
-54.94
-51.60
-56.17
-70.98
-94.42
-121.09
-143.61
-155.40
-152.91
-136.67
-110.57
-79.97
-49.79
-23.30
-2.01
13.61
23.43
27.32
25.42
18.70
9.24
-0.10
-6.48
-8.00
-4.50
2.27
9.19
12.94
11.29
4.20
-6.09
-15.95
-21.97
-22.53
-18.47
-12.56
-7.82
-5.83
-5.80
-5.01
-0.43
9.55
24.03
40.02
53.73
62.13
63.82
59.15
49.68
37.44
24.38
12.08
1.57
-6.89
-13.77
-19.96
-26.20
-32.42
-37.60
-40.16
-38.89
-33.85
-26.77
-20.55
-18.23
-21.81
-31.41
-45.32
-60.63
-74.24
-83.78
-88.18
-87.62
-83.04
-75.62
-66.35
-55.95
-44.96
-34.02
-23.96
-15.60
-9.58
-6.04
-4.58
-4.38
-4.52
-4.22
-3.07
-1.12
1.24
3.44
5.00
5.68
5.51
4.60
3.07
0.92
-1.81
-4.79
-7.26
-8.12
-6.21
-0.78
8.15
19.75
32.57
45.03
55.83
64.18
69.78
72.69
73.17
71.57
68.38
64.14
59.39
54.49
49.53
44.42
39.10
33.81
29.08
25.47
23.15
21.53
19.47
15.72
9.56
1.21
-8.23
-17.30
-24.71
-29.74
-32.31
-32.73
-31.46
-28.91
-25.46
-21.43
-17.09
-12.65
-8.29
-4.29
-1.04
1.07
1.90
1.74
1.34
1.68
3.52
7.16
12.40
18.79
25.92
33.63
41.91
50.59
59.22
67.06
73.36
77.58
79.59
79.63
78.16
75.73
72.97
70.56
69.25
69.61
71.87
75.68
80.17
84.18
86.69
87.06
85.19
81.37
76.08
69.78
62.80
55.49
48.24
41.53
35.82
31.44
28.51
26.79
25.81
24.91
23.50
21.12
17.61
12.99
7.40
0.98
-6.15
-13.70
-21.18
-27.83
-32.94
-36.13
-37.68
-38.35
-39.03
-40.08
-41.05
-40.88
-38.47
-33.39
-26.14
-18.00
-10.37
-4.27
0.01
2.67
4.01
4.21
3.22
0.99
-2.31
-6.21
-10.01
-13.05
-14.84
-15.21
-14.27
-12.28
-9.45
-5.81
-1.24
4.35
10.68
16.96
21.95
24.34
23.39
19.35
13.43
7.28
2.30
-0.93
-2.64
-3.43
-3.88
-4.33
-5.07
-6.58
-9.61
-14.76
-22.02
-30.47
-38.43
-43.99
-45.69
-42.90
-35.85
-25.48
-13.22
-0.84
9.82
17.22
20.50
19.77
15.99
10.60
4.98
0.08
-3.65
-6.09
-7.21
-7.04
-5.73
-3.66
-1.54
-0.23
-0.49
-2.72
-6.72
-11.78
-16.88
-21.14
-24.08
-25.83
-27.00
-28.39
-30.64
-34.01
-38.32
-42.95
-46.94
-49.07
-48.07
-43.01
-33.63
-20.65
-5.71
9.15
22.14
32.34
39.83
45.42
50.08
54.46
58.71
62.64
65.96
68.47
70.10
70.77
70.34
68.65
65.54
60.88
54.55
46.42
36.39
24.52
11.19
-2.87
-16.75
-29.47
-40.32
-48.98
-55.44
-60.12
-63.65
-66.86
-70.52
-75.14
-80.60
-86.12
-90.27
-91.50
-88.55
-81.03
-69.48
-55.29
-40.18
-25.77
-13.20
-3.06
4.56
9.92
13.45
15.64
16.96
17.68
17.94
17.69
16.95
15.94
15.14
15.20
16.62
19.50
23.38
27.35
30.36
31.46
30.09
26.06
19.65
11.50
2.60
-5.81
-12.58
-17.01
-19.17
-19.97
-20.74
-22.56
-25.58
-28.88
-30.75
-29.42
-23.92
-14.50
-2.55
9.89
20.70
28.18
31.40
30.40
26.24
20.84
16.45
14.87
16.86
22.00
29.12
36.92
44.55
51.56
57.59
62.01
63.95
62.56
57.38
48.59
36.99
23.94
11.15
0.54
-6.10
-7.71
-4.60
1.56
8.20
12.93
14.44
12.80
8.99
4.07
-1.30
-6.91
-12.58
-17.85
-22.08
-24.83
-26.20
-26.71
-26.95
-27.03
-26.49
-24.53
-20.54
-14.48
-6.95
1.00
8.35
14.26
18.20
19.84
19.10
16.10
11.31
5.49
-0.39
-5.45
-9.21
-11.90
-14.44
-18.17
-24.26
-33.20
-44.62
-57.46
-70.58
-83.06
-94.12
-102.79
-107.62
-106.99
-99.85
-86.56
-69.07
-50.23
-32.45
-16.59
-1.69
14.11
32.19
52.39
72.94
91.37
105.73
115.46
121.38
125.03
127.73
129.92
131.14
130.41
126.90
120.41
111.43
100.91
89.77
78.46
66.98
54.97
42.12
28.35
13.84
-1.11
-16.15
-30.86
-44.56
-56.25
-64.71
-68.92
-68.52
-64.10
-57.16
-49.63
-43.31
-39.36
-38.02
-38.81
-40.63
-42.21
-42.26
-39.79
-34.13
-25.13
-13.12
1.10
16.42
31.58
45.37
56.74
64.92
69.41
70.02
66.79
60.03
50.26
38.20
24.72
10.77
-2.76
-15.24
-26.44
-36.50
-45.76
-54.40
-62.07
-67.84
-70.35
-68.43
-61.62
-50.50
-36.53
-21.52
-7.05
5.93
17.10
26.47
33.99
39.34
41.98
41.47
37.80
31.62
24.14
16.85
11.07
7.57
6.36
6.78
7.80
8.54
8.50
7.71
6.48
5.09
3.54
1.61
-0.93
-4.02
-7.25
-9.95
-11.59
-12.12
-11.89
-11.51
-11.37
-11.49
-11.67
-11.86
-12.52
-14.61
-19.05
-26.16
-35.36
-45.48
-55.50
-65.28
-75.62
-87.67
-101.88
-117.33
-131.78
-142.64
-148.16
-148.19
-144.01
-137.35
-129.50
-120.84
-111.23
-100.74
-90.11
-80.52
-72.79
-66.85
-61.51
-55.30
-47.33
-37.90
-28.26
-19.83
-13.27
-8.15
-3.36
2.12
8.53
15.22
21.07
25.14
27.01
26.91
25.39
23.00
20.12
16.99
13.92
11.28
9.51
8.92
9.62
11.43
14.09
17.32
20.91
24.56
27.63
29.00
27.16
20.77
9.32
-6.25
-23.51
-39.18
-50.06
-53.97
-50.27
-39.78
-24.25
-5.84
13.35
31.48
47.15
59.58
68.72
75.32
80.59
85.72
91.38
97.51
103.48
108.48
111.93
113.58
113.52
111.97
109.18
105.45
101.13
96.65
92.44
88.71
85.37
82.03
78.06
72.94
66.48
59.01
51.41
44.87
40.60
39.32
41.01
44.83
49.42
53.38
55.74
56.29
55.43
53.82
51.96
49.87
47.13
43.01
36.86
28.28
17.33
4.56
-9.09
-22.29
-33.56
-41.55
-45.36
-44.81
-40.53
-33.81
-26.19
-19.05
-13.27
-9.28
-7.12
-6.67
-7.63
-9.53
-11.54
-12.61
-11.73
-8.32
-2.60
4.42
11.27
16.58
19.63
20.54
20.15
19.57
19.69
20.89
23.02
25.63
28.30
30.81
33.25
35.98
39.36
43.62
48.63
53.75
57.86
59.51
57.38
50.79
40.20
27.22
14.15
3.08
-4.91
-10.09
-13.77
-17.59
-22.73
-29.42
-36.94
-43.89
-48.65
-49.78
-46.44
-38.78
-28.06
-16.63
-7.41
-2.99
-4.71
-12.15
-23.31
-35.44
-46.06
-53.69
-58.03
-59.63
-59.32
-57.81
-55.59
-53.12
-50.99
-49.80
-49.94
-51.25
-52.94
-53.96
-53.38
-50.85
-46.69
-41.55
-36.12
-30.67
-25.15
-19.44
-13.67
-8.51
-5.02
-4.22
-6.57
-11.51
-17.55
-22.73
-25.46
-25.18
-22.71
-20.02
-19.63
-23.82
-33.89
-49.61
-68.84
-87.71
-101.27
-105.02
-96.60
-77.33
-52.39
-29.39
-15.51
-14.71
-26.15
-44.81
-63.81
-77.37
-82.68
-80.25
-72.61
-62.62
-52.19
-42.15
-32.80
-24.56
-18.21
-14.52
-13.65
-14.82
-16.49
-17.05
-15.56
-12.28
-8.56
-6.21
-6.71
-10.41
-16.30
-22.42
-26.65
-27.64
-25.26
-20.56
-15.11
-10.20
-6.25
-2.70
1.57
7.53
15.52
25.01
34.81
43.58
50.36
54.85
57.44
58.85
59.75
60.39
60.59
59.91
58.01
54.98
51.40
48.10
45.78
44.77
44.89
45.63
46.44
46.97
47.09
46.81
46.07
44.74
42.64
39.75
36.39
33.26
31.30
31.42
34.11
39.18
45.74
52.47
57.98
61.31
62.11
60.66
57.60
53.60
49.10
44.28
39.15
33.76
28.20
22.68
17.38
12.44
7.91
3.81
0.20
-2.86
-5.34
-7.37
-9.22
-11.30
-14.01
-17.51
-21.60
-25.54
-28.25
-28.64
-26.02
-20.50
-13.03
-5.15
1.58
6.14
8.33
8.68
8.09
7.26
6.42
5.25
3.04
-0.87
-6.80
-14.48
-23.02
-31.07
-37.14
-40.03
-39.23
-35.19
-29.30
-23.54
-19.99
-20.06
-24.04
-30.95
-38.77
-45.15
-48.17
-46.97
-42.02
-34.84
-27.41
-21.46
-17.84
-16.29
-15.79
-15.26
-14.24
-13.18
-13.08
-14.80
-18.39
-22.90
-26.78
-28.62
-27.84
-24.90
-21.06
-17.89
-16.64
-17.90
-21.57
-26.99
-33.36
-39.93
-46.16
-51.70
-56.10
-58.68
-58.54
-54.88
-47.53
-37.16
-25.29
-13.72
-3.83
3.72
9.12
12.97
15.88
18.15
19.83
20.82
21.08
20.66
19.73
18.54
17.38
16.54
16.28
16.71
17.80
19.36
21.11
22.76
24.00
24.48
23.80
21.66
17.99
13.22
8.39
4.92
4.22
7.19
13.85
23.21
33.57
43.03
50.03
53.68
53.92
51.24
46.43
40.27
33.39
26.24
19.17
12.43
6.14
0.31
-5.26
-10.84
-16.77
-23.21
-30.14
-37.38
-44.70
-51.99
-59.31
-66.96
-75.28
-84.41
-94.05
-103.31
-110.89
-115.39
-115.85
-112.00
-104.39
-94.09
-82.49
-70.91
-60.52
-52.14
-46.18
-42.56
-40.73
-39.84
-39.05
-37.79
-35.82
-33.14
-29.83
-25.94
-21.55
-16.85
-12.22
-8.08
-4.66
-1.97
0.22
1.99
3.15
3.16
1.43
-2.31
-7.70
-13.73
-19.02
-22.23
-22.41
-19.20
-12.79
-3.70
7.37
19.70
32.48
44.85
55.87
64.68
70.64
73.47
73.41
71.10
67.47
63.48
59.92
57.24
55.43
54.09
52.57
50.25
46.71
41.89
36.05
29.67
23.26
17.21
11.72
6.67
1.69
-3.64
-9.48
-15.55
-20.97
-24.57
-25.35
-22.86
-17.48
-10.23
-2.40
4.92
11.07
15.75
18.90
20.53
20.67
19.53
17.62
15.73
14.71
15.16
17.12
20.13
23.45
26.43
28.82
30.81
32.81
35.22
38.06
41.05
43.66
45.26
45.32
43.34
38.96
32.08
23.10
13.08
3.70
-3.16
-5.99
-4.14
1.93
10.84
20.75
29.93
37.13
41.78
43.81
43.43
40.96
36.75
31.27
25.12
18.99
13.50
9.03
5.56
2.65
-0.31
-3.82
-8.02
-12.56
-16.84
-20.27
-22.60
-24.11
-25.51
-27.71
-31.43
-36.98
-44.00
-51.53
-58.12
-62.20
-62.45
-58.16
-49.45
-37.33
-23.39
-9.45
2.91
12.62
19.18
22.57
23.19
21.67
18.83
15.58
12.82
11.25
11.14
12.34
14.29
16.30
17.75
18.32
17.99
16.93
15.27
13.06
10.12
6.17
0.91
-5.81
-13.83
-22.59
-31.02
-37.79
-41.52
-41.21
-36.57
-28.15
-17.18
-5.12
6.68
17.38
26.63
34.45
41.00
46.48
51.11
55.25
59.41
64.11
69.75
76.35
83.48
90.36
96.08
99.95
101.67
101.39
99.55
96.64
93.01
88.71
83.53
77.06
68.84
58.52
45.95
31.30
15.22
-1.18
-16.32
-28.51
-36.31
-38.99
-36.85
-31.06
-23.42
-15.78
-9.70
-6.17
-5.60
-7.99
-12.99
-20.04
-28.30
-36.85
-44.72
-51.23
-56.11
-59.53
-61.98
-64.05
-66.14
-68.35
-70.39
-71.87
-72.45
-72.03
-70.84
-69.42
-68.44
-68.46
-69.84
-72.53
-76.10
-79.71
-82.28
-82.75
-80.19
-74.15
-64.66
-52.25
-37.87
-22.74
-8.13
4.75
14.97
22.08
26.16
27.82
27.99
27.66
27.62
28.27
29.64
31.44
33.33
35.05
36.63
38.34
40.71
44.27
49.23
55.31
61.55
66.50
68.52
66.35
59.51
48.54
35.04
21.28
9.77
2.67
1.25
5.51
14.14
24.77
34.59
41.09
42.77
39.46
32.26
23.06
13.94
6.60
2.10
0.73
2.15
5.57
9.90
13.93
16.45
16.44
13.28
6.92
-2.06
-12.51
-22.98
-32.11
-38.98
-43.24
-45.15
-45.19
-43.84
-41.30
-37.42
-31.82
-24.02
-13.63
-0.44
15.48
33.60
52.84
71.54
87.73
99.72
106.55
108.34
106.23
101.78
96.41
90.97
85.83
81.15
77.30
74.93
74.68
76.70
80.38
84.44
87.31
87.76
85.34
80.47
74.22
67.91
62.59
58.75
56.19
54.09
51.25
46.50
38.98
28.40
15.23
0.58
-13.92
-26.43
-35.23
-39.06
-37.48
-31.05
-21.26
-10.24
-0.25
6.89
10.28
10.09
7.36
3.53
-0.10
-2.72
-4.12
-4.59
-4.55
-4.42
-4.50
-5.03
-6.24
-8.40
-11.66
-15.95
-20.83
-25.60
-29.45
-31.78
-32.43
-31.72
-30.34
-29.12
-28.85
-30.15
-33.42
-38.75
-45.81
-53.73
-61.13
-66.45
-68.46
-66.66
-61.53
-54.26
-46.27
-38.74
-32.32
-27.20
-23.33
-20.62
-19.02
-18.40
-18.38
-18.30
-17.38
-14.91
-10.58
-4.61
2.20
8.76
14.00
17.19
18.24
17.58
15.96
14.11
12.47
11.17
10.03
8.71
6.83
4.04
0.08
-5.01
-10.81
-16.42
-20.68
-22.47
-21.22
-17.12
-11.08
-4.42
1.65
6.30
9.14
10.15
9.41
7.03
3.10
-2.25
-8.69
-15.74
-22.80
-29.25
-34.61
-38.61
-41.22
-42.55
-42.82
-42.25
-41.09
-39.54
-37.77
-35.86
-33.89
-31.92
-30.06
-28.50
-27.47
-27.24
-27.90
-29.37
-31.23
-32.85
-33.43
-32.30
-29.04
-23.64
-16.58
-8.66
-0.82
6.11
11.59
15.35
17.46
18.03
17.32
15.61
13.25
10.64
8.13
5.98
4.32
3.13
2.30
1.70
1.24
0.90
0.76
0.97
1.67
2.84
4.36
5.90
7.10
7.69
7.62
7.18
6.98
7.76
10.27
15.01
22.06
31.04
41.16
51.41
60.77
68.46
73.99
77.18
78.01
76.53
72.85
67.16
59.87
51.61
43.19
35.36
28.62
23.02
18.18
13.49
8.42
2.72
-3.52
-9.96
-16.26
-22.26
-28.08
-34.00
-40.22
-46.70
-53.04
-58.46
-62.10
-63.23
-61.59
-57.47
-51.67
-45.19
-38.94
-33.54
-29.27
-26.13
-24.12
-23.21
-23.38
-24.52
-26.36
-28.40
-30.11
-31.05
-30.99
-29.98
-28.31
-26.36
-24.47
-22.85
-21.60
-20.71
-20.19
-20.07
-20.37
-21.09
-22.07
-23.11
-23.96
-24.33
-23.88
-22.30
-19.28
-14.71
-8.81
-2.10
4.60
10.50
15.01
17.86
19.08
18.83
17.25
14.55
11.00
7.12
3.55
0.88
-0.60
-1.01
-0.84
-0.78
-1.39
-2.99
-5.51
-8.62
-11.87
-14.91
-17.62
-20.14
-22.77
-25.75
-29.10
-32.44
-35.05
-36.02
-34.56
-30.23
-23.07
-13.55
-2.43
9.44
21.24
32.21
41.70
49.16
54.17
56.51
56.24
53.74
49.64
44.71
39.64
34.93
30.84
27.42
24.57
22.12
19.95
17.97
16.17
14.50
12.87
11.08
8.91
6.08
2.45
-1.94
-6.81
-11.60
-15.61
-18.10
-18.51
-16.71
-12.96
-7.95
-2.60
2.17
5.67
7.47
7.47
5.80
2.78
-1.11
-5.30
-9.14
-12.04
-13.64
-13.84
-12.91
-11.28
-9.49
-7.88
-6.57
-5.45
-4.29
-2.93
-1.45
-0.18
0.34
-0.36
-2.53
-6.00
-10.23
-14.45
-17.89
-20.01
-20.54
-19.40
-16.66
-12.48
-7.21
-1.41
4.16
8.73
11.65
12.69
12.04
10.24
7.96
5.69
3.64
1.80
-0.13
-2.63
-6.24
-11.30
-17.69
-24.86
-31.99
-38.20
-42.69
-45.08
-45.52
-44.52
-42.59
-39.86
-36.15
-31.18
-24.91
-17.47
-9.58
-2.61
1.77
2.35
-0.98
-7.04
-13.66
-17.97
-16.75
-7.74
9.46
32.87
58.67
82.56
100.87
111.57
112.10
102.38
85.45
66.56
50.57
40.10
35.70
36.82
41.76
48.64
55.86
61.89
65.45
65.79
62.37
56.05
48.42
41.03
34.91
30.54
27.57
24.95
21.41
16.10
9.18
1.50
-5.77
-11.61
-15.28
-16.47
-15.22
-11.64
-5.81
2.36
12.65
24.18
35.42
44.71
50.80
53.47
53.59
52.73
52.37
53.11
54.33
54.70
53.00
48.77
42.50
35.19
27.69
20.35
12.91
4.90
-3.88
-13.17
-22.39
-30.92
-38.41
-44.88
-50.50
-55.42
-59.63
-62.92
-65.02
-65.77
-65.26
-63.80
-61.90
-60.06
-58.64
-57.77
-57.42
-57.42
-57.59
-57.80
-57.94
-57.81
-57.18
-55.75
-53.28
-49.58
-44.59
-38.30
-30.92
-23.02
-15.75
-10.80
-10.04
-14.82
-25.27
-40.05
-56.71
-72.57
-85.76
-95.78
-103.50
-110.32
-117.27
-124.38
-130.73
-134.99
-136.16
-134.03
-129.24
-122.96
-116.42
-110.51
-105.41
-100.16
-92.35
-78.05
-52.47
-11.35
46.92
119.86
200.39
278.45
343.66
388.19
408.42
404.89
381.03
341.68
292.11
237.60
183.16
132.81
88.54
49.92
14.62
-19.89
-54.62
-88.23
-117.70
-140.13
-154.33
-161.24
-163.08
-161.83
-158.21
-151.79
-141.88
-128.63
-113.41
-98.41
-85.76
-76.48
-70.43
-66.44
-63.20
-59.93
-56.62
-53.92
-52.53
-52.75
-54.12
-55.75
-56.67
-56.36
-54.97
-53.18
-51.80
-51.33
-51.73
-52.57
-53.37
-53.95
-54.63
-55.94
-58.26
-61.22
-63.68
-63.96
-60.60
-53.03
-41.95
-29.05
-16.38
-5.60
2.38
7.40
9.66
9.40
6.83
2.24
-3.74
-10.27
-16.51
-21.97
-26.59
-30.57
-34.08
-36.93
-38.72
-39.08
-37.93
-35.67
-33.11
-31.17
-30.83
-32.98
-38.29
-46.91
-58.01
-69.51
-78.36
-81.49
-77.07
-65.32
-48.59
-30.38
-14.04
-1.56
6.76
11.93
15.31
17.89
19.99
21.47
22.10
21.90
21.13
20.19
19.45
19.21
19.56
20.42
21.53
22.45
22.59
21.37
18.21
12.75
4.97
-4.60
-14.79
-23.90
-30.02
-31.56
-27.73
-18.87
-6.36
7.80
21.54
33.23
41.97
47.59
50.38
50.91
49.83
47.78
45.35
43.03
41.07
39.55
38.23
36.78
34.88
32.38
29.37
26.08
22.72
19.33
15.73
11.52
6.29
-0.27
-8.13
-16.85
-25.51
-32.74
-37.05
-37.20
-32.60
-23.57
-11.31
2.47
16.03
28.09
37.97
45.50
50.78
53.96
55.19
54.70
52.89
50.42
48.01
46.31
45.61
45.74
46.12
45.96
44.60
41.74
37.55
32.59
27.54
22.95
18.97
15.33
11.47
6.75
0.72
-6.76
-15.41
-24.47
-32.79
-38.91
-41.44
-39.30
-32.24
-20.88
-6.70
8.47
22.98
35.66
46.05
54.12
60.05
63.96
65.92
66.12
65.02
63.35
61.91
61.30
61.70
62.77
63.95
64.65
64.57
63.69
62.26
60.50
58.52
56.18
53.24
49.47
44.90
39.81
34.64
29.83
25.59
21.83
18.16
14.10
9.35
3.87
-2.02
-7.81
-13.08
-17.65
-21.69
-25.63
-30.02
-35.39
-42.05
-49.95
-58.55
-66.71
-72.84
-75.19
-72.39
-63.95
-50.56
-33.94
-16.30
0.32
14.60
26.09
35.04
41.96
47.25
51.12
53.60
54.80
54.99
54.63
54.20
54.05
54.29
54.80
55.34
55.65
55.61
55.18
54.39
53.21
51.47
48.99
45.62
41.43
36.78
32.21
28.26
25.18
22.85
20.71
18.15
14.72
10.38
5.48
0.53
-4.04
-8.14
-11.99
-16.05
-20.81
-26.59
-33.38
-40.71
-47.56
-52.41
-53.58
-49.74
-40.42
-26.44
-9.71
7.33
22.42
34.18
42.33
47.42
50.32
51.79
52.29
52.04
51.29
50.48
50.15
50.74
52.35
54.65
57.00
58.71
59.34
58.85
57.44
55.44
53.05
50.26
46.93
43.06
38.81
34.63
31.00
28.24
26.32
24.84
23.18
20.75
17.24
12.66
7.35
1.77
-3.70
-8.87
-13.83
-18.90
-24.51
-31.01
-38.46
-46.47
-54.07
-59.86
-62.35
-60.42
-53.85
-43.41
-30.73
-17.73
-6.04
3.35
10.29
15.12
18.36
20.45
21.63
21.97
21.58
20.66
19.48
18.35
17.45
16.80
16.28
15.72
14.95
13.93
12.69
11.33
9.92
8.44
6.86
5.15
3.39
1.72
0.28
-0.96
-2.23
-3.94
-6.45
-9.91
-14.11
-18.57
-22.63
-25.85
-28.14
-29.81
-31.46
-33.74
-37.14
-41.83
-47.60
-53.80
-59.39
-63.08
-63.64
-60.25
-52.92
-42.48
-30.44
-18.46
-7.84
0.76
7.34
12.22
15.75
18.12
19.39
19.62
19.06
18.07
17.13
16.57
16.55
17.02
17.80
18.67
19.46
20.06
20.38
20.32
19.76
18.56
16.63
13.99
10.76
7.18
3.49
-0.06
-3.35
-6.31
-8.96
-11.39
-13.69
-15.92
-18.08
-20.16
-22.15
-24.12
-26.28
-28.89
-32.19
-36.27
-40.89
-45.43
-48.91
-50.25
-48.60
-43.66
-35.85
-26.25
-16.22
-6.98
0.74
6.74
11.21
14.37
16.33
17.06
16.60
15.21
13.45
11.91
11.07
11.03
11.53
12.09
12.29
11.88
10.89
9.52
8.02
6.59
5.23
3.83
2.18
0.08
-2.61
-5.82
-9.32
-12.73
-15.74
-18.19
-20.18
-22.05
-24.20
-26.95
-30.48
-34.67
-39.20
-43.49
-46.79
-48.20
-46.91
-42.48
-35.06
-25.45
-14.99
-5.16
2.88
8.49
11.62
12.65
12.18
10.77
8.92
7.06
5.59
4.91
5.31
6.93
9.60
12.82
15.89
18.08
18.88
18.13
16.01
12.91
9.21
5.23
1.25
-2.35
-5.11
-6.49
-6.25
-4.60
-2.28
-0.41
-0.09
-1.98
-6.06
-11.51
-17.01
-21.02
-22.26
-19.89
-13.64
-3.78
8.90
23.16
37.30
49.28
57.24
59.96
57.42
50.87
42.44
34.28
27.84
23.51
20.82
19.12
18.09
17.95
19.14
21.74
25.17
28.12
29.20
27.47
22.98
16.68
9.96
4.05
-0.46
-3.71
-6.22
-8.45
-10.47
-11.95
-12.36
-11.32
-8.79
-5.25
-1.41
1.95
4.30
5.44
5.42
4.41
2.69
0.71
-0.70
-0.33
3.03
10.01
20.06
31.42
41.81
49.45
53.91
56.00
56.84
56.78
54.98
49.92
40.59
27.54
12.75
-1.33
-13.16
-22.84
-31.78
-41.69
-53.48
-66.92
-80.94
-94.38
-106.43
-116.75
-125.14
-131.34
-135.04
-136.18
-135.15
-132.69
-129.61
-126.36
-122.91
-119.03
-114.65
-110.10
-106.05
-103.09
-101.35
-100.33
-99.20
-97.11
-93.68
-89.03
-83.53
-77.48
-70.88
-63.55
-55.35
-46.41
-37.24
-28.61
-21.40
-16.39
-14.07
-14.41
-16.62
-19.20
-20.28
-18.16
-12.04
-2.28
9.67
21.90
32.75
41.30
47.34
51.09
52.82
52.70
50.94
48.13
45.27
43.52
43.74
46.07
49.83
53.81
56.74
57.84
56.92
54.34
50.75
46.79
42.90
39.32
36.01
32.80
29.34
25.32
20.64
15.54
10.63
6.77
4.78
5.08
7.55
11.53
16.02
20.04
22.86
24.18
23.96
22.30
19.30
15.11
9.95
4.26
-1.36
-6.31
-10.16
-12.81
-14.55
-15.82
-17.07
-18.47
-19.97
-21.31
-22.19
-22.48
-22.27
-21.92
-21.91
-22.72
-24.61
-27.53
-31.03
-34.34
-36.55
-36.88
-34.91
-30.71
-24.87
-18.30
-11.96
-6.59
-2.61
-0.12
1.09
1.30
0.95
0.47
0.30
0.79
2.06
3.96
6.13
8.29
10.44
12.96
16.54
21.73
28.56
36.36
43.85
49.61
52.53
52.15
48.69
42.82
35.44
27.58
20.28
14.64
11.60
11.79
15.25
21.30
28.61
35.48
40.20
41.44
38.60
31.93
22.46
11.69
1.18
-7.90
-15.00
-20.21
-23.97
-26.85
-29.26
-31.35
-33.06
-34.25
-34.82
-34.73
-34.12
-33.27
-32.59
-32.41
-32.88
-33.72
-34.32
-33.89
-31.71
-27.44
-21.21
-13.54
-5.21
2.95
10.18
15.87
19.56
21.03
20.32
17.80
14.15
10.18
6.65
4.06
2.60
2.17
2.46
3.12
3.83
4.31
4.43
4.11
3.41
2.40
1.18
-0.26
-1.98
-4.05
-6.37
-8.54
-9.88
-9.57
-6.95
-1.86
5.31
13.59
21.83
28.94
34.13
37.01
37.55
35.99
32.73
28.29
23.21
18.08
13.38
9.49
6.58
4.60
3.37
2.56
1.85
1.00
-0.10
-1.43
-2.86
-4.25
-5.58
-6.97
-8.69
-10.99
-13.92
-17.12
-19.90
-21.33
-20.67
-17.56
-12.25
-5.51
1.65
8.22
13.46
16.92
18.47
18.20
16.41
13.60
10.40
7.46
5.27
4.03
3.61
3.75
4.18
4.83
5.82
7.36
9.61
12.53
15.82
19.00
21.43
22.34
21.06
17.25
11.26
4.27
-1.90
-5.30
-4.67
0.05
7.61
15.89
22.72
26.59
26.93
23.98
18.41
10.91
2.14
-7.19
-16.17
-23.77
-29.08
-31.58
-31.46
-29.44
-26.56
-23.80
-21.79
-20.76
-20.64
-21.25
-22.47
-24.24
-26.47
-28.95
-31.18
-32.49
-32.13
-29.54
-24.59
-17.65
-9.55
-1.30
6.18
12.29
16.82
19.86
21.58
22.08
21.38
19.43
16.36
12.54
8.62
5.36
3.34
2.82
3.47
4.65
5.49
5.16
3.09
-0.69
-5.74
-11.38
-16.96
-22.09
-26.51
-29.99
-32.12
-32.27
-29.51
-23.17
-13.24
-0.62
12.94
25.55
35.56
41.91
44.25
43.30
40.11
35.70
30.78
25.41
20.14
15.53
11.91
9.28
8.09
8.42
9.83
11.40
11.41
9.69
7.00
4.38
3.07
5.33
12.81
25.95
43.76
63.36
83.73
104.85
126.91
150.11
175.86
204.86
236.58
269.17
298.72
323.78
343.98
358.98
356.89
329.99
278.30
211.26
152.06
106.16
72.63
48.19
26.99
5.61
-16.53
-39.37
-63.30
-89.69
-121.39
-157.50
-194.37
-227.02
-250.61
-261.15
-257.78
-242.88
-221.00
-198.13
-177.46
-160.45
-148.30
-142.14
-141.94
-146.25
-151.81
-154.25
-150.10
-136.48
-113.04
-82.47
-49.71
-20.53
-0.49
6.46
-0.93
-20.72
-46.94
-71.49
-86.91
-88.86
-77.56
-57.26
-34.09
-13.35
2.26
13.15
21.53
29.48
37.87
46.27
53.84
60.34
66.49
73.43
81.84
91.12
99.55
105.11
106.75
105.19
102.61
101.47
102.94
105.94
107.27
102.94
89.90
67.35
37.04
2.47
-32.30
-63.82
-89.86
-109.70
-124.03
-134.80
-144.78
-156.71
-172.15
-190.54
-208.83
-222.13
-225.30
-214.83
-190.33
-154.90
-114.29
-75.23
-43.45
-22.27
-12.14
-11.02
-15.51
-22.08
-27.90
-31.25
-31.45
-28.76
-24.32
-20.01
-18.18
-20.92
-29.20
-42.19
-57.14
-70.12
-77.09
-75.18
-63.49
-43.19
-17.13
10.94
37.34
59.44
76.43
89.57
101.70
116.06
134.87
158.41
184.96
211.63
235.55
254.91
269.24
279.21
286.13
291.70
297.89
306.68
319.23
334.97
351.04
362.59
364.48
353.10
327.68
290.32
244.81
195.18
144.56
94.77
46.32
-1.43
-49.98
-101.23
-156.33
-214.37
-271.54
-321.53
-357.48
-375.02
-374.28
-360.17
-340.41
-322.21
-309.54
-302.27
-297.77
-293.48
-288.99
-286.13
-287.24
-292.97
-300.95
-306.69
-305.75
-296.05
-278.64
-256.57
-232.90
-208.86
-183.51
-154.82
-121.43
-83.79
-44.28
-6.30
27.16
54.40
75.50
92.17
107.26
124.02
145.75
175.49
215.53
266.43
325.91
388.33
445.39
488.50
511.70
513.88
498.95
473.76
444.87
415.95
387.06
356.11
321.06
281.46
238.65
194.51
150.03
104.65
56.70
4.46
-52.90
-114.76
-178.91
-242.14
-300.84
-351.63
-391.91
-420.27
-436.74
-442.88
-441.46
-435.86
-429.15
-423.13
-417.86
-411.70
-402.16
-387.04
-365.32
-337.51
-305.22
-270.57
-235.54
-201.73
-170.30
-142.17
-117.63
-96.12
-75.82
-53.85
-26.85
7.70
50.25
98.48
147.40
190.62
222.08
237.81
236.90
221.48
195.73
164.50
132.20
102.21
76.75
57.02
43.33
35.15
31.43
30.91
32.67
36.43
42.47
51.24
62.94
77.20
93.14
109.67
125.75
140.50
153.20
163.18
169.72
172.09
169.46
161.04
146.31
125.57
100.38
73.73
49.59
31.73
22.40
21.22
25.06
28.97
27.79
17.93
-1.51
-28.55
-59.26
-89.37
-115.86
-137.97
-157.10
-175.54
-194.65
-213.44
-228.51
-235.37
-230.59
-213.62
-187.19
-156.24
-125.85
-99.53
-78.45
-61.99
-48.79
-37.70
-27.86
-18.18
-6.68
9.42
32.66
63.77
100.61
138.20
170.29
191.57
199.71
195.88
183.90
168.47
153.34
140.51
130.22
121.72
114.01
106.31
98.21
89.54
80.32
70.62
60.42
49.38
36.82
21.98
4.53
-15.02
-35.21
-54.07
-69.92
-81.85
-89.78
-93.93
-94.15
-89.66
-79.24
-61.80
-36.96
-5.26
32.17
74.05
119.18
166.29
213.52
258.20
297.14
327.44
347.37
356.94
357.63
351.59
340.76
326.13
307.59
284.15
254.52
218.05
175.41
128.97
82.39
39.46
2.82
-26.93
-51.09
-71.79
-90.63
-107.93
-122.97
-135.03
-144.31
-152.04
-159.74
-168.05
-176.20
-182.35
-184.73
-182.64
-176.79
-168.77
-160.21
-152.16
-144.91
-138.30
-132.19
-126.73
-122.44
-120.05
-120.34
-123.80
-130.50
-139.91
-151.07
-162.88
-174.43
-185.13
-194.60
-202.46
-208.49
-212.99
-217.07
-222.73
-232.03
-245.89
-263.16
-280.46
-293.17
-297.06
-289.76
-271.36
-243.80
-209.78
-172.01
-133.29
-96.89
-66.49
-44.93
-32.54
-26.18
-20.12
-8.69
10.70
36.01
61.87
82.94
97.17
107.03
117.61
133.05
153.62
175.29
192.11
199.56
196.73
186.20
172.05
157.54
143.84
130.37
116.25
101.60
87.94
77.51
72.05
71.90
75.77
81.23
85.70
87.39
85.78
81.68
76.67
72.36
69.77
68.93
69.02
68.89
67.61
64.81
60.80
56.20
51.66
47.71
44.77
43.22
43.46
45.75
49.92
55.22
60.41
64.11
65.14
62.86
57.26
48.89
38.71
27.93
17.83
9.50
3.65
0.41
-0.68
-0.44
0.24
0.66
0.50
-0.23
-1.32
-2.50
-3.54
-4.25
-4.48
-4.20
-3.53
-2.90
-2.79
-3.66
-5.58
-8.06
-10.17
-10.82
-9.24
-5.27
0.51
7.01
13.03
17.62
20.26
20.85
19.54
16.56
12.16
6.62
0.32
-6.25
-12.50
-17.92
-22.18
-25.24
-27.32
-28.78
-30.02
-31.31
-32.80
-34.46
-36.22
-37.93
-39.49
-40.82
-41.92
-42.88
-43.87
-45.13
-46.91
-49.37
-52.35
-55.40
-57.70
-58.35
-56.60
-52.12
-45.09
-36.19
-26.29
-16.23
-6.72
1.79
8.94
14.49
18.25
20.15
20.28
19.00
16.87
14.66
13.13
12.86
14.07
16.53
19.65
22.64
24.83
25.87
25.75
24.78
23.32
21.66
19.87
17.85
15.39
12.30
8.48
3.97
-1.02
-6.11
-10.76
-14.43
-16.67
-17.35
-16.70
-15.26
-13.70
-12.65
-12.51
-13.43
-15.38
-18.11
-21.21
-24.08
-26.05
-26.49
-25.06
-21.81
-17.19
-11.85
-6.44
-1.41
3.02
6.74
9.68
11.75
12.89
13.10
12.51
11.27
9.44
6.92
3.51
-0.92
-6.24
-12.00
-17.44
-21.79
-24.44
-25.12
-23.84
-20.78
-16.22
-10.43
-3.80
3.09
9.52
14.71
18.05
19.31
18.77
17.20
15.63
15.07
16.20
19.20
23.78
29.33
35.15
40.68
45.59
49.70
52.94
55.17
56.22
55.92
54.17
50.98
46.42
40.63
33.83
26.44
19.10
12.68
8.01
5.70
5.83
7.91
11.04
14.28
16.89
18.49
18.93
18.20
16.32
13.37
9.61
5.45
1.34
-2.42
-5.77
-8.93
-12.16
-15.67
-19.37
-23.09
-26.57
-29.63
-32.18
-34.27
-35.93
-37.24
-38.27
-39.09
-39.70
-39.98
-39.59
-38.00
-34.65
-29.16
-21.53
-12.29
-2.32
7.35
15.84
22.56
27.21
29.57
29.45
26.68
21.27
13.69
4.84
-4.13
-12.17
-18.65
-23.48
-26.84
-28.97
-29.96
-29.70
-28.05
-25.09
-21.19
-16.96
-13.13
-10.37
-9.22
-9.97
-12.55
-16.45
-20.70
-24.12
-25.63
-24.66
-21.37
-16.53
-11.20
-6.30
-2.49
-0.16
0.39
-1.08
-4.59
-9.77
-15.73
-21.38
-25.80
-28.52
-29.52
-28.85
-26.27
-21.13
-12.78
-1.13
12.84
27.28
40.12
49.93
56.39
60.07
61.90
62.62
62.63
62.26
62.15
63.41
67.10
73.68
82.26
90.54
95.44
94.25
85.70
70.56
51.22
30.82
12.13
-3.19
-14.48
-21.42
-23.36
-19.24
-8.42
8.19
27.53
45.11
56.76
60.38
56.72
48.43
38.25
27.52
15.99
3.11
-10.44
-22.10
-28.37
-26.71
-17.41
-3.79
9.20
17.20
18.41
14.08
7.65
2.95
2.59
6.96
14.28
21.54
25.74
24.95
18.85
8.49
-4.35
-17.90
-31.02
-43.25
-54.76
-65.88
-77.13
-89.21
-103.13
-119.66
-138.49
-157.35
-172.16
-178.30
-172.81
-156.31
-133.22
-110.00
-92.10
-81.32
-74.91
-67.11
-51.90
-25.53
11.94
57.25
105.47
151.67
191.91
223.44
244.72
255.59
257.67
253.63
246.42
238.60
231.42
224.62
216.69
205.59
189.99
170.63
149.02
126.50
103.90
81.24
57.91
33.30
6.87
-21.04
-48.09
-71.94
-90.83
-103.25
-108.12
-105.32
-96.30
-84.96
-76.43
-74.12
-79.86
-93.06
-109.75
-123.99
-130.46
-122.65
-99.92
-75.66
-60.10
-56.71
-66.07
-84.86
-107.52
-128.53
-144.05
-153.01
-155.46
-150.05
-135.60
-112.06
-80.46
-43.71
-6.39
26.29
49.40
59.94
58.33
46.16
24.80
-4.48
-40.33
-80.47
-121.03
-156.97
-183.01
-194.55
-190.47
-173.69
-149.73
-124.62
-102.77
-85.99
-73.92
-64.99
-57.07
-48.49
-37.97
-24.18
-5.89
17.61
45.95
77.51
109.74
139.85
165.31
184.29
196.05
200.93
200.03
194.86
186.72
176.38
164.08
149.87
134.23
118.40
104.30
94.08
89.20
89.83
94.56
100.53
104.09
101.52
89.61
66.09
30.09
-17.24
-72.02
-127.36
-174.33
-204.12
-210.96
-194.45
-159.96
-116.69
-74.34
-39.81
-15.60
-0.35
9.06
15.41
20.08
23.30
25.10
26.05
27.33
30.17
35.23
42.27
50.17
57.43
62.81
65.81
66.86
67.10
67.83
69.87
73.07
76.33
78.06
76.91
72.42
65.33
57.39
50.75
47.28
47.99
52.73
60.28
68.77
76.22
80.95
81.90
78.81
72.34
64.03
56.10
50.64
48.66
49.29
49.46
44.53
29.76
2.27
-37.39
-84.67
-131.92
-170.56
-193.62
-197.93
-184.78
-159.13
-127.66
-96.42
-69.24
-47.40
-30.58
-18.23
-10.53
-8.62
-13.78
-26.75
-47.34
-74.78
-108.13
-146.17
-186.79
-226.49
-260.58
-284.53
-295.83
-295.24
-286.62
-275.20
-265.22
-258.23
-252.93
-246.39
-235.89
-220.17
-199.61
-175.45
-148.81
-119.98
-88.33
-52.89
-13.06
30.54
75.51
118.06
153.93
179.90
194.79
199.60
196.72
188.74
177.55
164.18
149.32
133.96
119.57
107.64
99.14
94.09
91.65
90.53
89.40
87.22
83.26
77.34
70.02
62.68
57.20
55.30
57.56
62.93
68.96
72.79
72.45
67.82
60.71
54.09
50.74
51.96
57.01
63.47
68.41
69.85
67.92
65.00
64.80
70.74
84.27
103.92
125.55
143.66
153.43
152.57
142.06
125.99
110.15
99.95
98.54
105.54
116.77
125.19
123.22
105.64
72.10
27.97
-16.90
-51.37
-66.63
-58.98
-30.76
10.74
55.71
94.67
120.68
130.40
124.08
104.78
77.44
47.81
21.57
3.50
-3.34
1.81
17.22
39.09
62.41
82.56
96.70
104.37
107.00
106.41
103.20
96.13
82.84
61.65
33.16
0.42
-32.54
-62.98
-90.76
-117.82
-146.10
-175.53
-203.67
-227.12
-243.62
-253.12
-256.81
-254.72
-244.05
-219.96
-178.66
-121.35
-55.54
6.71
53.47
77.49
78.07
59.47
27.17
-15.23
-66.35
-124.71
-185.87
-241.07
-279.02
-289.84
-269.34
-221.46
-157.26
-91.32
-36.94
-2.60
9.79
4.32
-11.40
-29.33
-43.77
-52.57
-56.69
-58.47
-59.95
-61.53
-62.03
-59.91
-54.44
-46.58
-38.32
-31.53
-26.77
-23.64
-20.94
-17.51
-12.87
-7.30
-2.18
1.31
2.98
4.43
7.10
11.74
17.87
24.15
28.80
29.28
24.50
15.81
8.19
5.89
11.25
23.55
39.63
54.61
61.60
55.66
35.86
7.72
-23.02
-51.31
-74.13
-89.94
-98.96
-105.37
-113.78
-127.32
-144.05
-163.24
-184.57
-208.06
-232.33
-240.02
-219.23
-167.94
-112.28
-60.71
-15.93
25.18
59.86
84.37
95.97
91.89
72.70
43.25
14.81
-3.02
-3.51
15.35
51.55
98.66
145.64
181.98
201.61
206.84
202.57
194.54
186.68
181.03
177.71
174.85
171.16
166.91
164.70
165.39
167.87
169.49
167.83
161.49
149.86
133.72
114.78
95.61
77.36
59.65
41.13
20.59
-2.34
-27.24
-53.06
-78.62
-102.91
-125.61
-146.62
-165.53
-181.13
-191.84
-196.35
-194.18
-185.84
-172.41
-154.96
-134.25
-110.75
-85.03
-58.15
-31.73
-7.52
13.08
29.51
42.04
51.45
58.39
63.04
65.05
63.93
59.51
52.19
42.86
32.49
21.74
10.75
-0.75
-13.07
-26.32
-40.31
-54.64
-68.81
-82.23
-94.10
-103.34
-108.69
-109.10
-104.17
-94.48
-81.58
-67.71
-55.20
-45.83
-40.36
-38.35
-38.39
-38.60
-37.45
-34.25
-29.24
-23.24
-17.00
-10.81
-4.56
1.88
8.39
14.80
21.37
29.00
38.98
52.09
67.76
83.99
98.11
108.13
113.69
115.97
116.78
117.29
117.39
116.00
112.08
105.61
97.67
89.95
83.68
79.03
74.99
70.02
62.91
53.53
42.92
32.80
24.59
18.58
13.76
8.34
0.79
-9.26
-20.85
-32.19
-41.73
-48.89
-54.20
-58.73
-63.11
-66.99
-69.04
-67.63
-61.67
-51.17
-37.30
-21.93
-7.04
5.79
15.60
22.17
25.93
27.82
29.02
30.58
33.11
36.71
41.15
45.97
50.56
54.33
56.86
57.97
57.84
57.00
56.13
55.86
56.18
56.29
54.91
51.12
44.84
37.09
29.64
24.27
22.44
24.62
30.17
37.73
46.51
55.93
65.61
74.98
82.80
88.33
90.96
90.14
85.65
79.07
72.30
66.74
62.88
59.50
56.81
55.57
56.12
58.03
61.48
65.25
67.01
64.48
55.63
43.82
35.09
34.95
46.67
72.61
111.97
161.15
214.62
264.35
306.44
339.14
361.63
357.14
316.27
241.05
145.71
62.32
-3.33
-53.27
-90.47
-119.49
-140.57
-150.77
-148.76
-136.61
-119.80
-107.13
-102.79
-107.34
-119.18
-135.29
-150.95
-162.69
-169.09
-170.87
-171.49
-171.83
-171.57
-170.32
-167.82
-163.42
-157.28
-150.56
-145.12
-143.62
-146.14
-151.25
-157.23
-162.70
-166.68
-169.14
-170.63
-171.77
-173.28
-174.58
-174.78
-173.43
-170.49
-165.91
-159.21
-149.16
-134.09
-112.65
-84.19
-49.76
-12.51
22.91
51.70
70.59
79.25
80.70
80.33
84.01
95.86
116.93
145.26
177.14
208.66
236.71
259.02
273.70
278.98
273.58
257.71
233.65
205.39
177.31
152.52
131.61
112.76
93.01
69.91
42.94
13.90
-13.54
-34.93
-46.38
-45.88
-34.14
-14.50
8.18
29.07
44.84
54.28
57.96
57.26
53.39
47.04
38.44
27.54
13.87
-3.57
-26.36
-55.96
-92.68
-134.50
-176.74
-212.79
-235.69
-240.09
-224.12
-190.40
-145.94
-100.76
-65.43
-48.13
-52.21
-75.03
-108.67
-142.48
-166.28
-173.23
-161.37
-133.38
-95.14
-53.64
-15.19
15.75
36.77
47.35
48.40
41.94
30.80
18.28
7.47
0.49
-2.12
-1.45
0.29
0.75
-1.57
-6.61
-12.83
-17.85
-19.72
-17.77
-13.13
-8.19
-5.51
-6.51
-10.83
-16.46
-20.75
-21.63
-18.50
-12.16
-4.14
4.19
12.16
19.60
26.24
31.13
32.65
29.26
20.53
8.02
-4.97
-14.46
-17.32
-12.49
-1.11
14.07
29.91
43.71
53.61
58.52
58.09
52.80
44.22
34.85
27.47
23.99
24.72
28.23
32.24
34.86
35.43
34.40
32.49
29.66
24.67
15.35
-0.17
-22.42
-49.77
-78.49
-103.43
-119.36
-122.31
-111.07
-87.77
-57.43
-26.58
-1.11
15.28
21.78
19.89
12.23
1.53
-9.74
-19.28
-24.75
-24.10
-16.32
-2.04
16.39
35.75
53.25
67.61
79.27
89.59
99.72
109.60
117.87
122.57
122.21
116.60
106.97
95.57
84.92
77.27
74.22
76.45
83.21
91.99
98.53
97.87
86.10
62.25
29.23
-6.78
-38.42
-59.50
-66.53
-59.12
-39.30
-10.68
22.10
53.77
78.86
92.69
92.41
77.87
51.68
18.20
-17.78
-52.29
-82.61
-107.30
-125.94
-139.08
-148.20
-155.37
-162.23
-168.86
-173.18
-171.60
-160.83
-139.84
-110.62
-77.32
-44.19
-13.55
14.79
42.51
70.74
98.49
122.38
138.07
142.04
133.00
112.09
82.14
46.67
9.16
-27.42
-60.86
-90.31
-116.68
-142.47
-170.71
-203.27
-239.25
-274.43
-302.60
-318.08
-318.49
-306.10
-286.83
-267.64
-253.50
-245.78
-242.56
-240.50
-236.76
-229.86
-219.32
-204.72
-185.33
-160.66
-131.29
-99.13
-66.64
-35.63
-6.67
20.58
46.26
69.75
90.33
108.50
126.68
148.43
176.64
211.31
248.92
283.49
308.77
320.05
315.10
294.06
259.02
213.69
162.90
111.74
64.28
22.62
-13.13
-43.79
-69.83
-90.76
-105.69
-114.29
-117.51
-116.98
-113.79
-107.65
-97.00
-80.42
-58.09
-32.36
-6.97
14.57
30.42
40.84
47.68
53.14
58.71
64.77
70.81
76.06
79.98
82.42
83.57
83.74
83.13
81.84
79.94
77.55
74.94
72.36
70.00
67.97
66.21
64.57
62.85
60.86
58.48
55.75
52.84
49.97
47.34
45.02
42.97
41.04
39.08
37.00
34.78
32.41
29.94
27.40
24.88
22.49
20.39
18.68
17.38
16.39
15.54
14.66
13.67
12.57
11.42
10.30
9.27
8.40
7.74
7.34
7.19
7.26
7.41
7.51
7.41
7.04
6.42
5.66
4.92
4.31
3.91
3.68
3.59
3.61
3.77
4.10
4.61
5.20
5.73
6.05
6.06
5.82
5.51
5.31
5.31
5.47
5.66
5.70
5.48
5.05
4.54
4.11
3.83
3.71
3.59
3.33
2.83
2.14
1.38
0.72
0.23
-0.06
-0.18
-0.22
-0.21
-0.14
-0.02
0.08
0.14
0.13
0.07
0.04
0.11
0.28
0.52
0.72
0.81
0.76
0.59
0.37
0.17
0.07
0.09
0.25
0.52
0.82
1.11
1.32
1.42
1.41
1.31
1.17
1.01
0.84
0.68
0.55
0.52
0.62
0.89
1.24
1.55
1.70
1.62
1.35
1.00
0.68
0.44
0.30
0.22
0.16
0.14
0.14
0.14
0.09
-0.10
-0.52
-1.20
-2.12
-3.24
-4.48
-5.80
-7.08
-8.23
-9.11
-9.62
-9.68
-9.28
-8.50
-7.49
-6.45
-5.56
-4.92
-4.53
-4.29
-4.08
-3.78
-3.35
-2.82
-2.30
-1.87
-1.60
-1.45
-1.31
-1.00
-0.36
0.67
2.06
3.58
4.96
5.86
6.05
5.36
3.77
1.42
-1.49
-4.68
-7.89
-10.85
-13.34
-15.16
-16.23
-16.55
-16.27
-15.59
-14.70
-13.75
-12.71
-11.51
-10.04
-8.32
-6.44
-4.61
-3.03
-1.77
-0.85
-0.18
0.34
0.76
1.05
1.14
0.98
0.52
-0.21
-1.08
-1.92
-2.56
-2.85
-2.83
-2.64
-2.53
-2.78
-3.59
-4.98
-6.79
-8.69
-10.31
-11.31
-11.51
-10.85
-9.42
-7.39
-5.00
-2.50
-0.15
1.83
3.25
3.98
3.96
3.21
1.88
0.18
-1.60
-3.21
-4.48
-5.34
-5.87
-6.19
-6.44
-6.73
-7.15
-7.78
-8.63
-9.56
-10.28
-10.32
-9.27
-6.93
-3.47
0.59
4.55
7.85
10.18
11.51
12.02
11.90
11.27
10.22
8.78
7.07
5.19
3.26
1.35
-0.47
-2.14
-3.56
-4.71
-5.66
-6.59
-7.73
-9.27
-11.15
-13.14
-14.79
-15.66
-15.42
-13.92
-11.30
-7.89
-4.11
-0.42
2.79
5.27
6.89
7.61
7.46
6.53
4.99
3.06
1.06
-0.70
-1.97
-2.68
-2.94
-3.03
-3.28
-4.01
-5.46
-7.74
-10.77
-14.32
-17.94
-21.09
-23.22
-23.96
-23.20
-21.13
-18.12
-14.54
-10.71
-6.79
-2.96
0.60
3.61
5.84
7.13
7.58
7.45
7.09
6.83
6.89
7.40
8.38
9.67
10.96
11.79
11.65
10.29
7.84
4.99
2.72
2.10
3.82
7.92
13.79
20.39
26.64
31.78
35.51
37.99
39.49
40.24
40.21
39.24
37.20
34.22
30.80
27.66
25.58
25.14
26.46
29.26
32.85
36.35
38.94
40.11
39.89
38.91
38.28
39.22
42.53
48.05
54.31
58.77
58.42
50.73
34.58
10.88
-17.57
-46.76
-72.59
-91.92
-103.27
-106.93
-104.48
-98.06
-89.80
-81.35
-73.82
-67.75
-63.21
-59.76
-56.48
-52.19
-45.88
-37.11
-26.38
-15.06
-4.85
2.79
7.28
9.03
9.29
9.67
11.66
16.17
23.44
33.01
43.96
55.10
65.34
73.98
80.88
86.50
91.54
96.62
101.76
106.27
108.89
108.32
103.75
95.29
84.02
71.73
60.49
52.15
48.13
49.23
55.65
67.10
82.82
101.57
121.78
141.65
159.30
173.10
181.71
184.28
180.26
169.44
151.87
128.00
98.85
65.96
31.24
-3.53
-37.11
-68.93
-99.01
-127.54
-154.59
-180.02
-203.64
-225.32
-244.89
-261.93
-275.42
-283.85
-285.59
-279.61
-265.94
-245.89
-221.57
-195.32
-169.27
-145.11
-124.26
-108.05
-97.62
-93.49
-95.21
-101.06
-108.39
-114.18
-115.80
-111.59
-101.22
-85.76
-67.46
-49.30
-34.26
-24.36
-19.96
-19.65
-20.96
-21.63
-20.69
-18.85
-17.94
-19.86
-25.72
-35.55
-48.66
-64.05
-80.52
-96.53
-110.06
-118.83
-121.16
-116.74
-106.95
-94.44
-81.98
-71.33
-62.75
-55.28
-47.54
-38.66
-28.78
-18.96
-10.66
-5.10
-2.77
-3.18
-5.11
-6.90
-7.01
-4.40
1.20
9.31
18.86
28.59
37.39
44.68
50.66
56.25
62.67
70.95
81.44
93.66
106.60
119.37
131.52
143.19
154.69
166.23
177.78
189.23
200.51
211.70
222.77
233.29
242.56
250.15
256.30
262.09
268.32
274.21
276.81
271.73
254.98
225.17
184.51
138.03
91.57
49.07
11.23
-23.93
-59.02
-95.19
-130.89
-162.27
-185.00
-196.01
-195.44
-186.92
-176.06
-168.24
-166.52
-170.72
-178.06
-186.59
-194.15
-199.39
-202.71
-205.51
-208.05
-209.21
-205.99
-195.01
-173.72
-141.73
-100.05
-50.50
4.79
63.32
121.58
175.35
220.49
254.38
277.04
290.68
298.14
301.35
300.57
294.94
283.79
267.62
248.20
227.66
207.13
186.07
162.80
135.55
103.34
66.19
24.80
-19.47
-64.20
-105.57
-138.67
-158.58
-162.12
-149.29
-123.80
-92.03
-61.01
-36.09
-19.48
-10.17
-5.11
-0.94
4.34
10.83
17.15
21.51
22.94
21.68
18.95
16.09
13.86
12.21
10.61
8.67
6.50
4.34
2.07
-1.23
-6.95
-16.13
-28.43
-41.87
-53.34
-59.98
-60.47
-55.72
-48.32
-41.42
-37.38
-36.97
-39.50
-43.46
-47.31
-49.97
-50.76
-49.22
-44.96
-37.83
-28.19
-17.20
-6.59
1.74
6.43
7.13
4.60
0.35
-3.97
-7.14
-8.70
-8.95
-8.64
-8.58
-9.28
-10.80
-12.85
-14.94
-16.70
-18.03
-19.16
-20.51
-22.52
-25.45
-29.29
-33.83
-38.81
-44.09
-49.58
-55.09
-60.09
-63.58
-64.38
-61.50
-54.63
-44.37
-32.03
-19.19
-7.07
3.64
12.80
20.47
26.71
31.51
35.00
37.68
40.39
44.07
49.32
56.01
63.28
69.65
73.54
73.79
69.82
61.64
49.49
33.57
13.85
-9.75
-37.16
-67.99
-101.34
-135.90
-170.02
-201.79
-229.24
-250.61
-264.62
-270.86
-269.75
-262.31
-249.75
-233.15
-213.33
-191.14
-167.71
-144.39
-122.55
-102.92
-85.28
-68.46
-50.48
-29.02
-1.66
33.70
78.23
131.26
189.82
248.88
302.49
345.51
375.01
390.63
393.91
387.00
371.70
349.13
320.11
285.68
247.29
206.54
164.78
122.95
81.77
42.20
5.67
-25.94
-50.70
-67.19
-74.92
-74.63
-68.20
-58.30
-47.75
-39.01
-33.94
-33.64
-38.38
-47.35
-58.49
-68.69
-74.53
-73.39
-64.59
-49.59
-31.45
-13.50
1.84
13.61
22.12
28.39
33.42
37.99
42.66
47.78
53.41
59.13
63.98
66.77
66.51
62.83
56.17
47.69
38.93
31.35
25.84
22.42
20.11
17.13
11.39
1.19
-14.17
-34.03
-56.42
-78.56
-97.62
-111.48
-119.32
-121.74
-120.43
-117.51
-114.77
-113.15
-112.49
-111.62
-108.88
-102.82
-92.65
-78.48
-61.12
-41.66
-21.33
-1.15
18.14
36.08
52.29
66.43
78.30
88.06
96.24
103.39
110.14
117.12
124.80
133.11
141.16
147.41
150.11
147.93
139.91
126.07
107.64
86.87
66.15
47.17
30.39
15.07
-0.30
-18.14
-40.62
-68.47
-100.32
-133.11
-163.10
-186.99
-202.80
-206.05
-194.93
-172.19
-144.47
-118.56
-98.04
-82.62
-69.57
-55.62
-39.12
-19.88
-0.14
16.31
25.48
24.50
12.65
-8.01
-32.98
-56.43
-72.34
-76.59
-67.84
-47.66
-19.86
10.50
38.44
60.05
73.21
77.36
73.27
62.82
48.69
33.66
20.23
10.18
4.29
2.33
3.07
4.57
5.13
3.93
1.30
-1.60
-3.34
-2.99
-0.59
2.85
5.62
6.11
3.62
-1.40
-7.49
-12.83
-15.98
-16.39
-14.49
-11.48
-8.72
-7.21
-7.25
-8.54
-10.40
-12.15
-13.26
-13.45
-12.60
-10.68
-7.77
-4.00
0.35
4.88
9.12
12.61
15.00
16.15
16.16
15.27
13.85
12.19
10.53
8.94
7.48
6.17
5.06
4.22
3.63
3.19
2.70
1.94
0.75
-0.86
-2.75
-4.55
-5.77
-5.92
-4.65
-1.97
1.71
5.74
9.43
12.35
14.48
16.15
17.69
19.19
20.35
20.62
19.54
16.98
13.34
9.38
5.90
3.43
2.07
1.54
1.31
0.91
0.00
-1.51
-3.60
-6.13
-9.00
-12.08
-15.28
-18.47
-21.50
-24.25
-26.67
-28.80
-30.71
-32.35
-33.43
-33.48
-31.99
-28.62
-23.42
-16.79
-9.37
-1.85
5.25
11.57
16.86
20.94
23.66
24.97
24.99
23.99
22.32
20.31
18.24
16.30
14.67
13.43
12.62
12.18
11.97
11.78
11.46
10.84
9.76
8.07
5.65
2.41
-1.55
-6.02
-10.67
-15.11
-18.96
-21.85
-23.42
-23.30
-21.21
-17.09
-11.22
-4.21
3.08
9.83
15.39
19.44
21.97
23.15
23.24
22.51
21.19
19.56
17.89
16.42
15.28
14.43
13.68
12.81
11.59
10.02
8.25
6.56
5.19
4.22
3.50
2.69
1.39
-0.73
-3.81
-7.78
-12.32
-16.92
-20.93
-23.62
-24.36
-22.73
-18.73
-12.82
-5.83
1.25
7.54
12.50
15.97
18.06
19.00
18.99
18.16
16.66
14.66
12.49
10.53
9.12
8.45
8.50
9.05
9.80
10.49
10.98
11.25
11.27
10.90
9.88
7.88
4.65
0.19
-5.21
-10.99
-16.50
-21.08
-24.19
-25.44
-24.60
-21.64
-16.80
-10.61
-3.80
2.83
8.62
13.08
16.00
17.30
17.06
15.43
12.78
9.62
6.58
4.24
2.93
2.55
2.68
2.76
2.34
1.24
-0.34
-2.00
-3.32
-4.00
-4.01
-3.58
-3.17
-3.26
-4.28
-6.36
-9.28
-12.42
-14.92
-16.00
-15.17
-12.40
-8.16
-3.13
1.94
6.48
10.14
12.78
14.34
14.84
14.33
12.98
11.08
9.00
7.10
5.70
4.89
4.59
4.57
4.52
4.25
3.66
2.84
1.95
1.13
0.44
-0.20
-0.92
-1.87
-3.16
-4.80
-6.70
-8.72
-10.64
-12.21
-13.19
-13.35
-12.52
-10.69
-8.00
-4.76
-1.37
1.85
4.67
7.01
8.86
10.17
10.91
11.03
10.58
9.78
8.90
8.20
7.78
7.55
7.25
6.68
5.74
4.53
3.27
2.15
1.29
0.62
-0.03
-0.92
-2.27
-4.19
-6.61
-9.27
-11.75
-13.61
-14.46
-14.07
-12.42
-9.70
-6.26
-2.50
1.14
4.31
6.74
8.26
8.83
8.51
7.52
6.13
4.63
3.23
2.07
1.17
0.47
-0.11
-0.66
-1.24
-1.90
-2.69
-3.58
-4.58
-5.69
-7.00
-8.59
-10.56
-12.90
-15.45
-17.88
-19.75
-20.61
-20.11
-18.12
-14.75
-10.36
-5.47
-0.63
3.68
7.15
9.63
11.17
11.88
11.91
11.47
10.72
9.85
9.04
8.42
8.06
7.90
7.84
7.73
7.49
7.09
6.56
5.97
5.32
4.60
3.72
2.55
1.03
-0.83
-2.86
-4.75
-6.10
-6.51
-5.75
-3.84
-1.08
2.01
4.95
7.29
8.85
9.60
9.61
9.00
7.90
6.43
4.70
2.88
1.15
-0.34
-1.47
-2.25
-2.73
-3.08
-3.43
-3.92
-4.59
-5.47
-6.61
-8.10
-10.08
-12.63
-15.69
-19.03
-22.28
-24.99
-26.76
-27.23
-26.19
-23.58
-19.51
-14.34
-8.56
-2.77
2.48
6.76
9.78
11.40
11.51
10.17
7.57
4.14
0.43
-2.95
-5.52
-7.07
-7.61
-7.35
-6.53
-5.33
-3.90
-2.37
-0.97
0.01
0.27
-0.41
-2.07
-4.50
-7.33
-10.10
-12.34
-13.64
-13.72
-12.45
-9.92
-6.47
-2.57
1.24
4.53
7.04
8.68
9.44
9.40
8.61
7.30
5.74
4.31
3.30
2.90
3.12
3.82
4.82
5.90
6.92
7.73
8.24
8.35
8.05
7.42
6.55
5.52
4.30
2.92
1.40
-0.20
-1.74
-3.03
-3.77
-3.73
-2.67
-0.53
2.86
7.36
12.40
16.98
19.99
20.81
19.39
16.78
14.32
14.02
17.21
23.87
32.48
40.69
46.51
48.88
48.92
48.60
51.09
58.45
70.61
85.08
98.09
106.55
108.78
106.83
104.42
107.61
121.73
149.75
191.00
241.45
295.35
346.14
390.05
411.95
400.80
353.77
279.84
195.00
112.95
45.80
-12.38
-67.69
-121.61
-168.39
-199.42
-206.75
-187.18
-144.96
-91.39
-41.11
-5.07
10.96
8.43
-7.19
-29.79
-55.58
-83.79
-116.22
-154.58
-197.04
-239.64
-276.93
-304.56
-320.69
-326.53
-325.32
-322.30
-321.80
-324.88
-330.22
-334.81
-336.01
-332.59
-324.81
-303.44
-263.68
-205.99
-136.59
-64.94
0.98
56.82
101.14
134.41
157.85
171.23
174.72
169.76
158.18
141.96
122.85
102.23
81.94
64.56
51.76
44.96
44.75
50.52
60.42
72.78
84.34
92.20
94.89
91.97
84.52
74.57
64.31
55.48
48.91
44.34
41.36
39.64
38.55
37.46
35.51
31.81
25.62
16.49
4.14
-11.05
-28.03
-45.23
-60.62
-72.32
-79.33
-81.93
-81.68
-80.70
-80.35
-80.54
-79.82
-76.17
-68.06
-55.08
-38.02
-18.54
1.03
18.13
30.29
35.86
34.89
29.52
23.64
21.51
26.08
37.92
55.15
74.51
92.74
107.70
118.61
125.69
129.47
130.37
128.64
124.62
118.91
112.41
105.95
99.99
94.41
88.62
81.85
73.69
64.35
54.74
46.22
40.20
37.73
39.13
43.88
50.74
58.09
64.34
68.44
70.06
69.54
67.61
65.09
62.62
60.59
59.18
58.43
58.31
58.76
59.70
61.05
62.73
64.60
66.47
68.03
68.93
68.83
67.44
64.52
59.89
53.43
45.11
35.01
23.25
9.77
-5.70
-23.58
-44.14
-67.24
-92.04
-117.13
-140.83
-161.55
-178.17
-190.10
-197.25
-199.86
-198.39
-193.41
-185.52
-175.24
-163.00
-149.20
-134.30
-118.88
-103.70
-89.50
-76.77
-65.64
-55.82
-46.74
-37.80
-28.63
-19.15
-9.61
-0.40
8.11
15.61
21.98
27.23
31.52
35.13
38.48
42.09
46.44
51.80
58.02
64.38
69.67
72.48
71.59
66.37
56.79
43.29
26.52
7.10
-14.40
-37.28
-60.62
-83.24
-104.00
-122.02
-136.92
-148.71
-157.51
-163.25
-165.65
-164.36
-159.18
-150.32
-138.35
-124.00
-108.08
-91.26
-74.10
-57.02
-40.29
-24.12
-8.64
5.98
19.50
31.62
42.02
50.50
57.00
61.67
64.72
66.45
67.11
66.88
65.81
63.84
60.81
56.60
51.29
45.22
38.86
32.66
26.76
20.98
14.96
8.49
1.71
-4.84
-10.47
-14.72
-17.49
-19.10
-20.09
-20.97
-22.00
-23.14
-24.13
-24.58
-24.16
-22.67
-20.18
-16.89
-13.14
-9.20
-5.26
-1.38
2.46
6.26
9.94
13.39
16.53
19.34
21.90
24.22
26.19
27.58
28.06
27.42
25.70
23.25
20.59
18.28
16.68
15.84
15.55
15.43
15.08
14.15
12.44
9.88
6.58
2.85
-0.89
-4.16
-6.59
-8.01
-8.56
-8.52
-8.25
-8.03
-7.91
-7.80
-7.56
-7.04
-6.19
-5.04
-3.67
-2.20
-0.73
0.61
1.65
2.27
2.29
1.57
-0.00
-2.50
-5.79
-9.63
-13.58
-17.17
-19.99
-21.82
-22.72
-22.88
-22.57
-22.03
-21.33
-20.48
-19.44
-18.13
-16.42
-14.11
-10.96
-6.75
-1.47
4.68
11.23
17.66
23.44
28.21
31.82
34.25
35.59
35.90
35.17
33.27
29.99
25.12
18.61
10.68
1.89
-6.97
-15.18
-22.34
-28.58
-34.45
-40.61
-47.35
-54.20
-59.95
-62.89
-61.55
-55.36
-45.13
-32.91
-21.36
-12.85
-8.84
-9.60
-14.48
-22.29
-31.69
-41.37
-50.16
-57.21
-62.29
-65.73
-68.12
-69.59
-69.29
-65.54
-56.84
-43.11
-26.45
-10.82
-0.65
0.61
-8.42
-27.07
-53.30
-84.69
-118.96
-154.15
-188.84
-222.17
-253.91
-284.14
-312.48
-337.36
-356.00
-365.21
-362.85
-348.97
-325.87
-297.08
-265.80
-233.75
-201.14
-167.58
-133.35
-100.04
-70.23
-46.37
-29.55
-18.88
-11.84
-5.24
3.61
15.92
31.15
47.24
61.47
71.20
74.82
72.19
64.78
55.23
46.46
40.77
39.17
41.42
46.45
53.26
61.38
70.76
81.31
92.23
101.84
108.08
109.56
106.48
100.78
95.43
93.28
96.03
103.70
114.72
126.62
136.79
143.32
145.47
143.80
139.82
135.17
130.73
126.09
119.64
109.31
93.76
73.10
49.11
24.68
2.85
-13.98
-24.44
-28.15
-25.72
-18.49
-8.35
2.72
12.97
21.35
27.61
32.05
35.21
37.52
39.31
40.89
42.66
45.10
48.56
53.11
58.40
63.84
68.79
72.80
75.68
77.35
77.77
76.74
74.08
69.53
63.01
54.54
44.32
32.64
19.94
6.81
-5.96
-17.31
-25.95
-30.51
-29.90
-23.65
-12.20
3.11
20.40
37.70
53.50
66.94
77.70
85.71
90.81
92.69
91.04
85.89
77.75
67.67
56.95
46.76
37.85
30.34
23.95
18.23
12.87
7.84
3.30
-0.63
-4.04
-7.27
-10.85
-15.26
-20.83
-27.68
-35.80
-45.03
-54.94
-64.62
-72.66
-77.33
-77.08
-71.16
-59.96
-44.98
-28.34
-12.07
2.44
14.59
24.34
31.84
37.09
39.94
40.35
38.62
35.56
32.33
30.01
29.29
30.18
32.05
33.92
34.85
34.35
32.42
29.51
26.18
22.86
19.63
16.22
12.15
6.99
0.45
-7.50
-16.62
-26.32
-35.70
-43.52
-48.35
-48.92
-44.48
-35.17
-22.03
-6.75
8.84
23.21
35.48
45.32
52.75
57.90
60.78
61.46
60.14
57.29
53.64
49.97
46.92
44.81
43.59
42.95
42.45
41.68
40.37
38.41
35.84
32.74
29.20
25.31
21.12
16.70
12.12
7.35
2.23
-3.51
-10.15
-17.67
-25.49
-32.48
-37.04
-37.65
-33.44
-24.51
-12.00
2.28
16.42
28.98
39.19
46.92
52.40
55.90
57.61
57.65
56.22
53.79
51.03
48.70
47.35
47.10
47.55
47.97
47.55
45.76
42.55
38.29
33.61
29.00
24.67
20.50
16.17
11.40
6.03
0.09
-6.29
-12.92
-19.46
-25.34
-29.72
-31.62
-30.18
-25.06
-16.65
-6.02
5.40
16.17
25.24
32.10
36.69
39.22
39.96
39.13
36.98
33.94
30.58
27.61
25.61
24.84
25.09
25.78
26.18
25.73
24.20
21.76
18.82
15.78
12.91
10.21
7.48
4.38
0.57
-4.19
-9.98
-16.62
-23.62
-30.12
-35.09
-37.43
-36.38
-31.72
-23.93
-14.12
-3.72
5.88
13.68
19.11
22.10
22.87
21.81
19.36
16.06
12.48
9.21
6.73
5.33
4.94
5.15
5.27
4.63
2.76
-0.32
-4.08
-7.76
-10.69
-12.66
-14.08
-15.74
-18.51
-22.80
-28.43
-34.55
-39.98
-43.52
-44.31
-41.98
-36.63
-28.81
-19.24
-8.74
2.03
12.56
22.54
31.79
40.17
47.51
53.55
57.91
60.16
60.05
57.78
54.21
50.83
49.26
50.59
54.82
60.64
65.95
68.67
67.66
63.10
56.19
48.51
41.21
34.65
28.48
22.18
15.53
8.95
3.38
-0.08
-0.64
1.82
6.64
12.68
18.71
23.86
27.77
30.50
32.18
32.75
31.86
29.05
24.08
17.14
8.91
0.35
-7.65
-14.52
-20.13
-24.70
-28.66
-32.31
-35.79
-38.96
-41.52
-43.18
-43.82
-43.58
-42.84
-42.08
-41.70
-41.82
-42.26
-42.51
-41.90
-39.75
-35.57
-29.22
-20.96
-11.47
-1.70
7.33
14.73
19.87
22.47
22.56
20.40
16.45
11.29
5.58
0.03
-4.71
-8.23
-10.44
-11.59
-12.19
-12.80
-13.83
-15.40
-17.37
-19.49
-21.54
-23.49
-25.46
-27.60
-30.06
-32.84
-35.81
-38.54
-40.44
-40.92
-39.53
-36.03
-30.57
-23.73
-16.30
-9.14
-2.92
1.94
5.27
7.03
7.36
6.54
4.98
3.27
2.00
1.85
3.20
5.98
9.72
13.74
17.46
20.38
22.50
23.99
25.97
29.32
34.32
40.42
46.40
51.04
53.22
53.13
51.68
51.93
56.66
67.31
83.35
102.54
122.03
138.51
150.67
158.00
163.41
169.75
178.61
189.76
201.71
213.22
223.07
233.02
245.26
265.06
295.88
338.11
388.40
440.66
488.57
525.91
551.37
541.88
484.23
378.64
241.58
98.15
-30.60
-124.04
-188.77
-234.20
-268.08
-292.34
-308.25
-318.71
-327.13
-337.21
-350.84
-368.55
-386.35
-399.87
-403.71
-395.30
-375.33
-347.09
-314.94
-282.23
-251.76
-223.31
-196.47
-169.84
-142.95
-116.26
-90.98
-68.69
-50.65
-38.31
-31.79
-31.38
-36.79
-47.37
-61.70
-77.35
-91.36
-101.00
-104.99
-103.16
-96.90
-87.92
-77.63
-66.59
-54.81
-42.46
-30.41
-20.36
-13.93
-12.16
-14.97
-21.15
-28.93
-36.63
-43.21
-48.42
-52.57
-56.13
-59.47
-62.77
-65.99
-69.01
-71.65
-73.71
-75.07
-75.77
-76.03
-76.21
-76.62
-77.31
-78.01
-78.16
-77.20
-74.75
-70.78
-65.42
-58.88
-51.31
-42.78
-33.44
-23.66
-14.02
-5.22
2.07
7.36
10.50
11.66
11.40
10.51
9.79
9.77
10.51
11.61
12.41
12.34
11.20
9.13
6.43
3.29
-0.39
-4.79
-9.90
-15.19
-19.62
-21.99
-21.40
-17.65
-11.32
-3.47
4.69
12.06
17.72
20.84
20.79
17.51
11.84
5.58
0.96
-0.30
2.17
7.22
12.69
16.60
18.04
17.47
16.21
15.51
15.78
16.44
16.50
15.27
12.90
10.41
9.16
10.17
13.70
19.11
25.23
30.88
35.29
38.20
39.66
39.70
38.03
34.13
27.53
18.14
6.56
-6.03
-18.16
-28.47
-36.08
-40.67
-42.41
-41.75
-39.25
-35.57
-31.48
-27.95
-25.90
-25.83
-27.47
-29.62
-30.50
-28.34
-22.16
-12.08
0.66
14.24
26.84
37.09
44.27
48.26
49.37
48.31
46.05
43.61
41.73
40.46
39.02
36.08
30.43
21.79
11.23
0.92
-6.61
-9.61
-7.85
-2.70
3.53
8.55
11.01
10.92
9.44
8.40
9.64
14.62
23.98
37.39
53.41
69.68
83.44
92.35
95.29
92.76
86.56
79.03
72.00
66.23
61.33
56.28
50.12
42.44
33.45
23.68
13.66
3.68
-6.18
-15.86
-25.16
-33.74
-41.14
-46.94
-50.85
-52.83
-53.15
-52.36
-51.25
-50.62
-51.05
-52.73
-55.42
-58.43
-60.83
-61.60
-59.97
-55.60
-48.82
-40.66
-32.60
-26.11
-22.19
-21.01
-21.96
-23.88
-25.68
-26.66
-26.67
-25.97
-25.03
-24.29
-24.03
-24.37
-25.23
-26.31
-26.99
-26.55
-24.32
-20.03
-14.06
-7.54
-2.03
1.07
1.10
-1.46
-5.18
-8.22
-9.02
-6.73
-1.19
7.37
18.59
32.02
46.89
61.87
75.19
84.97
89.91
89.71
85.12
77.45
68.03
57.72
46.91
35.78
24.65
14.18
5.27
-1.30
-5.22
-6.82
-6.94
-6.53
-6.31
-6.60
-7.37
-8.50
-9.95
-11.88
-14.52
-18.11
-22.86
-28.92
-36.41
-45.18
-54.69
-63.79
-70.93
-74.49
-73.38
-67.34
-57.16
-44.57
-32.02
-22.33
-18.09
-21.08
-31.45
-47.39
-65.33
-80.89
-90.27
-91.38
-84.36
-71.18
-54.61
-37.19
-20.62
-5.78
6.88
17.02
24.33
28.72
30.57
30.73
30.31
30.28
31.10
32.62
34.11
34.56
33.00
28.92
22.46
14.54
6.66
0.39
-3.20
-3.98
-2.87
-1.52
-1.59
-4.18
-9.43
-16.65
-24.74
-32.68
-39.79
-45.69
-50.05
-52.38
-52.12
-48.88
-42.74
-34.40
-24.93
-15.40
-6.53
1.46
8.72
15.39
21.38
26.25
29.39
30.30
28.78
25.14
20.14
14.90
10.67
8.50
8.99
12.07
17.18
23.49
30.38
37.64
45.40
53.79
62.61
71.19
78.62
84.13
87.36
88.44
87.68
85.32
81.50
76.31
70.19
63.95
58.59
54.71
51.85
48.22
41.13
28.05
8.05
-17.34
-44.20
-67.42
-82.63
-87.61
-82.89
-71.10
-55.66
-39.80
-26.12
-16.60
-12.60
-14.45
-20.96
-29.36
-36.12
-38.34
-34.98
-27.18
-17.41
-8.08
-0.53
5.22
9.81
13.67
16.72
18.66
19.58
20.28
22.05
25.96
32.14
39.48
45.94
49.27
47.81
41.18
30.55
18.26
6.94
-1.51
-6.75
-10.05
-13.58
-19.14
-27.12
-36.23
-44.07
-48.40
-48.10
-43.53
-35.93
-26.44
-15.38
-2.15
14.18
34.05
56.81
80.70
103.23
121.82
134.43
140.15
139.44
134.11
126.84
120.23
115.74
112.85
109.16
101.38
86.98
65.58
39.47
12.78
-10.26
-27.06
-37.54
-43.81
-48.81
-54.89
-62.94
-72.56
-82.84
-93.09
-103.09
-112.77
-121.69
-128.75
-132.59
-132.11
-126.97
-117.60
-104.90
-89.72
-72.58
-53.59
-32.75
-10.26
13.10
35.78
55.70
70.70
79.26
81.05
77.19
69.73
60.86
52.07
43.84
35.94
28.12
20.67
14.48
10.58
9.61
11.64
16.52
24.25
35.24
49.95
68.17
88.44
108.15
124.40
135.25
140.69
142.58
143.67
146.14
150.51
155.61
159.43
160.12
156.54
148.40
136.03
120.57
104.26
90.41
82.59
83.14
91.67
104.80
117.39
124.85
125.18
119.57
111.29
103.53
97.62
92.44
85.22
72.80
52.59
22.94
-16.68
-65.46
-120.73
-177.82
-230.39
-271.66
-296.02
-300.46
-285.44
-254.61
-213.83
-169.47
-127.10
-90.61
-62.34
-43.55
-35.04
-37.30
-49.89
-70.45
-94.04
-113.60
-121.78
-113.75
-89.57
-54.92
-19.34
7.19
17.86
11.08
-9.90
-39.16
-71.04
-101.85
-129.94
-154.32
-173.18
-183.59
-182.59
-169.15
-145.70
-118.30
-94.94
-82.61
-84.61
-99.34
-120.94
-141.48
-153.69
-153.19
-139.64
-116.64
-90.44
-68.13
-55.53
-55.75
-68.34
-89.39
-112.20
-128.69
-131.35
-115.57
-81.76
-36.18
10.47
46.55
63.79
60.76
43.32
21.84
6.47
3.18
12.32
30.26
52.36
75.23
97.04
116.34
130.84
137.52
134.10
120.73
100.65
79.09
61.10
49.49
43.88
41.46
38.76
33.52
25.77
17.60
11.99
11.13
15.19
22.02
27.83
28.70
22.03
7.40
-13.37
-36.85
-58.89
-75.48
-83.41
-80.75
-67.33
-44.91
-16.93
12.26
38.57
59.33
73.90
83.35
89.62
94.43
98.70
102.76
106.93
112.05
119.51
130.65
146.01
164.93
185.73
206.43
225.61
242.78
258.13
271.88
283.69
292.58
297.42
297.41
292.52
283.38
270.93
255.95
238.91
219.94
199.20
177.08
154.30
131.79
110.48
91.15
74.24
59.72
46.87
34.27
20.07
2.48
-19.47
-45.51
-74.10
-102.97
-129.90
-153.45
-173.12
-189.20
-202.09
-211.90
-218.30
-221.00
-220.09
-216.52
-211.89
-207.97
-206.24
-207.51
-211.67
-217.80
-224.07
-227.72
-225.28
-213.36
-189.88
-155.34
-113.20
-69.13
-29.10
2.70
25.05
39.47
48.79
55.54
61.05
65.57
69.05
71.85
74.84
78.91
84.19
89.76
93.91
94.89
91.77
84.73
74.83
63.38
51.29
38.78
25.59
11.51
-3.01
-16.71
-27.95
-35.39
-38.65
-38.52
-36.51
-34.23
-32.60
-31.66
-30.68
-28.61
-24.54
-18.16
-9.89
-0.75
7.81
14.32
17.64
17.19
13.12
6.17
-2.71
-12.73
-23.49
-35.09
-47.77
-61.67
-76.57
-91.83
-106.46
-119.36
-129.41
-135.59
-137.23
-134.23
-127.31
-117.97
-108.08
-99.28
-92.23
-86.44
-80.55
-73.21
-63.81
-52.91
-41.87
-32.21
-24.84
-19.80
-16.40
-13.78
-11.44
-9.36
-7.83
-7.24
-8.01
-10.32
-14.14
-19.21
-25.14
-31.40
-37.29
-42.03
-44.95
-45.78
-44.50
-41.28
-36.49
-30.65
-24.32
-17.95
-11.57
-4.91
2.07
9.60
17.88
27.05
36.91
46.82
55.76
62.55
65.88
63.53
54.53
39.68
21.52
3.14
-12.99
-25.60
-34.11
-39.02
-43.93
-51.88
-64.67
-82.67
-105.27
-131.21
-158.25
-182.58
-201.11
-216.36
-231.65
-249.75
-271.57
-296.32
-322.41
-348.09
-371.01
-391.20
-415.21
-447.68
-488.64
-532.94
-572.96
-602.50
-618.93
-622.21
-580.40
-480.03
-328.16
-151.16
20.38
166.37
280.45
357.47
410.59
450.14
477.20
491.87
495.70
492.24
484.93
474.59
460.29
442.51
421.18
393.61
359.61
321.41
282.93
247.88
218.22
194.30
176.66
164.04
152.53
139.39
123.76
106.74
90.30
75.91
64.21
55.73
49.64
43.78
36.66
27.84
17.87
7.67
-2.04
-10.80
-17.86
-22.80
-25.60
-26.33
-25.36
-23.48
-21.72
-20.93
-21.18
-21.46
-20.30
-16.34
-8.91
1.72
14.88
29.99
46.88
65.35
84.30
101.33
113.28
117.83
115.10
108.14
101.77
100.27
105.15
114.42
123.77
129.01
128.09
121.76
112.44
102.45
92.61
82.27
70.30
56.27
41.06
26.39
13.81
3.81
-4.35
-12.16
-21.01
-31.51
-43.16
-54.63
-64.23
-70.50
-72.62
-70.58
-65.12
-57.51
-49.07
-40.95
-33.88
-28.21
-24.10
-21.67
-21.17
-22.90
-27.02
-33.37
-41.52
-50.77
-60.37
-69.65
-78.16
-85.73
-92.40
-98.36
-103.77
-108.67
-112.89
-116.07
-117.69
-117.24
-114.30
-108.70
-100.57
-90.34
-78.75
-66.60
-54.55
-42.81
-31.02
-18.36
-3.79
13.46
33.55
55.77
78.66
100.19
118.16
130.61
136.28
135.04
128.08
117.82
107.32
99.40
95.69
96.11
98.94
101.58
101.44
96.72
86.62
71.27
51.52
28.87
5.45
-16.05
-32.77
-42.41
-43.70
-36.67
-22.40
-2.62
20.66
45.20
68.40
87.38
99.52
103.29
99.07
89.28
77.74
68.32
63.51
63.52
66.56
69.79
70.90
69.20
65.82
62.93
62.75
66.91
76.30
91.27
111.27
134.03
154.82
166.95
163.95
142.93
107.11
65.94
31.85
15.20
19.70
40.99
68.93
92.31
103.39
100.00
84.65
61.77
35.06
6.38
-23.64
-54.22
-83.39
-108.29
-126.43
-136.95
-141.27
-142.45
-143.78
-147.33
-153.33
-160.50
-166.96
-171.10
-172.04
-169.42
-163.06
-152.76
-138.48
-120.59
-100.15
-78.85
-58.59
-41.07
-27.50
-18.45
-13.97
-13.57
-16.28
-20.67
-25.06
-27.98
-28.51
-26.68
-23.27
-19.51
-16.53
-14.95
-14.77
-15.45
-16.17
-16.06
-14.50
-11.26
-6.72
-1.96
1.48
1.95
-1.73
-9.79
-21.38
-34.73
-47.66
-58.19
-65.00
-67.58
-66.12
-61.25
-53.74
-44.38
-34.07
-23.88
-14.94
-8.19
-3.90
-1.44
0.62
4.01
9.96
18.69
29.28
40.03
49.18
55.50
58.51
58.40
55.72
51.04
44.76
37.21
28.68
19.57
10.39
1.68
-6.12
-12.83
-18.52
-23.47
-27.90
-31.82
-35.03
-37.22
-38.21
-38.20
-37.72
-37.40
-37.66
-38.41
-39.07
-38.81
-36.89
-32.99
-27.35
-20.60
-13.49
-6.66
-0.42
5.17
10.20
14.70
18.60
21.75
23.99
25.33
25.90
25.91
25.62
25.14
24.53
23.78
22.92
21.99
21.06
20.18
19.39
18.70
18.11
17.55
16.79
15.44
13.12
9.72
5.55
1.35
-2.01
-3.91
-4.28
-3.60
-2.63
-2.12
-2.48
-3.77
-5.81
-8.34
-11.05
-13.54
-15.30
-15.74
-14.45
-11.30
-6.62
-1.06
4.65
9.90
14.37
18.03
21.04
23.54
25.57
26.98
27.55
27.14
25.76
23.64
21.13
18.58
16.21
14.02
11.90
9.73
7.54
5.45
3.67
2.27
1.14
-0.05
-1.66
-3.97
-6.96
-10.35
-13.74
-16.77
-19.30
-21.46
-23.53
-25.80
-28.48
-31.58
-35.06
-38.76
-42.45
-45.79
-48.29
-49.37
-48.48
-45.38
-40.15
-33.30
-25.50
-17.48
-9.73
-2.51
4.13
10.25
16.01
21.53
26.97
32.50
38.27
44.33
50.61
56.83
62.58
67.45
71.15
73.70
75.40
76.72
78.07
79.53
80.81
81.21
79.97
76.46
70.53
62.52
53.16
43.35
33.84
25.06
17.11
9.76
2.80
-3.82
-9.84
-14.79
-18.16
-19.69
-19.48
-17.94
-15.58
-12.77
-9.68
-6.33
-2.73
0.94
4.37
7.14
8.99
9.85
9.95
9.62
9.19
8.79
8.32
7.56
6.29
4.48
2.33
0.19
-1.68
-3.24
-4.72
-6.53
-8.99
-12.12
-15.63
-19.06
-21.95
-24.11
-25.66
-26.94
-28.42
-30.38
-32.88
-35.65
-38.16
-39.72
-39.67
-37.57
-33.36
-27.43
-20.54
-13.68
-7.75
-3.36
-0.64
0.77
1.49
2.12
3.02
4.13
5.16
5.74
5.65
4.91
3.66
2.03
0.12
-2.02
-4.20
-6.07
-7.18
-7.20
-6.20
-4.68
-3.39
-3.05
-4.08
-6.53
-10.14
-14.59
-19.60
-24.94
-30.33
-35.35
-39.50
-42.50
-44.57
-46.50
-49.44
-54.34
-61.43
-69.87
-78.04
-84.08
-86.61
-85.18
-80.30
-73.07
-64.66
-56.00
-47.59
-39.61
-32.09
-24.93
-17.90
-10.68
-2.89
5.66
14.93
24.56
34.06
43.06
51.64
60.61
71.41
85.66
104.39
127.25
152.14
175.54
193.70
204.08
206.21
201.93
194.41
186.96
181.78
179.45
178.97
178.17
174.45
165.55
150.30
129.30
105.07
81.51
62.61
50.98
46.78
47.72
50.17
50.51
46.30
36.63
21.72
2.36
-20.35
-45.05
-70.02
-93.28
-112.93
-127.81
-137.81
-143.94
-147.94
-151.67
-156.46
-162.76
-170.21
-178.02
-185.51
-192.59
-199.78
-207.80
-216.80
-225.79
-232.58
-234.60
-229.76
-217.39
-198.17
-173.48
-144.77
-113.43
-81.21
-50.38
-23.35
-1.62
15.12
28.97
42.71
58.08
74.67
90.26
102.34
110.01
114.73
119.72
128.10
141.46
159.39
180.12
201.54
221.70
238.79
250.92
256.29
253.99
244.72
230.97
216.23
203.48
193.69
185.43
175.83
162.41
144.79
125.17
107.34
94.89
89.45
90.13
94.37
99.42
103.78
107.54
111.44
115.36
117.54
114.81
103.70
82.06
50.06
10.34
-32.75
-74.37
-110.24
-137.02
-152.47
-155.71
-147.33
-129.68
-106.62
-82.75
-62.42
-48.94
-43.53
-45.16
-51.21
-58.45
-64.22
-67.02
-66.68
-64.19
-62.16
-62.97
-67.92
-76.90
-88.68
-101.52
-113.53
-122.86
-127.73
-128.69
-126.40
-121.38
-114.64
-108.17
-105.01
-108.11
-118.79
-135.75
-158.88
-186.26
-214.94
-242.30
-267.19
-290.51
-314.28
-340.13
-368.11
-400.92
-438.64
-478.08
-514.09
-541.47
-557.58
-563.15
-561.40
-529.02
-455.60
-345.38
-216.36
-90.52
17.43
102.31
165.63
211.88
246.30
269.22
279.52
280.65
277.25
274.49
276.10
283.63
296.42
312.08
323.83
326.00
316.67
295.57
266.50
234.66
204.65
179.29
159.45
142.42
125.56
107.90
89.90
73.19
58.94
47.41
38.36
31.65
26.52
22.70
20.50
20.00
21.21
23.51
26.00
28.00
29.34
29.90
29.82
29.30
28.24
26.48
23.68
19.55
14.17
8.00
1.93
-3.09
-6.41
-8.01
-8.43
-8.71
-9.81
-12.24
-15.68
-19.02
-20.78
-19.89
-16.28
-11.12
-6.42
-4.09
-5.04
-8.64
-12.85
-14.98
-12.68
-4.73
8.77
26.31
45.49
63.21
76.29
82.74
82.44
77.49
71.59
68.67
70.91
78.13
87.47
94.62
96.36
91.49
80.84
66.37
50.16
33.35
17.29
3.22
-7.67
-13.20
-11.49
-2.05
13.78
33.26
52.73
70.19
84.72
96.08
106.06
117.31
132.33
152.56
178.04
206.43
235.57
262.75
276.90
270.04
240.82
196.06
146.99
108.59
81.40
62.27
47.80
35.25
22.94
10.68
-1.87
-15.51
-31.07
-49.48
-69.55
-89.76
-109.46
-128.34
-147.00
-167.23
-191.56
-222.04
-259.33
-299.95
-337.61
-365.18
-376.36
-368.17
-342.26
-303.96
-259.74
-214.88
-170.65
-125.13
-75.18
-18.49
44.40
109.31
169.30
216.93
246.59
256.67
249.47
229.63
201.81
168.70
130.40
85.76
34.60
-20.71
-74.93
-121.43
-154.50
-170.96
-170.71
-156.30
-131.93
-102.55
-73.16
-48.25
-31.50
-25.18
-29.83
-44.12
-65.02
-88.29
-109.27
-123.85
-129.39
-125.49
-114.38
-100.30
-88.20
-82.08
-83.50
-91.05
-100.69
-107.14
-105.83
-94.43
-73.60
-46.21
-15.65
15.79
47.31
78.84
109.39
135.76
152.79
154.83
138.44
104.31
57.87
7.85
-35.85
-64.54
-72.41
-57.61
-23.30
23.27
72.47
115.06
145.06
161.45
167.69
169.13
169.98
170.44
168.01
159.92
145.23
125.28
102.26
77.37
50.32
20.57
-12.01
-44.37
-70.75
-85.74
-87.50
-79.23
-67.81
-60.68
-62.77
-77.14
-103.37
-138.11
-176.53
-213.43
-244.45
-266.85
-280.08
-275.27
-250.04
-209.43
-163.64
-122.26
-89.20
-63.53
-42.58
-24.18
-7.23
6.88
15.92
21.22
25.17
30.55
39.21
51.82
67.99
86.51
104.31
118.48
127.65
130.04
125.87
116.51
104.02
90.50
77.59
65.34
53.24
41.16
29.29
18.60
10.09
4.48
2.01
2.37
4.41
6.82
8.65
9.42
9.52
9.65
10.56
12.75
16.22
20.37
24.39
27.63
29.74
30.85
31.26
31.21
30.70
29.53
27.49
24.50
20.84
17.05
13.81
11.59
10.46
10.07
9.83
9.23
8.01
6.26
4.27
2.34
0.62
-1.04
-2.95
-5.52
-9.04
-13.57
-18.83
-24.13
-28.56
-31.17
-31.18
-28.30
-22.76
-15.29
-6.91
1.37
8.79
14.96
19.82
23.53
26.23
27.99
28.79
28.61
27.53
25.82
23.84
21.90
20.15
18.49
16.70
14.57
12.10
9.56
7.26
5.42
3.99
2.65
0.87
-1.78
-5.55
-10.33
-15.66
-20.77
-24.76
-26.76
-26.20
-22.95
-17.38
-10.30
-2.66
4.67
11.13
16.44
20.48
23.24
24.64
24.72
23.62
21.69
19.36
17.07
15.12
13.59
12.36
11.23
9.97
8.48
6.84
5.28
4.08
3.40
3.12
2.91
2.21
0.56
-2.28
-6.17
-10.59
-14.75
-17.81
-19.06
-18.09
-14.90
-9.86
-3.62
3.06
9.50
15.22
19.93
23.47
25.75
26.74
26.46
25.04
22.82
20.19
17.59
15.36
13.62
12.32
11.30
10.39
9.48
8.55
7.61
6.64
5.56
4.25
2.60
0.55
-1.94
-4.91
-8.36
-12.19
-16.04
-19.31
-21.24
-21.23
-19.04
-15.01
-9.85
-4.37
0.82
5.44
9.51
13.07
16.05
18.22
19.33
19.27
18.24
16.63
14.91
13.41
12.29
11.46
10.69
9.76
8.55
7.08
5.53
4.10
2.91
1.92
0.89
-0.48
-2.48
-5.21
-8.55
-12.18
-15.69
-18.62
-20.53
-21.04
-19.95
-17.25
-13.19
-8.26
-3.06
1.83
6.04
9.35
11.77
13.36
14.19
14.27
13.61
12.34
10.68
8.95
7.49
6.52
6.05
5.91
5.83
5.58
5.07
4.35
3.56
2.79
1.96
0.88
-0.74
-3.11
-6.31
-10.17
-14.33
-18.24
-21.28
-22.85
-22.55
-20.30
-16.36
-11.29
-5.72
-0.25
4.72
8.98
12.41
14.90
16.37
16.74
16.04
14.48
12.43
10.35
8.67
7.63
7.24
7.26
7.30
7.03
6.26
5.04
3.60
2.23
1.08
0.10
-0.86
-2.07
-3.70
-5.80
-8.28
-10.93
-13.42
-15.39
-16.40
-16.10
-14.33
-11.15
-6.94
-2.24
2.37
6.47
9.80
12.28
13.92
14.68
14.53
13.46
11.59
9.22
6.79
4.76
3.44
2.93
3.04
3.47
3.86
3.98
3.71
3.10
2.27
1.34
0.37
-0.67
-1.86
-3.36
-5.25
-7.53
-10.06
-12.55
-14.58
-15.70
-15.52
-13.82
-10.69
-6.47
-1.79
2.70
6.44
9.10
10.60
11.01
10.52
9.30
7.58
5.59
3.62
1.94
0.73
0.07
-0.11
0.01
0.24
0.39
0.33
0.09
-0.26
-0.54
-0.66
-0.69
-0.82
-1.35
-2.52
-4.43
-6.95
-9.77
-12.47
-14.59
-15.69
-15.47
-13.78
-10.74
-6.67
-2.10
2.45
6.50
9.73
11.96
13.14
13.32
12.62
11.26
9.53
7.79
6.37
5.48
5.20
5.40
5.80
6.03
5.76
4.83
3.25
1.28
-0.77
-2.60
-4.05
-5.16
-6.12
-7.15
-8.44
-10.04
-11.86
-13.63
-14.96
-15.45
-14.79
-12.89
-9.89
-6.20
-2.30
1.28
4.14
5.98
6.69
6.29
5.00
3.16
1.20
-0.48
-1.59
-2.01
-1.82
-1.21
-0.47
0.17
0.51
0.47
0.08
-0.52
-1.16
-1.70
-2.15
-2.64
-3.39
-4.59
-6.33
-8.46
-10.65
-12.39
-13.16
-12.58
-10.51
-7.15
-3.00
1.27
5.04
7.85
9.55
10.17
9.87
8.87
7.36
5.61
3.93
2.61
1.82
1.54
1.54
1.47
1.09
0.27
-0.91
-2.24
-3.48
-4.48
-5.24
-5.84
-6.50
-7.44
-8.86
-10.77
-12.89
-14.72
-15.63
-15.08
-12.89
-9.31
-4.94
-0.48
3.42
6.43
8.44
9.51
9.77
9.29
8.16
6.53
4.63
2.72
1.04
-0.25
-1.14
-1.72
-2.14
-2.58
-3.13
-3.82
-4.56
-5.24
-5.77
-6.19
-6.70
-7.53
-8.92
-10.90
-13.25
-15.46
-16.92
-17.10
-15.71
-12.83
-8.85
-4.33
0.16
4.12
7.23
9.35
10.43
10.54
9.83
8.45
6.62
4.59
2.62
0.95
-0.21
-0.82
-0.98
-0.94
-0.99
-1.30
-1.86
-2.49
-3.03
-3.40
-3.74
-4.34
-5.49
-7.32
-9.73
-12.35
-14.70
-16.26
-16.65
-15.71
-13.53
-10.42
-6.84
-3.25
0.02
2.72
4.80
6.25
7.09
7.34
7.05
6.29
5.22
3.99
2.76
1.58
0.46
-0.70
-1.94
-3.30
-4.73
-6.12
-7.36
-8.41
-9.34
-10.34
-11.67
-13.55
-16.09
-19.16
-22.44
-25.48
-27.77
-28.95
-28.77
-27.20
-24.36
-20.47
-15.89
-11.03
-6.33
-2.23
0.91
2.88
3.65
3.34
2.24
0.70
-0.83
-1.97
-2.42
-2.03
-0.84
0.93
2.92
4.78
6.25
7.28
7.97
8.47
8.89
9.34
9.70
9.69
8.98
7.23
4.44
1.01
-2.26
-4.43
-4.57
-2.39
1.66
6.47
10.72
13.44
14.36
13.82
12.61
12.02
12.87
15.19
18.12
20.40
21.09
20.01
17.62
15.14
14.67
17.74
24.63
34.22
44.57
53.94
61.43
66.59
69.93
73.53
79.07
87.01
96.16
104.27
109.25
110.28
107.50
103.37
103.45
113.46
137.43
175.88
225.49
280.25
333.30
377.67
396.59
379.25
324.75
244.45
156.54
76.49
11.51
-34.34
-69.10
-99.37
-126.22
-147.48
-160.00
-161.96
-153.54
-136.57
-114.55
-93.96
-80.77
-77.90
-85.36
-100.47
-119.57
-139.44
-158.05
-174.65
-191.25
-209.85
-230.99
-254.15
-278.34
-302.92
-327.66
-351.97
-365.48
-359.35
-329.64
-279.93
-219.70
-159.13
-105.22
-60.60
-24.31
4.87
29.59
50.98
68.95
82.92
92.38
97.02
97.06
93.45
87.06
78.71
68.98
58.39
47.62
37.56
29.13
23.10
19.75
18.75
18.83
18.12
15.31
10.26
3.98
-2.13
-6.87
-9.73
-10.75
-10.45
-9.51
-8.30
-6.65
-4.15
-0.48
4.35
9.96
15.67
20.73
24.39
26.13
25.86
23.87
20.77
17.34
14.29
12.10
10.97
10.75
11.07
11.56
11.98
12.22
12.29
12.23
12.00
11.56
10.90
10.07
9.14
8.17
7.11
5.80
4.02
1.54
-1.72
-5.65
-9.97
-14.18
-17.64
-19.71
-19.89
-17.99
-14.18
-8.99
-3.14
2.66
7.82
11.98
14.95
16.73
17.39
17.10
16.14
14.77
13.29
11.93
10.91
10.33
10.20
10.41
10.76
11.03
11.08
10.93
10.80
10.91
11.45
12.38
13.41
14.02
13.64
11.75
8.12
2.88
-3.45
-10.11
-16.23
-21.06
-24.10
-25.09
-24.04
-21.18
-16.89
-11.72
-6.31
-1.30
2.75
5.51
6.90
7.16
6.69
5.94
5.25
4.73
4.33
3.91
3.40
2.91
2.62
2.72
3.29
4.14
4.98
5.46
5.33
4.58
3.36
1.92
0.52
-0.69
-1.80
-3.04
-4.77
-7.25
-10.51
-14.21
-17.69
-20.15
-20.95
-19.74
-16.61
-12.00
-6.56
-0.92
4.34
8.80
12.17
14.34
15.32
15.26
14.36
12.89
11.07
9.12
7.22
5.62
4.50
3.98
4.01
4.37
4.77
4.92
4.71
4.19
3.50
2.77
1.99
1.02
-0.33
-2.18
-4.57
-7.43
-10.56
-13.69
-16.40
-18.16
-18.46
-16.99
-13.80
-9.34
-4.33
0.50
4.61
7.80
10.11
11.65
12.48
12.61
12.02
10.86
9.42
8.03
6.98
6.37
6.07
5.84
5.41
4.66
3.60
2.39
1.25
0.36
-0.17
-0.39
-0.54
-0.88
-1.73
-3.26
-5.43
-7.97
-10.45
-12.40
-13.37
-13.04
-11.27
-8.17
-4.06
0.54
5.04
8.94
11.91
13.86
14.87
15.06
14.58
13.56
12.16
10.63
9.23
8.20
7.57
7.19
6.75
6.00
4.79
3.23
1.51
-0.11
-1.50
-2.64
-3.65
-4.70
-6.00
-7.74
-10.01
-12.71
-15.48
-17.71
-18.73
-18.01
-15.40
-11.19
-6.01
-0.64
4.27
8.31
11.33
13.33
14.38
14.54
13.86
12.51
10.71
8.74
6.89
5.30
3.99
2.91
1.95
1.09
0.29
-0.40
-1.03
-1.69
-2.53
-3.65
-5.12
-6.91
-8.88
-10.84
-12.51
-13.59
-13.70
-12.53
-9.94
-6.01
-1.10
4.23
9.44
14.03
17.69
20.28
21.76
22.12
21.45
19.93
17.85
15.56
13.40
11.61
10.23
9.16
8.18
7.12
5.82
4.33
2.80
1.50
0.63
0.18
-0.09
-0.62
-1.82
-3.98
-6.98
-10.42
-13.66
-16.00
-16.90
-16.10
-13.67
-9.98
-5.59
-1.12
2.94
6.29
8.79
10.40
11.15
11.08
10.26
8.90
7.31
5.83
4.74
4.14
3.94
3.95
3.94
3.78
3.42
2.89
2.25
1.51
0.59
-0.61
-2.24
-4.41
-7.09
-10.12
-13.14
-15.67
-17.15
-17.15
-15.52
-12.35
-8.08
-3.32
1.31
5.35
8.54
10.82
12.27
12.96
12.91
12.12
10.69
8.81
6.83
5.10
3.86
3.17
2.84
2.67
2.45
2.12
1.68
1.21
0.74
0.20
-0.55
-1.67
-3.33
-5.59
-8.37
-11.38
-14.11
-15.96
-16.39
-15.12
-12.25
-8.25
-3.73
0.67
4.51
7.58
9.84
11.38
12.27
12.58
12.34
11.66
10.72
9.80
9.21
9.14
9.58
10.31
10.95
11.16
10.78
9.86
8.66
7.39
6.19
5.04
3.78
2.29
0.43
-1.85
-4.61
-7.85
-11.38
-14.76
-17.33
-18.38
-17.43
-14.51
-10.15
-5.23
-0.60
3.19
6.04
8.14
9.80
11.15
12.14
12.64
12.55
11.97
11.11
10.28
9.66
9.22
8.86
8.39
7.74
6.93
6.09
5.33
4.69
4.12
3.48
2.64
1.52
0.10
-1.63
-3.68
-6.03
-8.60
-11.25
-13.76
-15.77
-16.91
-16.82
-15.30
-12.33
-8.20
-3.41
1.41
5.68
9.01
11.25
12.50
12.99
12.95
12.51
11.79
10.84
9.77
8.68
7.71
6.95
6.46
6.26
6.29
6.48
6.69
6.75
6.48
5.74
4.55
3.02
1.39
-0.08
-1.27
-2.18
-2.97
-3.88
-5.16
-6.97
-9.32
-12.04
-14.74
-16.83
-17.73
-16.99
-14.47
-10.48
-5.64
-0.72
3.64
7.08
9.53
11.15
12.15
12.74
13.00
13.03
12.95
12.81
12.71
12.62
12.48
12.22
11.80
11.28
10.75
10.34
10.08
9.88
9.54
8.85
7.66
5.99
4.04
2.07
0.34
-1.08
-2.27
-3.46
-4.90
-6.76
-9.09
-11.78
-14.58
-17.10
-18.84
-19.32
-18.18
-15.36
-11.17
-6.25
-1.39
2.78
5.94
8.14
9.65
10.76
11.65
12.29
12.62
12.55
12.16
11.60
11.08
10.74
10.61
10.58
10.53
10.36
10.12
9.94
9.98
10.33
10.94
11.62
12.09
12.09
11.48
10.24
8.50
6.39
4.06
1.58
-0.99
-3.55
-5.94
-7.92
-9.21
-9.48
-8.46
-5.89
-1.70
3.97
10.79
18.22
25.65
32.54
38.51
43.36
47.02
49.56
51.04
51.63
51.61
51.37
51.34
51.75
52.55
53.39
53.81
53.45
52.26
50.51
48.57
46.76
45.21
43.89
42.71
41.52
40.07
37.97
34.62
29.49
22.26
13.04
2.30
-9.36
-21.45
-33.73
-46.09
-58.25
-69.70
-79.70
-87.53
-92.81
-95.54
-96.02
-94.63
-91.57
-86.96
-80.96
-73.94
-66.66
-59.94
-54.46
-50.39
-47.39
-44.80
-41.96
-38.48
-34.42
-30.04
-25.69
-21.56
-17.65
-13.92
-10.40
-7.22
-4.56
-2.53
-1.07
0.03
0.96
1.83
2.59
3.06
3.11
2.65
1.68
0.22
-1.70
-4.00
-6.43
-8.56
-9.83
-9.71
-7.95
-4.72
-0.54
3.93
8.05
11.47
14.10
16.02
17.33
18.06
18.13
17.49
16.22
14.60
13.08
12.05
11.72
11.98
12.52
12.98
13.12
12.91
12.48
11.96
11.37
10.63
9.66
8.46
7.15
5.88
4.76
3.74
2.68
1.38
-0.29
-2.31
-4.50
-6.54
-8.02
-8.56
-7.89
-5.95
-2.97
0.63
4.29
7.55
10.10
11.82
12.78
13.07
12.80
12.05
10.95
9.69
8.56
7.85
7.72
8.18
9.05
10.05
10.90
11.40
11.50
11.27
10.83
10.22
9.47
8.54
7.38
6.03
4.55
3.02
1.45
-0.24
-2.14
-4.29
-6.54
-8.60
-10.06
-10.60
-10.12
-8.74
-6.76
-4.53
-2.38
-0.54
0.84
1.68
1.94
1.60
0.74
-0.57
-2.14
-3.82
-5.41
-6.76
-7.81
-8.55
-9.11
-9.60
-10.11
-10.63
-11.05
-11.27
-11.27
-11.16
-11.15
-11.40
-12.02
-12.97
-14.15
-15.38
-16.51
-17.36
-17.75
-17.47
-16.41
-14.56
-12.04
-9.09
-5.96
-2.85
0.11
2.79
5.04
6.66
7.50
7.52
6.89
5.92
4.97
4.31
4.03
4.03
4.10
4.06
3.80
3.31
2.68
2.03
1.50
1.16
1.01
0.95
0.82
0.43
-0.39
-1.73
-3.57
-5.73
-7.91
-9.65
-10.43
-9.88
-7.83
-4.49
-0.33
4.03
8.06
11.48
14.24
16.35
17.74
18.20
17.52
15.68
13.01
10.16
7.82
6.46
6.05
6.11
5.99
5.15
3.48
1.27
-0.94
-2.72
-3.91
-4.79
-5.79
-7.34
-9.64
-12.53
-15.63
-18.51
-20.81
-22.39
-23.20
-23.25
-22.50
-20.95
-18.65
-15.83
-12.84
-10.02
-7.63
-5.74
-4.26
-3.05
-1.99
-1.05
-0.27
0.29
0.56
0.44
-0.15
-1.29
-2.95
-4.96
-7.04
-8.90
-10.31
-11.24
-11.80
-12.18
-12.51
-12.79
-12.95
-12.93
-12.78
-12.66
-12.76
-13.13
-13.63
-13.91
-13.52
-12.12
-9.55
-5.90
-1.42
3.49
8.45
13.03
16.87
19.65
21.25
21.73
21.44
20.83
20.39
20.45
21.05
21.94
22.75
23.07
22.71
21.77
20.64
19.92
20.24
21.92
24.72
27.61
29.01
27.33
21.67
12.36
0.93
-10.44
-19.75
-25.94
-29.10
-30.05
-29.72
-28.56
-26.47
-23.09
-18.31
-12.47
-6.32
-0.61
4.21
8.12
11.35
14.08
16.33
17.96
18.90
19.40
20.02
21.39
23.89
27.42
31.40
35.06
37.75
39.24
39.65
39.39
38.93
38.59
38.66
39.35
40.82
43.08
45.90
48.68
50.70
51.32
50.36
48.12
45.27
42.53
40.35
38.77
37.50
36.22
34.62
32.60
30.09
27.01
23.20
18.46
12.71
6.08
-1.05
-8.04
-14.09
-18.50
-20.85
-21.26
-20.39
-19.24
-18.81
-19.77
-22.32
-26.17
-30.80
-35.65
-40.27
-44.40
-47.86
-50.58
-52.53
-53.78
-54.49
-54.78
-54.73
-54.26
-53.16
-51.23
-48.33
-44.44
-39.72
-34.48
-29.07
-23.88
-19.22
-15.26
-12.04
-9.52
-7.70
-6.70
-6.77
-8.09
-10.59
-13.78
-16.80
-18.72
-18.91
-17.37
-14.75
-12.04
-10.19
-9.76
-10.83
-13.12
-16.25
-19.87
-23.70
-27.42
-30.62
-32.95
-34.29
-34.86
-35.20
-35.92
-37.35
-39.39
-41.46
-42.84
-42.91
-41.43
-38.58
-34.80
-30.66
-26.61
-22.98
-19.90
-17.40
-15.37
-13.69
-12.18
-10.68
-9.08
-7.27
-5.19
-2.84
-0.31
2.24
4.55
6.40
7.68
8.42
8.80
8.97
9.05
9.02
8.79
8.28
7.48
6.45
5.23
3.83
2.20
0.34
-1.65
-3.41
-4.52
-4.55
-3.29
-0.81
2.58
6.43
10.31
13.88
16.88
19.16
20.67
21.40
21.43
20.91
20.04
18.97
17.88
16.83
15.88
15.06
14.39
13.89
13.56
13.38
13.27
13.17
12.97
12.59
12.01
11.26
10.42
9.55
8.69
7.75
6.62
5.15
3.25
1.03
-1.27
-3.26
-4.52
-4.71
-3.71
-1.61
1.26
4.49
7.61
10.25
12.21
13.44
14.01
14.03
13.60
12.81
11.67
10.29
8.80
7.40
6.27
5.52
5.14
5.03
4.99
4.86
4.55
4.05
3.41
2.73
2.04
1.31
0.49
-0.50
-1.72
-3.21
-4.94
-6.89
-8.97
-10.96
-12.53
-13.27
-12.83
-11.10
-8.23
-4.63
-0.84
2.70
5.71
8.13
9.95
11.18
11.77
11.72
11.09
10.06
8.87
7.72
6.72
5.88
5.12
4.35
3.57
2.81
2.16
1.67
1.32
1.01
0.59
-0.04
-0.90
-1.80
-2.54
-2.89
-2.79
-2.38
-1.88
-1.38
-0.73
0.52
2.93
6.92
12.55
19.40
26.69
33.58
39.34
43.61
46.35
47.75
48.14
47.91
47.47
47.26
47.73
49.11
51.20
53.27
54.20
52.95
49.03
42.70
34.81
26.20
17.21
7.57
-3.33
-15.75
-29.16
-42.21
-53.22
-61.04
-65.46
-67.16
-67.19
-66.28
-64.61
-61.83
-57.36
-50.99
-43.13
-34.77
-27.13
-21.09
-16.95
-14.47
-13.07
-11.82
-10.05
-7.56
-4.80
-2.56
-1.49
-1.76
-3.04
-4.65
-5.45
-4.69
-2.45
0.27
2.13
2.27
0.82
-1.18
-1.97
1.19
11.08
29.55
56.55
89.72
124.91
157.31
182.96
196.13
194.31
179.68
158.69
138.40
122.63
111.13
101.71
92.59
83.58
76.75
72.84
71.07
69.32
64.97
56.03
41.94
23.52
2.54
-18.61
-35.67
-45.82
-48.08
-43.40
-33.98
-22.43
-11.18
-2.05
4.06
6.91
6.31
2.26
-5.05
-14.94
-26.32
-37.87
-48.50
-57.41
-64.27
-69.42
-73.59
-77.40
-80.90
-83.36
-83.46
-79.92
-72.21
-60.95
-48.04
-35.84
-26.40
-20.76
-18.83
-19.71
-22.17
-25.22
-28.33
-31.52
-35.28
-40.36
-47.51
-57.17
-69.30
-83.26
-97.96
-112.29
-125.48
-137.35
-148.36
-159.27
-170.79
-183.14
-195.63
-206.64
-213.87
-214.99
-208.47
-194.18
-173.49
-148.74
-122.36
-95.91
-69.58
-42.33
-12.72
20.12
55.56
91.33
124.07
150.46
168.30
177.15
178.19
173.43
164.82
153.67
140.75
126.60
112.01
97.99
85.38
74.45
64.65
54.94
44.36
32.56
19.95
7.45
-3.89
-13.35
-20.67
-26.05
-29.99
-33.12
-36.05
-39.14
-42.40
-45.41
-47.40
-47.58
-45.47
-41.17
-35.34
-29.02
-23.22
-18.55
-15.14
-12.74
-10.93
-9.45
-8.23
-7.39
-7.04
-7.13
-7.42
-7.57
-7.29
-6.48
-5.28
-3.97
-2.81
-1.95
-1.34
-0.87
-0.46
-0.10
0.06
-0.15
-0.82
-1.99
-3.61
-5.59
-7.84
-10.19
-12.36
-13.95
-14.46
-13.57
-11.19
-7.55
-3.15
1.46
5.84
9.71
12.91
15.33
16.81
17.25
16.66
15.29
13.60
12.07
11.09
10.71
10.75
10.82
10.61
9.92
8.80
7.40
5.96
4.63
3.48
2.54
1.73
0.93
-0.05
-1.41
-3.29
-5.65
-8.21
-10.44
-11.74
-11.63
-9.93
-6.83
-2.77
1.66
5.96
9.75
12.82
15.06
16.39
16.78
16.25
14.98
13.19
11.23
9.36
7.80
6.58
5.60
4.73
3.82
2.84
1.83
0.89
0.08
-0.60
-1.24
-1.97
-2.93
-4.19
-5.75
-7.55
-9.45
-11.24
-12.62
-13.25
-12.81
-11.08
-8.09
-4.14
0.22
4.30
7.49
9.40
9.99
9.56
8.59
7.53
6.68
6.04
5.50
4.85
3.98
2.88
1.65
0.42
-0.75
-1.87
-3.02
-4.28
-5.70
-7.26
-8.89
-10.53
-12.16
-13.80
-15.46
-17.00
-18.14
-18.46
-17.56
-15.25
-11.65
-7.19
-2.45
2.00
5.70
8.42
10.02
10.51
9.94
8.50
6.48
4.22
2.11
0.41
-0.73
-1.31
-1.48
-1.43
-1.36
-1.43
-1.69
-2.10
-2.60
-3.21
-4.09
-5.49
-7.67
-10.66
-14.16
-17.52
-19.95
-20.81
-19.82
-17.16
-13.32
-8.90
-4.38
-0.09
3.76
7.06
9.67
11.50
12.52
12.78
12.42
11.55
10.30
8.78
7.10
5.42
3.88
2.56
1.49
0.60
-0.16
-0.88
-1.62
-2.45
-3.48
-4.82
-6.57
-8.71
-11.09
-13.39
-15.21
-16.10
-15.74
-13.95
-10.80
-6.58
-1.75
3.16
7.64
11.30
13.87
15.29
15.62
15.08
13.99
12.65
11.35
10.25
9.43
8.85
8.42
8.07
7.74
7.43
7.13
6.82
6.39
5.70
4.60
2.97
0.76
-1.97
-4.99
-7.92
-10.28
-11.57
-11.43
-9.76
-6.78
-2.95
1.15
5.05
8.39
11.01
12.82
13.77
13.83
13.02
11.50
9.54
7.45
5.49
3.83
2.53
1.57
0.96
0.65
0.57
0.55
0.34
-0.30
-1.53
-3.34
-5.62
-8.20
-10.89
-13.54
-15.93
-17.75
-18.61
-18.13
-16.13
-12.73
-8.40
-3.83
0.28
3.40
5.29
5.96
5.60
4.49
2.92
1.17
-0.50
-1.91
-2.98
-3.68
-4.06
-4.15
-4.04
-3.76
-3.42
-3.16
-3.14
-3.52
-4.44
-6.01
-8.28
-11.22
-14.58
-17.83
-20.25
-21.04
-19.69
-16.13
-10.89
-4.94
0.69
5.19
8.18
9.70
10.07
9.61
8.53
6.92
4.81
2.35
-0.15
-2.26
-3.58
-3.93
-3.41
-2.40
-1.41
-0.84
-0.90
-1.53
-2.47
-3.43
-4.09
-4.19
-3.46
-1.72
1.00
4.30
