1540297150.00
64.000000
-0.00
-0.00
-0.00
-0.00
-0.00
-0.00
-0.00
-0.00
-0.00
-0.00
0.00
0.01
0.01
-0.00
-0.03
-0.05
-0.05
0.00
0.13
0.36
0.66
1.01
1.37
1.72
2.06
2.40
2.79
3.24
3.80
4.42
5.06
5.66
6.20
6.68
7.15
7.68
8.32
9.15
10.11
11.08
11.95
12.67
13.29
13.97
14.94
16.33
18.38
20.90
23.62
26.23
28.58
30.73
32.99
35.80
39.46
44.37
50.17
56.33
62.28
67.66
72.52
77.35
82.84
89.53
97.95
107.60
117.69
127.32
135.95
143.58
150.85
159.07
166.96
176.79
189.18
204.22
220.71
235.74
244.97
243.74
228.66
198.90
156.86
106.41
51.87
-3.53
-58.24
-112.03
-165.02
-216.97
-266.95
-313.48
-355.59
-392.58
-423.89
-448.67
-465.60
-473.06
-469.50
-454.02
-426.62
-388.87
-343.19
-292.49
-239.56
-186.68
-135.44
-87.61
-44.10
-5.31
28.39
56.82
79.98
98.18
112.01
122.30
129.91
135.69
140.26
143.88
146.61
148.40
149.22
149.14
148.32
146.86
144.90
142.50
139.60
136.10
131.86
126.76
120.72
114.12
107.17
100.13
93.16
86.35
79.77
73.43
67.35
61.55
55.99
50.61
45.37
40.24
35.21
30.31
25.60
21.15
17.01
13.27
9.95
7.05
4.54
2.42
0.64
-0.84
-2.10
-3.19
-4.13
-4.99
-5.82
-6.61
-7.35
-8.01
-8.61
-9.13
-9.58
-9.96
-10.32
-10.69
-11.08
-11.52
-12.03
-12.62
-13.28
-13.98
-14.70
-15.39
-15.98
-16.42
-16.71
-16.81
-16.71
-16.43
-16.04
-15.56
-15.04
-14.54
-14.15
-13.89
-13.80
-13.86
-14.06
-14.30
-14.48
-14.49
-14.27
-13.76
-12.97
-11.88
-10.59
-9.20
-7.82
-6.55
-5.51
-4.77
-4.35
-4.23
-4.39
-4.74
-5.18
-5.60
-5.96
-6.19
-6.26
-6.11
-5.74
-5.08
-4.08
-2.66
-0.81
1.49
4.24
7.42
10.97
14.80
18.82
22.91
26.94
30.79
34.33
37.45
39.99
41.80
42.72
42.59
41.21
38.43
34.15
28.35
21.10
12.58
3.12
-6.86
-16.95
-26.64
-35.47
-43.04
-49.05
-53.29
-55.63
-56.02
-54.51
-51.22
-46.36
-40.21
-33.13
-25.44
-17.42
-9.23
-1.01
7.21
15.40
23.48
31.39
39.05
46.47
53.69
60.84
68.07
75.47
83.01
90.51
97.61
103.98
109.32
113.52
116.69
119.12
121.12
122.79
123.97
124.21
122.93
119.65
114.32
107.30
99.36
91.18
83.03
74.57
64.88
52.89
38.00
20.53
1.70
-16.85
-33.83
-49.08
-63.79
-79.92
-99.17
-121.89
-146.65
-171.00
-192.95
-212.36
-231.19
-252.08
-275.94
-300.69
-321.71
-334.36
-336.92
-331.36
-321.82
-311.30
-299.16
-281.62
-255.02
-219.81
-182.04
-150.81
-133.00
-128.79
-130.89
-128.67
-114.61
-88.98
-59.75
-37.74
-30.00
-35.32
-44.96
-47.85
-37.30
-15.11
9.20
24.20
23.26
8.84
-8.62
-16.74
-8.29
14.29
39.91
55.30
52.62
34.16
11.30
-2.07
2.54
23.09
48.21
63.77
61.04
41.61
16.54
-0.23
0.13
16.33
37.69
50.45
45.77
24.91
-1.34
-18.99
-18.73
-1.36
22.45
38.49
37.16
19.16
-4.81
-20.29
-17.41
3.16
30.38
49.44
50.21
33.07
8.64
-8.57
-8.61
8.18
31.53
47.46
46.40
28.76
4.70
-12.02
-12.00
4.44
27.19
42.48
40.80
22.58
-1.93
-18.67
-17.79
0.52
25.83
43.74
44.10
26.90
2.34
-15.21
-15.52
1.57
26.04
43.65
44.11
26.92
1.59
-17.92
-21.27
-7.58
14.05
29.93
29.74
12.47
-12.79
-32.19
-35.01
-19.78
4.57
24.21
28.28
15.33
-5.84
-21.38
-20.52
-1.95
25.23
46.89
52.06
39.15
16.90
-0.97
-3.81
9.79
31.06
46.28
44.83
25.55
-2.39
-24.73
-30.13
-16.66
6.84
26.01
29.22
14.28
-10.22
-29.96
-33.08
-17.21
9.04
31.29
37.60
25.28
2.37
-17.26
-22.00
-9.24
13.24
31.89
35.39
21.22
-2.77
-22.93
-27.74
-14.40
9.27
29.42
34.16
20.50
-3.78
-24.57
-29.63
-15.62
9.64
31.94
38.86
26.93
3.55
-17.48
-24.06
-12.75
9.27
28.57
33.36
20.38
-3.17
-23.84
-29.72
-17.28
6.37
27.64
34.26
22.39
-1.09
-22.55
-29.46
-17.60
6.29
28.59
36.71
26.33
3.90
-17.27
-24.83
-14.53
7.26
27.37
33.53
21.56
-2.13
-24.20
-32.17
-21.50
1.53
23.51
31.73
21.55
-0.82
-21.90
-28.84
-16.86
7.71
31.22
40.65
31.00
8.15
-14.68
-24.66
-16.70
3.74
23.92
31.44
21.31
-1.02
-22.91
-31.89
-22.79
-0.95
20.82
29.76
20.56
-1.38
-22.99
-31.14
-20.27
4.11
28.59
39.68
31.52
9.24
-14.08
-25.09
-17.84
2.82
24.19
33.26
24.27
2.04
-20.80
-31.24
-23.41
-2.05
20.08
29.78
21.08
-1.17
-23.95
-33.67
-24.01
0.14
25.54
38.25
31.62
10.15
-13.20
-24.58
-17.24
4.54
28.06
39.62
32.39
10.31
-14.27
-27.82
-23.40
-4.66
16.28
26.12
18.15
-3.71
-27.08
-38.34
-30.57
-7.73
17.62
31.71
27.55
8.90
-11.86
-21.30
-12.70
9.82
33.70
45.31
37.80
15.17
-9.97
-23.79
-19.06
0.60
22.72
33.29
24.92
1.14
-25.38
-40.19
-35.22
-13.60
12.08
27.25
23.63
3.99
-19.56
-32.78
-27.58
-6.79
17.66
31.74
27.48
7.45
-16.70
-31.24
-28.25
-10.12
11.89
24.31
19.37
-0.37
-23.41
-36.10
-30.44
-8.94
16.57
31.94
28.83
9.65
-13.72
-26.88
-21.26
0.78
27.18
43.34
40.42
20.50
-4.72
-20.81
-18.84
-0.57
22.72
36.81
32.74
11.95
-14.58
-32.75
-33.31
-17.18
5.10
19.73
17.62
-0.19
-23.07
-37.01
-32.76
-11.37
16.25
35.64
37.18
21.47
-1.06
-16.43
-15.34
1.39
23.39
37.00
33.29
13.36
-12.17
-29.47
-29.38
-12.67
10.22
25.44
23.76
5.97
-17.50
-32.71
-30.18
-10.63
15.21
32.89
32.51
14.40
-10.94
-29.01
-29.51
-12.34
12.50
30.80
32.33
16.55
-7.12
-25.04
-27.26
-13.18
7.99
22.92
21.93
4.87
-18.67
-34.88
-33.73
-14.94
11.52
31.23
33.57
17.86
-6.14
-23.96
-24.75
-7.50
18.22
38.01
40.86
25.33
0.44
-19.82
-24.42
-11.68
9.82
26.39
27.26
10.82
-14.36
-34.50
-38.64
-24.90
-1.75
17.13
20.83
7.65
-13.89
-30.06
-29.96
-12.00
14.97
36.74
41.87
28.18
4.03
-16.57
-22.03
-9.77
12.19
29.95
31.80
15.01
-12.49
-36.59
-45.10
-34.55
-12.29
8.05
14.65
4.27
-15.81
-32.24
-33.52
-16.93
9.70
32.57
39.85
28.44
5.77
-14.60
-20.93
-9.92
11.44
29.99
34.18
20.77
-3.19
-24.46
-31.26
-19.99
2.49
22.85
29.11
17.62
-4.70
-24.39
-29.26
-15.50
9.78
32.87
41.36
31.26
9.35
-10.88
-17.09
-5.30
17.93
39.24
46.31
34.83
10.98
-12.19
-22.32
-14.72
4.92
23.80
29.53
17.27
-7.27
-31.11
-41.40
-32.73
-10.48
12.30
22.53
14.59
-6.37
-27.47
-35.64
-25.27
-1.58
22.46
33.73
26.41
5.39
-16.68
-26.85
-19.32
1.28
22.59
31.78
22.97
0.66
-22.86
-34.65
-28.37
-8.03
14.23
25.30
18.57
-2.24
-25.19
-36.99
-30.67
-9.73
13.99
27.29
23.33
5.58
-14.27
-23.29
-15.08
6.38
29.00
39.74
32.18
10.37
-13.52
-26.34
-21.50
-2.76
17.94
27.52
19.43
-2.42
-25.89
-37.56
-30.41
-8.10
17.00
31.09
26.81
7.51
-14.70
-26.01
-18.97
3.05
27.90
41.68
36.81
16.33
-7.83
-21.88
-18.07
0.96
23.66
36.32
30.93
9.76
-15.93
-32.41
-31.26
-14.16
7.91
21.31
17.56
-1.58
-25.08
-39.06
-34.73
-13.77
12.54
29.96
29.40
12.14
-10.95
-25.90
-23.75
-5.78
17.41
32.15
29.66
11.03
-13.35
-29.98
-29.94
-13.88
8.30
23.26
21.91
4.68
-18.72
-34.98
-34.71
-17.96
5.63
22.68
23.73
8.85
-12.38
-26.49
-23.98
-5.06
20.45
38.87
40.64
25.73
3.69
-12.11
-12.30
3.04
24.42
38.46
35.76
16.41
-9.89
-29.35
-31.94
-17.03
5.95
23.05
23.82
7.35
-17.05
-35.20
-36.17
-18.72
7.81
28.94
33.36
19.36
-4.22
-23.28
-26.61
-12.41
10.85
29.48
32.56
18.18
-5.43
-24.85
-29.21
-16.41
5.62
23.51
26.23
11.48
-12.87
-33.31
-38.39
-25.27
-1.58
19.15
25.38
14.21
-6.86
-24.44
-27.06
-11.96
13.15
34.69
41.05
29.23
6.53
-13.78
-20.21
-9.68
10.77
28.08
30.96
16.48
-8.08
-29.40
-35.78
-23.90
-0.95
19.50
25.49
13.57
-9.06
-28.69
-33.09
-18.64
7.25
30.54
38.59
27.34
3.63
-18.83
-27.45
-17.93
3.38
23.36
29.86
18.68
-3.98
-25.20
-32.92
-22.88
-1.22
19.11
25.94
14.96
-7.65
-28.70
-35.70
-24.05
0.01
23.09
32.45
23.33
1.85
-18.56
-25.04
-12.72
12.31
36.49
46.57
37.10
13.49
-11.10
-23.46
-17.68
1.43
21.26
28.92
18.67
-4.66
-28.42
-39.49
-31.87
-10.26
12.72
23.99
17.63
-1.70
-21.44
-28.69
-17.77
6.30
30.68
42.11
34.54
12.67
-10.84
-22.80
-16.90
2.49
22.94
31.28
21.22
-2.87
-28.38
-41.70
-35.89
-14.86
8.99
22.05
17.32
-1.55
-22.42
-31.92
-23.24
-0.27
24.65
37.91
32.47
11.96
-11.47
-24.27
-19.27
0.16
22.03
32.82
25.22
2.57
-23.04
-37.69
-33.49
-13.22
11.20
25.84
22.74
4.51
-17.25
-28.94
-22.93
-2.20
21.45
34.30
28.75
7.78
-16.72
-30.93
-26.98
-7.44
16.03
29.54
24.91
4.45
-20.32
-35.34
-31.84
-11.59
14.05
30.82
29.72
12.05
-11.30
-26.38
-24.22
-6.14
17.17
31.99
29.51
10.94
-13.23
-29.43
-28.86
-12.45
9.59
23.84
21.44
3.30
-20.22
-35.43
-33.05
-13.70
12.09
30.14
30.64
13.95
-9.52
-25.35
-23.46
-3.97
22.74
42.10
43.69
27.14
2.30
-16.62
-19.20
-4.72
17.42
33.34
32.63
14.39
-12.29
-33.62
-38.94
-26.74
-5.53
11.42
13.87
0.59
-19.81
-34.00
-31.79
-12.26
15.41
37.20
42.15
28.65
5.42
-13.64
-17.43
-4.03
18.14
35.21
35.90
18.04
-10.04
-34.27
-42.75
-32.44
-10.84
8.54
14.18
3.13
-17.24
-33.70
-34.99
-18.52
7.96
30.86
38.58
28.15
6.92
-11.87
-16.86
-5.18
15.84
32.96
34.81
18.63
-7.90
-31.07
-38.88
-27.89
-5.42
14.78
20.56
8.39
-14.48
-34.23
-38.48
-23.53
3.25
27.79
37.30
27.54
5.10
-16.51
-24.80
-15.39
5.60
25.30
31.72
20.66
-1.85
-23.07
-31.07
-21.54
-0.36
19.70
26.58
15.95
-6.15
-26.68
-33.21
-21.12
3.43
27.04
36.84
27.84
5.92
-15.58
-23.62
-12.93
10.83
34.37
44.39
35.12
11.55
-13.45
-26.62
-21.72
-3.12
16.84
25.25
16.11
-6.09
-28.93
-39.37
-31.35
-9.43
13.87
25.51
19.54
0.62
-18.72
-25.57
-14.28
10.13
34.76
46.28
38.52
16.04
-8.52
-21.80
-17.15
1.48
21.90
30.92
21.94
-1.10
-25.93
-39.02
-33.26
-12.29
11.55
24.51
19.27
-0.83
-23.70
-35.66
-29.37
-8.19
15.89
29.22
24.46
4.68
-18.39
-31.40
-27.04
-8.22
13.58
25.20
19.43
-0.65
-23.36
-35.20
-28.52
-6.19
19.87
35.55
32.58
13.25
-10.88
-25.76
-22.87
-4.20
19.00
32.92
29.23
9.90
-13.96
-28.67
-25.91
-7.57
15.30
29.02
25.25
5.87
-17.95
-32.29
-28.45
-8.07
17.62
34.37
33.02
14.78
-9.54
-25.92
-25.17
-8.26
14.34
28.92
26.53
8.18
-15.70
-31.41
-29.87
-11.94
11.93
27.83
26.38
8.24
-16.11
-32.50
-31.13
-12.35
13.33
31.48
32.04
15.10
-9.13
-26.44
-26.82
-10.28
13.20
29.65
29.19
11.81
-12.59
-30.11
-30.81
-14.46
9.17
26.11
26.23
9.21
-15.12
-32.55
-32.47
-14.19
12.57
33.34
37.14
22.69
-1.00
-20.03
-23.68
-10.49
10.94
27.24
28.11
12.31
-11.51
-29.89
-32.34
-17.43
6.13
24.56
26.90
11.45
-13.08
-32.56
-35.51
-19.74
6.13
27.81
33.52
20.62
-2.87
-23.17
-28.73
-16.78
5.15
23.82
28.04
15.17
-7.36
-26.42
-30.82
-17.68
5.60
25.67
30.90
18.15
-5.26
-25.68
-30.98
-17.54
7.44
30.11
37.97
26.95
3.72
-18.37
-27.09
-18.31
1.68
20.06
25.15
13.24
-9.17
-29.19
-35.09
-23.13
0.11
21.41
28.65
17.80
-4.62
-25.24
-31.54
-19.04
5.86
29.67
39.60
30.79
9.17
-12.16
-20.46
-10.74
11.40
33.04
41.41
31.18
7.56
-16.68
-28.57
-22.21
-2.27
18.68
27.49
18.02
-5.28
-29.82
-42.16
-35.73
-14.70
8.53
20.71
15.49
-2.89
-22.16
-29.41
-18.76
5.11
29.61
41.58
34.86
13.88
-8.96
-20.61
-14.71
4.62
25.21
33.96
24.45
0.74
-24.77
-38.41
-32.95
-11.89
12.51
26.41
22.28
3.20
-18.98
-30.74
-24.77
-4.37
18.58
30.62
24.59
3.83
-19.69
-32.47
-27.29
-7.38
15.29
27.06
20.53
-1.06
-25.57
-38.91
-33.08
-10.96
15.21
30.96
27.88
8.40
-15.56
-29.68
-25.47
-5.23
19.40
34.32
31.14
11.91
-12.09
-27.14
-24.98
-7.54
14.17
26.65
21.77
1.67
-22.40
-36.62
-32.45
-11.79
13.91
30.36
28.63
10.26
-13.51
-28.43
-25.38
-5.75
19.42
35.91
34.58
16.41
-7.97
-24.74
-24.71
-8.63
13.32
27.59
25.20
7.03
-16.67
-32.24
-30.49
-12.14
12.35
28.96
28.21
10.69
-13.17
-29.20
-27.59
-8.71
17.08
35.55
36.66
20.21
-4.02
-22.11
-23.97
-9.06
13.28
29.39
29.23
12.19
-12.49
-31.07
-33.22
-17.95
5.60
23.65
25.68
10.57
-12.66
-30.15
-31.15
-14.28
11.55
32.37
37.11
23.77
0.56
-19.02
-23.98
-12.16
8.58
25.05
26.52
11.00
-13.47
-33.41
-37.80
-24.34
-1.02
18.65
23.58
11.56
-9.35
-25.58
-25.98
-8.49
18.42
40.69
46.61
33.50
9.30
-12.19
-19.21
-8.76
11.64
28.47
30.16
13.79
-13.06
-36.73
-45.26
-35.27
-13.94
5.40
11.11
0.07
-20.42
-36.90
-37.76
-20.07
8.46
33.76
43.36
33.41
10.77
-11.03
-19.57
-10.54
9.77
28.33
32.99
19.50
-5.79
-29.66
-39.54
-30.70
-9.11
12.23
20.92
12.43
-7.23
-25.09
-28.94
-14.59
11.42
35.53
44.88
34.64
10.76
-13.45
-25.02
-18.55
0.74
20.25
27.44
17.14
-5.37
-27.42
-36.38
-26.95
-4.48
18.23
28.36
20.52
-0.09
-20.70
-28.49
-18.00
5.52
29.16
39.75
31.35
8.65
-15.73
-28.57
-23.54
-4.82
15.38
24.11
15.26
-6.73
-29.33
-39.27
-30.15
-6.41
19.21
33.00
28.18
8.66
-13.25
-24.12
-17.19
3.70
26.37
37.49
30.30
8.60
-15.41
-28.23
-22.72
-2.42
20.51
32.39
25.97
4.63
-19.47
-32.56
-27.18
-6.53
17.34
30.62
25.72
5.56
-18.15
-31.86
-27.90
-8.98
13.42
25.85
20.71
0.73
-22.52
-35.39
-29.95
-8.79
16.40
31.64
28.64
9.65
-13.90
-28.14
-24.77
-5.80
17.55
31.53
27.86
8.40
-15.84
-31.24
-29.30
-11.60
11.12
25.30
22.31
3.59
-20.13
-35.03
-32.16
-12.68
12.67
29.93
30.02
13.94
-7.84
-21.68
-18.74
-0.23
23.24
37.83
34.52
14.39
-11.84
-30.03
-30.57
-13.82
9.87
26.28
25.39
7.21
-18.11
-36.09
-36.14
-17.74
9.15
29.91
33.64
19.28
-3.90
-21.89
-24.12
-9.52
13.00
29.89
30.93
15.16
-8.52
-26.65
-28.95
-14.24
8.68
26.26
27.91
12.18
-12.25
-31.58
-34.68
-19.54
5.48
26.56
32.41
20.63
-0.89
-18.81
-22.12
-8.55
13.90
31.72
33.69
17.43
-9.04
-31.83
-39.10
-27.72
-5.19
14.80
20.34
8.16
-14.40
-33.68
-37.70
-23.11
2.61
25.67
33.85
23.57
1.92
-17.61
-23.04
-10.87
11.84
31.56
36.21
22.20
-3.30
-26.50
-34.92
-24.32
-1.48
19.84
26.97
15.59
-7.71
-29.25
-36.15
-23.88
1.05
24.97
34.97
26.19
4.55
-16.91
-25.68
-17.05
3.33
22.82
29.27
18.13
-4.76
-26.55
-34.82
-24.59
-1.47
21.56
31.64
23.42
2.16
-19.27
-27.87
-18.01
5.15
28.67
39.39
31.35
9.26
-14.32
-26.31
-20.49
-1.13
19.64
29.00
20.88
-0.42
-22.72
-33.04
-25.10
-3.17
20.24
31.71
24.58
2.94
-20.70
-32.67
-25.95
-4.35
19.74
32.62
27.13
6.73
-16.62
-29.46
-24.60
-5.26
16.75
28.08
21.56
0.49
-23.11
-35.51
-29.04
-6.74
19.24
34.73
31.58
12.33
-11.37
-25.62
-22.26
-3.60
18.99
31.90
27.17
7.06
-17.26
-32.25
-29.74
-11.67
10.97
24.57
20.71
1.18
-22.92
-37.61
-33.95
-13.43
12.63
29.79
28.74
10.71
-13.25
-28.80
-26.65
-8.00
16.25
31.94
30.00
11.54
-12.78
-29.06
-28.21
-11.13
11.83
26.94
25.08
7.08
-16.70
-32.35
-30.44
-11.51
13.93
31.58
31.62
14.27
-10.07
-27.05
-26.56
-8.59
16.68
34.93
35.90
19.20
-5.51
-24.22
-26.68
-12.18
9.94
26.00
25.96
9.35
-14.28
-30.93
-30.26
-11.71
14.90
35.03
37.71
21.78
-3.47
-23.76
-27.97
-14.45
8.18
26.24
29.05
14.93
-7.80
-25.91
-28.88
-15.04
7.31
24.84
26.90
11.79
-12.06
-30.85
-33.35
-17.38
8.60
30.43
36.28
23.39
-0.41
-21.33
-27.61
-16.19
5.50
24.08
28.06
14.51
-9.22
-29.81
-35.73
-23.80
-1.21
18.77
24.50
12.77
-9.26
-28.25
-32.45
-18.47
6.46
28.77
36.38
25.59
3.16
-17.69
-25.03
-14.91
6.21
25.39
30.73
18.29
-5.53
-27.58
-35.56
-24.85
-1.51
21.26
30.69
21.69
-0.12
-21.74
-30.29
-20.49
2.14
24.52
33.75
24.53
2.29
-20.00
-29.52
-20.87
0.59
21.96
30.27
20.06
-3.43
-27.13
-37.80
-29.42
-6.87
16.91
28.48
21.63
0.95
-20.85
-30.47
-21.70
0.75
24.11
34.97
27.11
5.09
-18.40
-29.92
-23.03
-1.98
20.68
31.48
23.70
1.35
-23.10
-35.95
-29.94
-8.62
15.76
29.40
24.89
5.45
-17.01
-28.90
-22.88
-2.17
21.33
34.08
28.69
8.24
-15.56
-29.22
-25.19
-6.26
16.01
28.03
22.06
0.77
-24.12
-38.59
-34.20
-13.06
13.14
30.01
28.59
10.38
-13.41
-28.63
-26.20
-7.44
16.87
32.81
31.38
13.54
-10.37
-26.79
-26.75
-10.91
10.83
25.24
23.52
6.52
-15.62
-29.48
-26.04
-6.24
19.28
36.28
35.12
16.29
-9.64
-28.19
-29.16
-12.45
11.96
29.96
31.46
16.05
-6.95
-24.02
-25.36
-10.49
11.38
26.91
26.44
9.63
-14.04
-30.84
-30.63
-12.88
12.81
32.18
34.57
18.94
-5.44
-24.51
-27.51
-13.12
9.68
27.07
28.45
12.46
-12.09
-31.47
-34.87
-20.58
2.85
21.76
25.17
11.16
-11.96
-30.47
-33.21
-17.99
6.95
27.86
33.42
21.29
-0.65
-18.96
-22.61
-9.32
12.96
30.74
32.86
16.90
-9.15
-31.49
-38.33
-26.51
-3.52
16.98
22.99
11.11
-11.35
-30.68
-34.70
-19.83
6.60
30.61
39.60
29.58
7.34
-13.58
-20.83
-10.40
11.00
30.01
34.36
20.03
-6.31
-31.09
-41.65
-33.34
-12.21
8.67
16.97
8.25
-11.32
-28.80
-32.06
-17.00
9.69
34.35
44.08
34.04
10.24
-13.95
-25.48
-18.94
0.43
19.98
27.18
16.88
-5.60
-27.59
-36.48
-27.02
-4.57
18.05
28.11
20.31
-0.04
-20.19
-27.40
-16.44
7.24
30.64
40.66
31.61
8.45
-16.07
-28.78
-23.43
-4.28
16.46
25.90
17.88
-3.31
-25.39
-35.18
-26.23
-2.78
22.59
36.19
30.96
10.51
-12.97
-25.90
-21.06
-1.75
20.20
31.49
25.06
4.25
-19.22
-32.04
-27.04
-7.43
15.03
26.99
21.31
1.23
-21.33
-32.82
-25.82
-3.53
22.04
37.02
33.56
14.22
-9.55
-24.20
-21.77
-4.42
16.90
29.08
24.47
5.39
-17.12
-29.82
-24.92
-4.83
19.05
32.91
28.52
8.02
-17.24
-33.31
-31.57
-13.65
9.46
24.05
21.57
3.46
-19.66
-34.36
-32.06
-14.13
8.87
23.41
20.74
2.02
-22.06
-37.52
-34.97
-15.05
11.82
31.49
34.20
20.08
-0.99
-15.50
-14.09
2.77
25.04
38.95
35.14
13.99
-14.28
-35.47
-39.48
-25.77
-3.74
13.05
14.70
0.69
-19.81
-33.51
-30.72
-11.21
15.46
35.45
38.48
23.66
0.07
-18.63
-21.93
-8.48
13.13
29.56
30.50
14.67
-9.17
-27.51
-29.72
-14.37
9.74
28.72
31.60
16.63
-7.66
-27.36
-31.26
-17.22
6.51
26.18
30.61
17.41
-5.50
-24.72
-29.05
-16.02
6.58
25.37
29.20
15.66
-7.39
-26.40
-30.01
-15.67
8.67
29.27
34.57
21.86
-1.18
-21.02
-26.22
-13.97
8.08
26.44
29.69
15.05
-9.84
-31.33
-37.57
-25.30
-1.85
19.15
25.58
13.87
-8.96
-29.33
-35.00
-22.09
2.53
25.33
33.99
24.45
3.20
-16.66
-23.15
-12.28
9.44
28.86
33.86
20.43
-4.97
-28.95
-38.89
-30.09
-8.53
12.73
21.15
12.09
-8.45
-27.38
-32.17
-18.20
8.28
33.71
44.93
36.66
14.49
-8.47
-19.21
-12.23
7.24
26.42
32.48
20.07
-5.42
-30.87
-42.94
-35.57
-13.68
9.78
21.42
15.16
-4.33
-24.42
-32.09
-21.60
1.95
25.70
36.52
28.62
6.94
-15.72
-26.28
-18.82
1.91
23.23
31.97
22.07
-1.74
-26.58
-38.78
-31.55
-9.09
15.86
29.38
24.39
4.59
-17.72
-28.85
-21.72
-0.06
23.87
36.42
30.45
9.37
-14.80
-28.53
-24.48
-5.70
16.08
27.45
21.04
-0.01
-23.78
-36.50
-30.47
-8.70
16.56
31.10
26.91
6.90
-16.82
-30.01
-24.64
-3.60
21.03
35.14
30.73
10.45
-14.02
-28.88
-26.19
-8.30
13.54
25.89
20.99
1.27
-21.99
-35.25
-30.47
-9.93
14.91
30.13
27.32
8.50
-14.92
-28.88
-24.65
-4.01
21.65
38.06
36.14
17.17
-7.97
-25.18
-25.23
-9.03
13.01
27.12
24.25
5.34
-19.12
-35.30
-33.95
-15.90
8.26
24.46
23.33
5.65
-17.89
-33.04
-30.14
-9.87
17.06
36.11
37.16
20.19
-4.76
-23.53
-25.87
-11.28
10.84
26.87
26.89
10.43
-13.18
-30.41
-31.30
-15.35
8.05
25.24
26.27
10.75
-11.71
-27.22
-25.63
-6.63
19.85
39.36
41.21
24.46
-1.42
-22.11
-26.65
-13.62
8.03
24.42
24.91
8.35
-16.14
-34.53
-36.06
-19.54
5.75
25.52
28.78
14.10
-9.48
-27.85
-29.99
-14.32
10.32
29.98
33.68
19.58
-3.91
-23.19
-27.36
-14.41
7.45
24.80
26.79
11.55
-12.55
-31.73
-34.78
-19.57
5.45
26.16
30.89
17.12
-7.02
-27.46
-32.36
-18.79
5.50
26.73
33.14
21.64
-0.46
-19.83
-24.94
-12.68
9.63
28.71
33.06
19.72
-3.83
-23.98
-28.90
-15.43
8.87
30.10
36.08
23.39
-0.67
-22.37
-29.52
-18.41
3.84
23.58
28.53
14.81
-10.75
-34.57
-44.08
-34.85
-13.03
8.36
17.12
8.93
-10.11
-27.17
-30.39
-15.74
10.21
34.18
43.73
34.48
12.63
-8.74
-17.18
-8.15
12.40
31.43
36.51
23.01
-3.10
-28.53
-40.31
-33.02
-11.96
10.04
20.09
12.58
-7.65
-28.26
-36.66
-27.18
-4.52
18.95
30.40
23.74
3.20
-19.13
-30.36
-24.20
-4.70
16.18
25.64
17.67
-3.15
-24.23
-32.30
-21.21
4.25
30.76
44.20
37.56
14.96
-10.81
-25.63
-22.13
-3.83
17.09
27.09
19.17
-2.94
-26.88
-38.97
-31.97
-9.52
15.98
30.68
27.21
8.95
-12.02
-22.17
-14.38
7.72
31.87
44.24
37.40
14.61
-12.05
-28.63
-27.19
-10.27
10.69
22.15
16.37
-4.07
-27.77
-41.12
-36.14
-15.27
10.08
26.20
25.01
8.61
-11.90
-23.28
-17.77
2.14
25.14
37.68
31.85
10.03
-16.29
-33.20
-32.10
-14.68
8.10
22.50
19.91
1.84
-20.89
-34.60
-30.57
-10.24
15.53
32.93
33.16
17.48
-3.55
-16.55
-13.02
5.41
27.90
40.68
35.00
12.30
-16.46
-37.06
-39.91
-25.42
-3.68
11.65
11.26
-4.35
-25.12
-37.41
-32.00
-9.67
18.90
39.30
41.49
25.58
1.68
-15.98
-17.30
-2.03
20.09
35.18
33.28
14.16
-12.42
-32.47
-35.73
-21.55
0.75
17.52
18.75
3.92
-17.62
-32.27
-30.08
-10.69
16.29
36.83
40.44
26.05
2.50
-16.69
-21.11
-9.30
10.61
25.79
26.30
10.74
-12.89
-31.96
-36.42
-24.53
-3.78
13.64
17.94
7.38
-10.78
-24.74
-25.13
-10.54
11.46
28.86
32.07
19.52
-1.45
-18.89
-23.09
-12.10
7.26
23.38
26.63
14.73
-5.97
-24.31
-30.72
-22.57
-5.57
9.84
14.62
6.41
-9.21
-22.13
-23.75
-12.18
6.61
22.26
26.09
16.17
-1.44
-16.33
-19.65
-9.30
8.88
24.49
28.53
18.45
-0.40
-18.00
-25.30
-19.32
-4.64
9.44
14.44
7.56
-6.76
-19.61
-22.87
-13.99
2.41
17.29
22.33
14.75
-1.00
-15.79
-20.99
-13.44
2.68
18.19
24.17
17.09
1.02
-14.76
-21.05
-14.05
2.29
18.64
25.62
19.32
3.46
-12.74
-19.99
-14.31
0.71
16.10
22.84
17.02
2.14
-12.98
-19.37
-13.09
2.32
17.92
24.47
17.80
1.35
-15.79
-24.01
-18.84
-3.48
12.96
20.87
15.59
0.19
-16.34
-24.39
-19.28
-4.02
12.48
20.61
15.72
0.77
-15.31
-22.85
-17.07
-0.93
16.52
25.43
20.79
5.39
-11.95
-21.52
-18.27
-4.75
10.62
18.62
14.60
1.21
-13.37
-20.21
-14.91
-0.24
15.45
23.09
18.06
2.93
-13.97
-23.31
-20.04
-6.37
9.57
18.41
14.94
1.23
-14.63
-23.23
-19.28
-4.77
12.15
21.91
18.99
5.12
-11.78
-22.13
-20.17
-7.26
9.00
19.18
17.44
4.90
-11.03
-21.06
-19.31
-6.78
9.31
19.74
18.65
6.97
-8.19
-17.70
-15.72
-3.14
12.91
23.23
21.78
9.27
-7.29
-18.63
-18.49
-7.27
8.22
18.80
18.22
6.79
-8.78
-19.39
-18.82
-7.41
8.17
18.91
18.66
7.73
-7.40
-17.88
-17.65
-6.97
7.81
17.96
17.41
6.32
-9.07
-19.99
-20.18
-9.48
6.04
17.63
18.88
9.42
-4.88
-15.42
-15.85
-5.80
8.82
19.39
19.49
8.69
-7.19
-19.44
-21.38
-12.23
2.49
14.23
16.32
7.80
-6.02
-16.70
-17.54
-7.60
7.74
19.79
21.70
12.43
-2.56
-14.47
-16.28
-6.90
8.09
19.83
21.19
10.95
-5.44
-19.07
-22.60
-14.42
0.46
13.39
17.04
9.52
-4.53
-16.82
-20.13
-12.53
1.42
13.49
16.53
8.74
-5.21
-16.88
-19.03
-9.93
5.53
18.64
21.90
13.38
-2.09
-15.72
-19.80
-12.08
2.88
16.40
20.62
13.04
-2.07
-16.19
-21.42
-15.01
-0.94
12.51
17.65
11.83
-1.01
-12.84
-16.24
-8.90
5.01
17.37
20.85
13.21
-1.33
-14.59
-19.11
-12.50
1.27
14.10
18.51
11.82
-2.18
-15.53
-20.62
-14.58
-0.99
12.25
17.43
11.62
-1.67
-14.48
-19.00
-12.23
2.29
16.47
22.34
16.60
2.58
-11.79
-18.43
-13.87
-1.12
12.08
17.80
12.54
-0.71
-14.15
-19.81
-14.10
-0.06
14.38
21.01
16.02
2.29
-12.26
-19.25
-14.63
-1.08
13.58
20.91
16.59
2.94
-12.51
-21.31
-18.90
-7.13
6.91
15.06
12.86
2.15
-10.07
-15.80
-10.89
2.45
16.76
23.70
18.91
4.62
-11.51
-20.80
-18.46
-6.41
8.05
16.37
13.76
1.93
-11.99
-19.65
-16.27
-3.53
11.42
20.09
17.52
5.27
-9.53
-18.30
-15.98
-4.04
10.45
18.95
16.44
4.34
-10.36
-19.20
-17.21
-5.79
8.15
16.27
13.66
1.84
-12.16
-19.86
-16.21
-2.77
13.14
22.55
19.99
6.67
-10.08
-21.05
-20.29
-8.58
7.14
17.81
17.48
6.64
-8.16
-18.21
-17.74
-7.21
7.02
16.48
15.58
4.98
-8.80
-17.17
-14.53
-1.68
14.43
24.74
23.28
10.72
-5.89
-17.22
-16.91
-5.43
10.32
20.99
20.21
8.19
-8.37
-20.28
-21.13
-10.90
4.06
14.84
15.20
5.13
-9.11
-18.76
-17.66
-5.91
10.08
21.31
21.38
10.22
-5.92
-17.99
-19.43
-9.86
4.74
15.63
16.37
6.62
-7.71
-17.92
-17.62
-6.55
9.19
20.60
20.94
9.73
-6.90
-19.75
-21.76
-12.18
3.08
14.91
16.33
6.60
-8.46
-19.94
-21.03
-11.04
4.31
16.19
17.86
8.45
-6.53
-18.41
-20.30
-11.03
4.27
17.11
20.47
12.78
-1.20
-13.28
-16.53
-9.39
3.45
13.82
14.99
5.69
-9.01
-20.61
-22.09
-12.14
3.98
17.33
20.32
11.04
-5.50
-20.20
-24.98
-17.26
-1.43
13.65
19.86
14.34
1.18
-11.11
-14.61
-6.70
8.28
21.62
25.27
16.67
0.32
-14.69
-19.96
-12.60
2.90
17.34
22.10
14.21
-1.70
-16.07
-19.90
-10.13
8.31
25.17
30.78
21.65
2.54
-16.10
-24.19
-17.77
-1.27
15.12
21.54
14.11
-2.66
-18.67
-24.12
-15.30
3.00
20.36
26.62
17.94
-0.93
-19.29
-26.70
-18.94
-0.60
17.62
25.21
17.91
0.19
-17.39
-24.37
-16.55
1.53
19.15
25.69
16.80
-2.89
-22.41
-30.76
-23.18
-4.09
15.50
24.37
17.58
-0.69
-19.59
-27.99
-20.87
-2.37
16.82
25.70
19.34
1.74
-16.62
-24.89
-18.19
-0.41
18.04
26.32
19.44
1.25
-17.79
-26.61
-19.90
-1.26
18.78
28.93
23.52
5.90
-13.70
-24.04
-19.34
-2.70
15.82
25.06
19.25
1.40
-18.45
-28.99
-24.16
-6.76
13.13
23.95
19.20
1.35
-19.55
-31.61
-27.89
-10.48
10.74
23.82
21.79
6.65
-11.81
-21.92
-16.91
0.95
21.57
32.94
28.01
8.93
-14.21
-29.07
-28.11
-12.90
6.85
19.01
16.06
-0.43
-20.63
-32.28
-27.69
-8.42
15.51
31.47
31.43
16.56
-3.50
-16.48
-14.51
1.20
21.17
33.16
29.31
10.66
-13.38
-30.42
-32.12
-18.89
0.40
13.77
13.05
-1.19
-19.95
-31.17
-26.73
-7.46
17.07
34.12
34.96
19.89
-1.89
-17.78
-18.94
-5.34
14.24
27.51
25.79
9.09
-13.80
-30.34
-31.43
-16.62
5.52
22.38
24.61
11.47
-8.72
-23.47
-23.49
-8.19
13.90
30.15
31.17
16.28
-5.97
-22.99
-25.28
-12.01
8.40
23.47
23.84
8.83
-13.03
-28.99
-29.40
-13.41
10.38
28.89
32.03
18.47
-3.63
-21.44
-24.87
-12.33
8.35
24.63
26.63
12.78
-9.14
-26.59
-29.44
-15.92
6.23
24.22
27.55
14.12
-8.39
-27.03
-30.92
-17.56
5.56
25.44
31.08
19.77
-1.38
-19.75
-24.61
-13.28
7.25
24.51
27.89
14.78
-7.84
-27.43
-33.09
-21.83
-0.36
18.79
24.57
13.80
-6.92
-25.12
-29.72
-17.42
5.12
25.32
31.94
21.62
0.82
-18.03
-23.73
-12.90
7.96
26.28
30.69
17.56
-6.70
-29.29
-38.31
-29.42
-8.42
12.27
20.82
12.86
-5.98
-23.53
-28.19
-15.78
7.82
30.08
38.94
29.78
8.01
-14.05
-24.30
-17.62
1.14
20.25
27.97
19.40
-0.60
-20.32
-28.05
-18.93
2.10
23.11
32.14
24.13
3.81
-17.03
-26.47
-19.23
0.11
19.84
27.96
19.06
-2.42
-24.66
-35.26
-28.27
-7.74
14.59
26.11
20.60
1.83
-18.66
-28.41
-21.26
-1.02
20.67
31.33
24.79
4.87
-16.98
-28.32
-22.96
-4.52
15.70
25.38
18.30
-1.99
-24.15
-35.68
-29.96
-10.10
12.85
26.37
23.60
7.31
-11.86
-21.75
-15.66
3.51
25.00
36.32
30.50
10.09
-14.21
-29.67
-28.73
-13.23
6.68
18.69
15.41
-1.11
-20.65
-30.86
-24.45
-3.69
20.72
35.82
33.69
15.99
-6.98
-22.38
-21.96
-6.85
13.25
26.00
23.45
6.77
-14.37
-27.53
-24.69
-7.08
15.46
30.10
28.46
11.56
-10.83
-25.85
-25.02
-9.16
11.99
25.64
23.35
5.99
-16.75
-32.08
-31.40
-15.45
6.19
20.73
19.53
3.21
-18.57
-32.81
-30.60
-12.36
12.27
30.10
31.92
17.78
-3.16
-18.12
-18.05
-2.99
18.02
32.18
30.41
12.60
-12.21
-31.02
-34.23
-21.04
0.13
16.59
18.82
5.87
-13.98
-28.25
-27.49
-10.84
13.23
31.84
35.11
21.67
-0.47
-18.65
-22.81
-11.17
8.63
24.29
25.90
11.85
-10.05
-27.22
-29.45
-15.08
8.02
26.87
31.06
18.57
-2.94
-20.83
-24.79
-12.79
7.62
23.94
26.03
11.91
-11.05
-30.33
-35.57
-24.39
-3.77
14.09
18.86
8.09
-11.26
-27.00
-28.75
-13.99
10.15
31.03
37.64
26.82
5.05
-15.33
-23.15
-14.74
4.08
21.45
26.55
15.80
-4.87
-23.55
-29.21
-18.18
3.48
23.54
30.59
20.68
-0.36
-20.24
-27.46
-17.77
3.12
22.95
30.09
20.18
-1.27
-22.11
-30.55
-22.03
-1.88
17.91
25.62
16.73
-3.38
-22.63
-29.38
-19.02
3.04
24.66
33.94
26.01
5.76
-15.19
-25.17
-19.20
-1.82
15.72
22.19
12.93
-7.17
-26.47
-33.34
-22.87
0.01
23.24
34.45
28.01
8.19
-13.38
-24.49
-19.22
-1.46
17.54
25.93
18.07
-2.00
-22.89
-32.54
-25.28
-5.24
15.93
25.95
19.05
-0.48
-20.72
-29.23
-20.15
2.09
25.24
36.39
29.26
7.86
-15.92
-29.13
-25.14
-7.36
12.88
23.09
16.86
-2.30
-22.96
-32.53
-24.42
-2.15
22.59
36.64
32.83
14.03
-8.51
-21.80
-18.52
-1.17
19.42
30.62
25.35
6.28
-15.65
-27.70
-22.69
-3.46
18.73
30.69
25.01
4.46
-19.53
-33.52
-29.78
-10.74
12.27
25.84
22.14
3.39
-19.44
-33.17
-30.00
-12.15
9.49
21.83
17.16
-2.25
-25.24
-38.35
-33.46
-12.59
13.18
30.14
29.79
13.72
-7.41
-20.27
-16.54
2.13
25.06
38.85
35.20
15.77
-8.65
-24.45
-22.95
-5.53
17.11
31.22
27.95
8.61
-16.09
-32.19
-30.59
-12.25
12.14
28.59
27.78
10.42
-13.19
-29.32
-28.69
-11.97
10.59
25.30
22.95
4.22
-20.46
-37.03
-35.79
-17.08
8.88
27.96
30.27
15.88
-5.40
-19.93
-18.26
-0.75
22.47
37.52
34.73
14.33
-13.59
-34.79
-38.94
-25.30
-3.08
14.19
16.43
2.87
-17.53
-31.55
-29.38
-10.58
15.44
34.87
37.43
22.28
-1.40
-19.86
-22.58
-8.42
13.67
30.11
30.54
13.92
-10.71
-29.49
-31.72
-16.07
8.58
28.31
32.18
18.49
-4.30
-22.70
-25.99
-12.48
9.34
25.95
26.60
9.57
-16.70
-38.45
-44.46
-32.37
-10.03
9.27
14.54
3.49
-16.07
-31.02
-30.56
-12.69
14.36
36.77
43.06
30.53
6.83
-14.51
-21.76
-11.61
8.93
26.92
31.09
18.45
-3.81
-22.61
-26.54
-12.70
11.42
32.26
37.94
25.14
0.99
-21.06
-28.98
-19.02
2.19
21.60
27.41
15.85
-6.58
-26.97
-33.45
-22.12
0.53
21.38
28.29
17.25
-5.16
-25.56
-31.47
-18.64
6.26
29.54
38.46
28.43
5.64
-16.72
-26.20
-18.16
1.64
20.59
26.74
15.83
-6.23
-26.75
-33.70
-22.64
0.42
22.45
30.88
20.81
-1.94
-24.25
-33.17
-23.41
-0.49
22.54
32.73
24.74
3.82
-17.34
-26.25
-17.77
2.73
22.58
29.27
17.75
-6.56
-30.76
-41.89
-34.23
-12.64
10.31
21.65
15.53
-3.46
-23.05
-30.57
-20.38
2.60
25.77
36.21
28.21
6.66
-15.75
-26.02
-18.29
2.64
24.02
32.70
22.62
-1.51
-26.90
-40.03
-34.27
-13.66
9.51
22.05
17.47
-0.31
-19.40
-27.14
-17.42
5.39
29.13
40.77
33.98
12.77
-10.80
-23.60
-18.96
-0.53
19.90
29.32
21.13
-0.89
-24.62
-36.71
-30.11
-8.36
16.46
30.77
27.27
9.05
-12.26
-23.49
-17.58
2.23
24.29
35.43
28.60
7.02
-17.52
-31.57
-27.61
-8.54
14.06
26.70
21.87
2.41
-20.15
-32.32
-26.59
-5.87
18.21
32.07
28.03
8.73
-14.49
-28.29
-24.95
-6.90
14.74
26.88
22.04
2.83
-19.41
-31.31
-25.25
-3.95
20.86
35.27
31.26
11.37
-12.77
-27.28
-24.00
-5.20
17.79
31.32
27.34
8.05
-15.50
-29.96
-27.29
-9.55
12.28
24.80
19.85
-0.57
-25.23
-40.20
-36.64
-16.12
10.18
27.96
28.03
11.53
-10.75
-24.89
-21.99
-3.43
19.92
34.22
30.67
10.79
-14.47
-31.16
-30.28
-13.00
9.99
24.87
22.57
4.14
-19.79
-35.28
-33.01
-13.78
11.86
29.86
30.76
15.15
-6.73
-21.24
-19.25
-1.57
21.36
35.71
32.25
11.71
-15.44
-35.06
-37.33
-22.33
0.04
15.98
15.86
-0.17
-22.04
-35.89
-31.99
-10.69
17.53
38.15
40.79
25.10
0.90
-17.68
-20.21
-5.97
15.81
31.49
31.03
13.77
-11.00
-29.62
-31.80
-16.65
6.77
24.79
27.08
12.58
-9.89
-26.86
-28.07
-12.48
11.06
29.12
31.45
16.85
-6.07
-24.03
-26.73
-12.78
9.33
26.32
27.85
12.61
-10.80
-28.74
-30.49
-14.50
10.51
30.55
34.53
20.52
-3.13
-22.83
-27.59
-15.31
5.99
23.13
25.50
11.16
-11.96
-30.76
-34.59
-21.39
0.99
19.44
23.17
10.00
-12.19
-30.11
-32.70
-17.44
7.91
29.89
37.01
26.34
5.05
-13.85
-19.09
-7.72
13.12
30.43
32.88
17.38
-8.91
-32.66
-42.02
-33.20
-12.70
6.69
13.51
4.29
-14.34
-29.69
-30.59
-14.06
12.59
35.92
43.98
33.05
9.82
-12.54
-21.90
-13.98
5.26
23.26
28.33
16.43
-6.29
-27.09
-34.07
-23.07
-0.35
21.12
29.19
19.59
-1.53
-21.20
-27.27
-15.44
8.08
30.20
38.59
28.57
5.90
-16.69
-26.90
-19.85
-0.90
17.58
23.55
12.36
-10.44
-32.22
-40.68
-30.97
-8.71
13.32
22.75
14.73
-5.08
-23.88
-29.27
-16.57
8.33
32.25
42.32
33.29
10.50
-13.18
-24.83
-18.78
0.20
19.74
27.32
17.47
-4.90
-27.29
-37.00
-28.39
-6.39
16.44
27.23
20.29
0.44
-19.85
-27.87
-18.01
4.77
27.91
38.51
30.73
9.12
-14.05
-25.98
-20.53
-1.83
18.23
27.00
18.43
-3.36
-26.39
-37.78
-31.13
-10.33
12.71
25.13
20.55
2.84
-16.15
-23.75
-13.86
9.21
33.12
44.62
37.13
14.59
-10.71
-25.33
-22.07
-4.23
16.50
26.90
19.95
-1.15
-24.77
-37.70
-32.79
-13.24
9.32
21.79
17.28
-0.75
-20.49
-28.90
-19.52
3.56
27.89
39.86
32.57
9.96
-15.41
-29.65
-25.32
-5.78
16.84
28.80
22.63
1.53
-22.58
-35.97
-30.95
-10.46
13.67
27.72
24.02
5.34
-16.77
-28.84
-23.34
-3.15
20.19
33.22
28.38
8.39
-15.38
-29.55
-26.45
-8.48
13.22
25.40
20.31
0.34
-23.25
-36.94
-32.53
-12.14
12.89
28.67
26.66
8.65
-14.36
-28.66
-25.76
-7.39
15.63
29.84
26.96
8.73
-14.20
-28.56
-26.19
-8.79
13.02
25.99
21.98
2.88
-20.31
-33.92
-29.37
-8.39
17.64
34.38
32.71
13.99
-10.67
-26.92
-25.41
-7.19
17.03
33.27
32.30
14.91
-8.73
-25.13
-25.30
-9.81
11.49
25.39
22.98
4.80
-19.32
-35.99
-35.90
-19.19
4.43
21.51
22.64
7.93
-12.90
-26.35
-23.00
-3.23
22.89
41.47
42.77
26.87
3.64
-13.15
-13.75
1.86
23.83
38.26
35.19
14.42
-14.17
-36.26
-41.11
-27.55
-4.78
13.20
15.65
1.25
-21.11
-37.65
-37.77
-20.40
5.31
25.43
29.44
16.28
-5.02
-20.82
-20.94
-4.68
18.74
35.57
35.52
17.83
-8.14
-28.38
-32.21
-18.33
4.23
21.50
22.71
6.62
-17.59
-35.65
-36.35
-18.21
9.43
31.89
37.48
24.12
0.39
-19.57
-24.30
-11.59
10.48
28.46
31.44
17.28
-6.14
-25.67
-30.59
-18.67
2.39
19.56
22.10
7.87
-15.33
-34.19
-37.64
-23.21
1.24
22.16
28.17
16.61
-4.79
-22.48
-24.95
-9.55
15.92
37.74
44.24
32.45
9.84
-10.16
-16.06
-4.87
16.02
33.17
35.04
18.75
-8.08
-31.65
-39.83
-29.09
-6.67
13.65
19.64
7.61
-15.39
-35.68
-40.90
-27.31
-2.09
20.97
29.40
19.20
-2.91
-23.60
-30.69
-20.24
1.30
21.01
27.13
15.93
-6.08
-25.99
-32.14
-20.76
1.55
21.67
27.68
15.84
-7.00
-27.25
-32.43
-18.38
8.02
32.79
42.89
33.58
11.17
-10.80
-19.33
-9.43
13.04
34.92
43.37
33.23
9.88
-13.90
-25.41
-19.19
-0.25
18.85
25.49
14.28
-9.65
-33.51
-44.32
-36.33
-14.60
8.03
18.48
11.13
-8.94
-28.87
-35.67
-23.92
0.96
25.82
37.41
29.94
8.39
-14.47
-25.60
-19.08
0.50
20.83
29.15
19.73
-2.71
-25.72
-36.37
-28.61
-7.06
15.69
26.46
19.13
-1.62
-23.07
-31.83
-21.74
2.31
27.23
39.36
32.32
10.78
-12.34
-23.38
-15.83
5.92
29.16
40.25
32.42
9.61
-15.86
-30.49
-27.26
-9.62
10.61
20.36
12.95
-7.90
-30.18
-40.66
-32.60
-9.83
15.41
29.65
26.00
8.09
-12.03
-21.16
-12.62
9.69
33.54
45.44
38.46
16.31
-8.79
-23.23
-19.71
-1.46
19.54
29.72
21.76
-1.02
-26.50
-40.67
-35.66
-14.42
10.93
26.22
23.30
4.67
-18.09
-31.15
-26.61
-7.01
16.20
29.46
25.07
5.53
-17.82
-31.70
-28.53
-10.82
10.27
21.63
15.88
-4.16
-26.94
-39.01
-32.63
-10.55
15.39
31.16
28.59
10.04
-12.86
-26.11
-21.35
-0.81
24.07
39.30
36.36
17.13
-7.33
-23.23
-21.93
-4.85
17.44
31.38
28.21
8.98
-16.05
-33.44
-34.15
-18.80
2.64
16.94
15.22
-1.66
-23.57
-37.03
-33.06
-12.60
13.93
32.68
34.40
19.61
-1.66
-16.05
-14.66
1.71
23.07
36.14
32.20
12.26
-13.33
-30.97
-31.56
-15.75
6.28
20.94
19.10
1.56
-21.36
-35.83
-32.52
-12.25
14.24
32.70
33.53
17.28
-5.62
-21.14
-19.78
-2.17
21.47
37.37
36.23
18.53
-5.79
-23.25
-24.58
-9.92
11.34
26.07
25.01
8.05
-15.66
-33.07
-34.63
-19.78
2.61
19.49
21.13
6.82
-14.74
-30.52
-30.69
-14.48
9.34
27.63
30.52
16.97
-4.65
-21.71
-24.56
-12.14
7.65
22.77
24.04
10.37
-10.68
-27.49
-30.99
-19.80
-0.89
14.58
17.74
7.02
-10.99
-25.49
-27.70
-15.91
3.41
19.62
24.02
14.88
-1.48
-14.56
-15.82
-3.75
15.20
30.37
33.13
21.90
3.17
-12.31
-15.75
-5.39
12.38
26.71
28.60
16.15
-4.34
-22.00
-27.66
-19.01
-2.01
12.78
16.37
6.47
-11.19
-26.36
-30.20
-20.42
-2.58
13.24
18.26
9.92
-6.68
-21.92
-27.13
-19.62
-3.99
10.56
15.63
8.44
-6.59
-20.50
-24.98
-17.14
-1.16
14.09
20.27
14.33
0.25
-13.28
-17.90
-10.44
5.17
20.17
26.07
19.52
4.37
-10.59
-16.67
-10.34
4.70
19.63
25.66
19.15
3.85
-11.30
-17.38
-10.76
4.59
19.27
24.01
15.15
-2.94
-20.25
-26.79
-18.41
0.47
19.31
27.52
20.55
2.61
-15.68
-23.43
-15.87
2.76
21.73
30.03
22.77
4.09
-15.21
-24.08
-17.61
0.07
18.13
25.35
16.65
-3.84
-25.06
-35.41
-29.33
-10.65
9.54
19.38
13.04
-5.81
-26.05
-35.55
-28.15
-7.45
15.31
27.82
23.84
6.86
-12.03
-20.64
-13.06
6.88
27.78
37.41
29.82
8.93
-13.72
-25.80
-21.21
-3.70
15.35
23.63
15.16
-6.12
-28.51
-39.32
-32.09
-10.58
13.28
26.36
21.83
3.19
-17.71
-27.60
-19.48
3.09
28.12
42.12
38.01
19.12
-2.70
-14.14
-8.29
11.31
32.76
42.77
34.41
11.19
-14.85
-30.18
-27.44
-9.60
11.64
22.75
16.16
-5.34
-30.19
-44.68
-40.76
-20.75
3.88
19.32
17.27
-0.24
-22.10
-34.59
-29.42
-8.70
16.33
31.97
30.02
12.55
-9.34
-22.16
-17.91
1.16
23.85
36.59
31.30
10.08
-15.87
-32.79
-32.12
-15.37
6.73
20.54
17.46
-1.09
-24.37
-38.66
-35.09
-15.01
10.56
27.49
26.65
9.30
-13.60
-27.79
-23.97
-3.40
22.81
40.34
39.88
22.48
-1.09
-16.85
-15.70
1.24
23.47
37.27
33.78
14.07
-11.39
-28.88
-29.33
-13.50
8.37
22.62
20.11
1.62
-22.51
-38.36
-36.30
-16.81
9.59
28.50
29.82
13.58
-10.09
-26.88
-26.60
-9.10
15.61
33.42
34.36
18.22
-5.24
-22.18
-22.70
-6.62
16.48
32.90
32.76
15.65
-9.11
-27.94
-30.79
-16.78
5.11
21.42
21.93
5.65
-18.57
-37.19
-39.72
-24.81
-1.30
17.11
19.85
5.64
-16.69
-33.32
-33.48
-15.77
10.78
32.06
36.94
23.53
0.36
-18.73
-22.54
-8.95
13.95
32.66
36.09
21.92
-2.02
-22.46
-28.31
-16.97
4.04
21.51
24.19
9.33
-15.59
-37.24
-43.98
-32.54
-10.22
9.54
15.00
2.98
-19.08
-37.42
-39.93
-23.30
4.71
29.90
39.71
30.39
9.24
-9.88
-14.64
-1.51
22.27
43.00
48.60
35.56
11.10
-11.19
-19.32
-9.70
10.77
28.84
32.75
19.02
-5.35
-27.09
-34.29
-23.21
-0.72
19.73
25.96
13.99
-9.50
-31.08
-38.31
-26.85
-3.26
18.90
27.00
16.58
-6.00
-27.22
-34.24
-22.41
2.02
25.66
35.66
27.09
5.71
-15.52
-24.12
-15.19
5.74
26.10
33.62
23.48
1.12
-20.92
-30.32
-21.89
-0.87
20.05
28.03
17.52
-6.42
-30.91
-42.61
-35.27
-13.60
9.54
20.73
13.78
-6.66
-27.77
-36.17
-25.69
-1.15
24.53
37.83
32.23
12.00
-10.50
-22.04
-16.07
3.65
25.26
35.71
28.34
6.73
-17.32
-30.71
-26.38
-7.64
13.65
24.05
16.36
-5.98
-30.79
-44.17
-38.50
-17.10
7.64
21.62
17.20
-2.28
-24.43
-35.15
-26.88
-3.15
23.61
39.30
36.25
17.70
-4.22
-15.72
-9.40
11.50
34.92
47.04
40.33
17.88
-8.25
-24.19
-22.03
-4.37
17.10
28.59
22.23
0.67
-24.32
-38.74
-34.35
-13.62
11.60
27.02
24.09
4.93
-18.84
-32.88
-28.40
-7.35
18.76
35.54
33.92
15.40
-8.79
-24.38
-22.29
-3.79
20.10
35.00
31.52
10.70
-16.43
-35.37
-36.32
-19.77
3.52
19.11
17.17
-1.65
-26.48
-42.64
-40.09
-19.48
8.10
27.60
28.75
11.87
-12.16
-28.43
-26.62
-6.97
19.93
39.39
41.05
24.83
0.91
-16.43
-17.23
-1.47
20.77
35.30
32.12
11.34
-16.60
-37.04
-39.35
-23.04
1.68
19.95
20.76
3.36
-22.22
-40.96
-41.53
-22.86
5.13
27.42
32.63
19.40
-2.78
-19.37
-19.32
-1.67
23.95
43.07
44.85
28.28
2.75
-17.48
-21.56
-8.06
14.32
31.94
34.04
18.90
-5.33
-25.36
-30.49
-18.59
2.48
19.47
21.41
6.04
-18.81
-39.57
-44.81
-31.83
-8.55
11.20
15.77
2.55
-20.34
-38.78
-40.84
-23.86
3.83
27.79
35.87
25.02
3.15
-15.69
-19.52
-5.38
18.92
39.50
44.44
30.64
5.63
-16.81
-24.63
-14.29
7.37
27.08
32.85
20.94
-2.12
-23.24
-30.49
-19.91
2.02
22.17
28.36
16.47
-7.07
-29.05
-37.08
-26.69
-4.23
16.90
24.05
12.62
-11.24
-34.10
-43.09
-33.15
-10.16
12.56
22.05
13.09
-8.58
-29.59
-36.66
-24.35
1.71
28.12
41.45
36.01
17.03
-2.55
-9.83
0.38
22.51
43.51
50.60
38.63
13.21
-12.53
-25.54
-20.13
-1.11
18.94
27.05
17.23
-6.10
-30.60
-43.18
-37.28
-16.77
6.07
17.76
11.29
-9.70
-32.92
-44.48
-36.89
-13.73
12.34
26.91
22.20
1.68
-21.81
-33.53
-25.41
-0.92
27.05
43.74
41.09
22.30
-0.18
-12.19
-6.21
14.31
37.09
48.31
40.67
17.56
-8.90
-25.11
-23.61
-7.18
12.75
22.99
16.15
-5.12
-29.63
-44.23
-41.20
-22.76
-0.03
13.57
9.93
-9.05
-32.35
-46.21
-41.94
-21.13
5.18
22.93
23.10
6.98
-14.48
-27.14
-21.88
-0.08
27.09
45.27
45.14
27.79
4.13
-11.69
-10.47
6.73
29.27
43.22
39.46
18.96
-7.69
-26.51
-28.07
-12.73
9.39
24.37
22.45
3.62
-22.23
-41.11
-42.80
-26.84
-2.95
14.71
15.72
-0.47
-24.06
-40.66
-39.60
-20.32
7.21
28.36
32.35
18.40
-3.82
-20.10
-19.97
-2.92
21.39
38.97
39.63
22.81
-2.00
-20.94
-23.67
-9.22
13.56
31.13
33.05
17.82
-6.23
-25.86
-30.51
-18.20
3.12
20.12
21.84
5.96
-19.60
-41.17
-47.08
-34.38
-10.81
9.77
15.46
3.25
-19.03
-37.31
-39.47
-22.50
5.51
30.22
39.31
29.53
8.58
-9.59
-13.01
1.31
25.65
46.23
51.20
37.49
12.60
-9.79
-17.85
-8.19
12.17
29.95
33.40
19.06
-6.19
-29.09
-37.66
-27.92
-6.33
13.91
20.57
9.29
-13.85
-35.88
-44.42
-34.70
-12.59
8.95
17.46
8.15
-13.16
-33.31
-39.49
-26.64
-0.61
25.23
37.67
31.17
11.06
-9.68
-18.04
-8.55
13.63
35.59
44.35
34.36
10.83
-13.23
-24.63
-17.41
3.54
25.28
34.38
24.63
0.75
-24.31
-36.95
-30.56
-9.48
13.54
25.02
18.42
-2.03
-23.88
-33.81
-25.40
-3.00
20.88
32.91
26.57
5.90
-16.83
-28.39
-22.12
-1.77
20.78
32.48
26.56
6.42
-16.36
-28.84
-24.08
-5.10
16.74
28.36
22.44
1.72
-22.40
-36.47
-32.54
-12.87
11.10
25.40
21.54
1.49
-23.32
-38.59
-35.29
-14.99
10.89
28.02
27.33
10.27
-12.07
-25.60
-21.45
-1.29
23.66
39.35
36.97
18.08
-6.25
-22.06
-20.53
-2.97
20.02
34.73
32.37
13.99
-10.04
-26.16
-25.42
-8.57
14.25
29.47
27.78
9.56
-15.32
-33.25
-34.61
-19.30
2.99
18.53
17.50
-0.37
-25.46
-43.93
-45.56
-29.59
-5.41
13.13
15.62
1.07
-21.37
-37.77
-37.38
-18.89
8.62
31.03
37.15
25.12
3.46
-13.95
-16.01
-0.79
23.23
42.22
44.99
29.58
4.45
-16.39
-21.51
-8.53
14.38
33.27
36.42
21.10
-4.79
-27.29
-34.44
-22.93
-0.32
19.60
24.81
12.02
-11.33
-31.51
-36.40
-22.64
2.28
24.44
31.71
20.64
-1.48
-20.91
-25.60
-12.21
11.97
33.32
39.77
27.72
4.07
-17.86
-25.99
-16.30
4.95
24.99
31.97
21.68
-0.01
-20.54
-27.99
-17.84
4.28
25.67
33.90
23.80
0.59
-23.17
-34.71
-28.30
-8.66
11.75
20.06
10.44
-12.40
-35.75
-46.33
-37.85
-14.85
9.87
22.72
17.06
-2.94
-24.82
-35.19
-27.46
-5.87
17.07
28.06
20.73
-0.46
-22.77
-32.57
-23.28
0.89
27.32
42.32
38.95
20.86
0.05
-10.29
-3.48
16.69
38.23
48.01
39.26
15.64
-10.84
-26.82
-24.98
-8.18
12.17
22.85
16.44
-4.43
-28.53
-42.63
-38.96
-19.87
3.42
17.31
13.75
-5.14
-28.14
-41.45
-36.58
-15.51
10.42
27.19
26.20
9.22
-12.51
-25.07
-19.79
1.47
27.35
43.74
41.80
23.00
-1.66
-18.19
-17.55
-0.74
21.88
36.68
34.60
16.33
-8.06
-25.08
-25.45
-9.50
13.00
28.51
27.44
9.72
-15.10
-33.46
-35.45
-20.53
1.89
18.10
17.94
0.77
-24.08
-42.74
-44.68
-28.86
-4.46
14.41
16.98
1.91
-21.68
-39.50
-40.20
-21.95
6.39
30.50
38.73
28.70
8.45
-8.41
-10.73
3.61
26.50
44.52
46.76
31.17
5.86
-15.70
-22.34
-11.44
9.67
27.99
32.41
19.95
-2.51
-22.29
-28.25
-17.20
4.16
22.93
27.53
14.33
-10.11
-32.73
-41.40
-31.75
-9.94
10.99
18.75
8.81
-12.82
-33.24
-40.14
-28.98
-5.93
15.82
23.85
13.66
-8.47
-29.13
-35.57
-23.11
2.10
26.60
37.45
29.66
9.04
-11.25
-18.37
-7.29
16.29
39.23
48.64
39.15
16.02
-7.90
-19.66
-13.46
6.03
26.38
34.66
24.87
1.41
-23.40
-36.51
-31.44
-12.14
9.16
19.25
11.45
-10.35
-33.81
-45.25
-37.57
-14.50
11.40
26.16
22.34
3.36
-18.59
-29.73
-22.71
-1.07
22.91
35.53
29.58
8.57
-15.24
-28.10
-22.64
-2.10
21.63
34.93
30.25
10.48
-12.81
-26.15
-21.90
-2.60
20.44
33.72
29.25
9.21
-15.32
-30.78
-28.77
-10.99
11.66
25.42
21.70
2.00
-22.78
-38.72
-36.79
-18.17
6.23
22.33
20.91
3.00
-20.66
-35.93
-33.48
-14.26
10.99
28.13
27.76
10.67
-12.53
-27.71
-25.36
-6.16
19.49
37.46
38.06
21.55
-1.99
-18.67
-18.78
-2.44
20.45
35.92
34.07
14.83
-11.85
-31.81
-34.69
-19.81
3.22
20.29
20.96
4.48
-19.71
-37.60
-38.66
-22.01
2.96
22.07
24.59
9.32
-14.66
-33.27
-35.49
-19.64
5.70
26.84
32.95
22.20
2.70
-12.38
-12.61
3.42
27.20
45.14
46.50
29.64
3.15
-18.97
-25.31
-13.38
8.93
28.03
32.59
19.87
-2.72
-22.13
-27.27
-15.37
6.43
25.28
30.09
17.94
-4.27
-23.81
-29.49
-18.00
3.92
23.43
28.89
16.54
-7.30
-29.70
-38.53
-29.30
-7.90
12.82
20.48
10.28
-12.20
-34.24
-43.33
-34.36
-12.64
9.22
18.79
10.94
-9.03
-28.46
-34.81
-22.91
1.74
26.13
37.34
29.90
8.97
-12.63
-21.98
-13.37
8.31
30.63
40.83
33.22
12.42
-9.28
-19.22
-11.64
8.94
30.25
39.48
30.59
7.85
-16.59
-29.71
-24.89
-5.79
15.78
26.68
19.94
-1.15
-24.96
-38.26
-33.70
-14.16
8.87
21.96
17.46
-2.08
-25.39
-39.00
-35.04
-15.88
7.15
20.38
15.73
-4.51
-28.81
-43.10
-38.73
-17.57
8.99
26.80
26.99
11.12
-9.82
-22.00
-16.83
3.78
28.54
43.37
39.72
19.50
-5.72
-21.58
-19.04
0.41
25.63
42.36
41.31
23.38
-0.93
-17.80
-17.93
-1.81
20.62
35.83
34.54
16.93
-7.40
-25.14
-26.82
-12.19
9.49
25.03
24.78
8.27
-15.48
-33.20
-34.95
-19.89
2.98
20.04
20.91
4.43
-20.47
-39.95
-43.20
-28.68
-5.16
13.46
16.29
1.71
-21.53
-39.48
-41.10
-24.67
1.04
21.85
26.41
12.67
-10.87
-30.11
-33.45
-18.39
7.00
29.02
36.23
26.03
6.05
-10.53
-12.77
1.55
24.57
42.99
45.83
30.79
5.67
-16.09
-23.09
-12.28
9.27
28.57
34.15
22.55
0.31
-19.73
-25.97
-14.57
8.10
29.03
36.05
24.74
1.07
-22.09
-32.28
-24.54
-4.37
15.44
22.29
11.04
-12.88
-36.49
-46.78
-38.05
-15.43
8.12
19.39
12.48
-7.76
-28.56
-36.73
-26.33
-2.33
22.23
33.97
26.77
5.39
-17.29
-27.85
-19.96
2.01
25.68
37.84
32.07
12.34
-9.33
-20.04
-13.38
6.77
28.57
39.04
31.57
9.78
-14.51
-28.20
-24.23
-5.71
15.76
26.86
20.22
-1.36
-26.45
-41.61
-38.88
-20.48
2.43
16.26
12.74
-6.33
-29.93
-44.23
-40.41
-19.87
6.50
24.73
25.77
10.67
-10.04
-22.70
-18.50
1.07
25.08
39.63
35.99
15.82
-9.60
-25.98
-24.15
-5.27
19.86
37.21
37.52
21.40
-1.17
-16.90
-16.84
-1.48
19.64
33.55
31.42
13.63
-10.34
-27.38
-28.18
-12.57
10.25
27.05
28.05
12.51
-10.78
-28.67
-31.17
-17.10
4.97
21.79
23.10
7.47
-16.77
-36.38
-40.71
-27.80
-5.64
12.67
16.46
3.71
-17.67
-34.45
-35.81
-19.72
5.66
26.74
32.37
20.25
-1.70
-20.01
-23.49
-9.66
13.79
33.63
38.73
26.44
4.15
-15.04
-19.93
-7.59
14.89
34.60
40.28
28.63
6.24
-14.31
-21.74
-12.44
7.45
25.66
30.89
19.37
-3.02
-24.04
-32.30
-23.56
-3.42
15.98
22.98
13.00
-8.65
-29.89
-38.75
-30.25
-9.46
11.38
20.01
11.15
-10.25
-31.90
-41.29
-32.78
-11.14
11.33
22.02
15.24
-4.32
-24.37
-32.20
-22.09
1.15
24.94
36.28
29.22
8.35
-13.86
-24.30
-16.74
4.60
27.59
39.39
33.80
14.78
-5.88
-15.65
-8.56
11.36
32.30
41.65
33.24
10.99
-13.33
-26.88
-22.95
-4.85
16.07
27.10
21.33
1.66
-21.03
-34.20
-30.80
-13.30
7.76
19.86
15.76
-2.37
-24.18
-37.13
-33.66
-15.63
6.63
20.30
17.45
-0.42
-23.09
-37.53
-35.34
-17.66
5.37
20.56
19.29
2.56
-19.53
-33.65
-30.92
-12.17
12.55
29.88
30.88
16.20
-4.34
-17.59
-14.77
3.21
26.27
41.08
38.82
20.34
-4.23
-21.43
-22.04
-6.37
16.10
32.27
32.97
18.12
-3.30
-18.63
-18.82
-3.60
18.26
34.09
34.52
18.84
-4.68
-23.55
-28.11
-16.95
2.21
17.09
17.97
3.27
-19.34
-37.41
-40.81
-27.63
-5.46
12.94
17.09
4.77
-16.57
-34.20
-37.44
-23.92
-1.15
17.91
22.45
10.05
-11.76
-29.85
-33.04
-18.58
6.25
28.45
36.75
28.02
9.08
-7.49
-10.71
2.29
24.50
43.18
47.22
33.55
9.01
-13.61
-22.94
-15.25
3.43
21.00
26.26
15.35
-6.11
-26.34
-34.22
-25.59
-5.78
13.41
20.49
10.87
-10.41
-31.48
-40.35
-31.72
-10.29
11.98
22.84
16.69
-2.10
-21.80
-30.18
-21.68
-0.81
20.48
29.90
21.93
1.27
-19.88
-28.80
-19.64
3.11
27.30
40.10
35.37
17.10
-3.08
-12.78
-6.12
12.89
32.74
41.18
32.28
9.93
-14.44
-28.44
-25.55
-8.82
10.93
21.42
15.87
-3.14
-25.17
-37.96
-34.42
-16.77
4.54
16.97
13.05
-5.18
-27.28
-40.34
-36.38
-17.04
7.27
23.50
23.39
8.20
-12.13
-24.92
-22.06
-4.88
16.73
30.27
27.93
11.26
-9.67
-22.16
-18.32
0.30
23.54
38.53
37.08
20.33
-2.01
-17.37
-17.52
-3.17
16.57
29.60
27.85
11.89
-9.46
-24.33
-24.58
-10.44
9.62
23.86
23.94
9.65
-11.09
-26.87
-29.25
-17.55
0.78
14.59
15.47
2.64
-16.56
-30.96
-31.93
-18.44
2.17
18.48
21.51
9.88
-9.24
-24.28
-25.92
-12.61
8.51
25.81
29.92
19.10
0.26
-15.27
-18.35
-7.38
10.83
25.19
26.73
13.87
-6.68
-23.90
-28.78
-19.36
-1.72
13.69
18.03
9.02
-7.96
-23.21
-28.24
-20.49
-4.65
10.25
16.00
9.86
-4.17
-17.67
-22.73
-16.25
-1.75
12.76
19.34
14.59
1.59
-11.86
-17.70
-12.14
1.99
16.93
24.42
20.44
7.67
-6.00
-12.13
-6.59
7.71
22.53
29.02
22.93
7.14
-9.88
-18.97
-15.62
-2.50
12.07
19.07
14.06
-0.12
-15.05
-21.63
-15.50
0.34
17.05
25.09
19.70
3.74
-13.93
-23.47
-19.65
-4.94
11.90
20.89
16.58
1.23
-16.49
-26.48
-22.96
-7.99
9.62
19.49
15.63
0.13
-17.94
-27.71
-22.83
-5.38
15.20
27.60
25.11
9.61
-9.51
-20.84
-17.63
-1.73
17.48
28.63
24.93
8.22
-12.12
-24.68
-22.52
-7.22
12.20
24.47
22.62
7.93
-10.84
-22.64
-20.54
-5.65
13.48
25.87
24.39
9.79
-9.79
-23.66
-24.49
-12.49
4.75
16.81
16.43
3.63
-14.26
-26.89
-26.87
-14.10
4.14
17.39
18.09
5.97
-11.70
-24.31
-23.98
-10.28
9.51
24.63
26.98
15.72
-2.31
-16.65
-19.25
-9.06
7.45
20.27
21.57
10.31
-7.09
-20.61
-22.36
-11.20
6.63
21.10
24.16
14.42
-2.10
-15.44
-17.54
-6.92
10.37
24.25
26.41
15.09
-3.85
-20.27
-25.52
-17.34
-1.22
12.81
16.04
6.05
-11.75
-27.29
-31.55
-21.95
-3.93
12.18
17.12
8.06
-9.61
-25.47
-30.10
-20.70
-2.81
12.96
17.12
6.92
-12.02
-29.10
-34.97
-27.07
-11.05
2.62
4.91
-6.44
-25.43
-41.45
-45.62
-36.04
-19.12
-5.87
-5.48
-19.97
-42.88
-62.92
-70.31
-62.37
-44.86
-28.78
-23.99
-33.87
-53.65
-73.15
-82.25
-76.03
-56.99
-32.75
-11.76
1.37
7.63
12.27
21.44
38.81
64.03
93.43
123.25
149.14
169.31
184.09
195.08
203.93
211.47
217.36
220.44
220.17
216.57
210.38
202.22
191.72
177.16
156.22
130.13
99.20
66.83
38.64
20.11
13.53
16.50
22.52
23.89
15.05
-5.06
-32.47
-61.15
-86.01
-104.71
-117.40
-125.29
-129.22
-129.16
-125.14
-117.46
-107.43
-96.98
-88.13
-81.98
-78.38
-76.10
-73.53
-69.61
-63.98
-57.26
-50.74
-45.70
-42.82
-41.98
-42.38
-42.98
-43.05
-42.34
-41.20
-40.40
-40.71
-42.54
-45.85
-50.25
-55.21
-60.31
-65.41
-70.59
-76.22
-82.63
-90.06
-98.52
-107.91
-118.00
-128.42
-138.88
-148.90
-157.93
-165.33
-170.39
-172.33
-170.50
-164.89
-155.14
-141.67
-124.64
-104.66
-82.73
-60.13
-38.28
-18.48
-1.71
11.56
21.40
28.39
33.38
37.28
40.79
44.35
48.05
51.69
54.90
57.33
58.73
58.77
56.94
52.33
43.97
30.88
12.50
-10.94
-38.07
-66.58
-93.81
-117.24
-135.49
-148.06
-155.26
-157.74
-155.77
-148.93
-136.02
-115.84
-87.65
-51.88
-9.45
38.22
88.82
136.80
176.12
201.11
207.88
198.93
178.48
152.15
124.97
99.42
74.62
48.37
19.59
-10.67
-38.71
-60.35
-72.41
-74.00
-66.56
-53.53
-37.48
-19.12
1.82
26.45
55.34
87.82
122.51
157.86
191.46
219.33
240.09
254.14
264.14
274.30
289.73
316.00
357.02
411.14
472.35
531.11
571.07
579.67
551.86
490.30
404.00
313.57
230.25
158.99
101.77
60.16
33.17
20.24
17.97
20.81
22.67
18.08
6.12
-12.88
-35.59
-58.54
-76.65
-89.90
-99.44
-106.77
-111.26
-109.95
-100.62
-84.92
-69.86
-65.56
-80.63
-115.85
-162.73
-207.37
-236.47
-243.85
-231.83
-209.94
-189.43
-177.96
-176.05
-179.19
-182.55
-184.43
-186.60
-192.05
-202.24
-215.64
-228.52
-236.72
-237.95
-232.89
-224.97
-218.58
-217.04
-221.32
-229.83
-239.41
-246.54
-248.80
-245.57
-237.95
-227.70
-217.08
-206.24
-193.89
-178.13
-157.31
-130.92
-100.06
-67.13
-35.09
-6.49
17.45
36.75
52.48
66.16
79.08
91.61
103.12
112.25
117.57
118.50
115.37
109.43
102.38
95.81
90.46
86.03
81.72
76.09
68.92
61.22
55.05
53.17
58.79
75.11
104.69
148.42
204.21
266.46
326.53
375.21
404.37
411.05
398.02
371.97
340.23
307.79
276.23
244.55
211.29
176.38
141.55
109.10
80.44
55.51
33.27
12.84
-5.90
-22.12
-34.43
-41.71
-43.84
-41.97
-38.15
-34.38
-31.94
-31.18
-31.57
-32.19
-32.24
-31.53
-30.19
-29.53
-30.88
-35.05
-42.06
-51.16
-61.06
-70.35
-77.85
-82.85
-85.13
-84.63
-81.39
-75.55
-67.27
-56.81
-44.60
-31.27
-17.67
-4.75
6.63
15.77
22.04
25.11
24.88
21.38
14.75
5.30
-6.61
-20.59
-35.13
-49.02
-61.24
-71.02
-77.90
-81.80
-82.99
-81.94
-79.19
-75.61
-72.07
-69.26
-67.65
-67.56
-69.31
-73.15
-79.22
-87.25
-97.32
-109.17
-122.18
-135.43
-148.01
-159.14
-168.24
-174.95
-178.67
-179.67
-178.10
-174.14
-168.17
-160.94
-153.47
-146.62
-140.85
-130.82
-112.10
-81.34
-37.76
16.18
75.32
133.51
184.97
223.70
247.20
253.32
241.71
214.77
177.98
138.88
104.81
82.48
74.28
77.19
83.53
85.76
79.98
67.06
51.01
36.03
24.49
16.23
10.17
5.13
1.23
-0.64
0.14
3.23
7.37
10.99
12.78
12.44
10.45
8.10
6.73
7.08
9.00
11.60
13.76
14.55
13.74
11.67
9.20
7.19
6.09
5.81
5.77
5.30
3.83
1.19
-2.41
-6.52
-10.73
-14.85
-18.91
-23.24
-28.18
-34.04
-40.89
-48.68
-57.24
-66.48
-76.38
-86.99
-98.46
-110.90
-124.37
-138.80
-153.96
-169.46
-184.76
-199.18
-211.89
-221.96
-228.43
-230.78
-228.54
-221.17
-208.36
-190.18
-167.18
-140.27
-110.65
-79.65
-48.59
-18.61
9.40
34.77
57.00
75.77
90.96
102.52
110.63
115.60
117.95
118.31
117.26
115.22
112.48
109.03
104.65
99.09
92.27
84.44
76.07
67.76
59.98
52.74
45.70
38.27
29.95
20.81
11.58
3.54
-1.86
-3.74
-2.12
1.97
6.83
11.05
14.18
17.02
21.43
29.34
41.59
57.23
73.59
87.34
96.00
99.30
99.33
99.47
102.61
109.63
118.93
127.87
134.66
139.38
143.53
148.18
152.09
152.10
144.80
129.19
108.08
86.99
71.05
61.85
56.41
49.51
37.64
21.97
8.44
3.74
10.58
24.47
34.87
30.67
6.71
-32.06
-71.80
-96.44
-96.10
-72.82
-40.19
-16.10
-13.12
-31.39
-58.34
-75.83
-70.60
-42.51
-4.66
23.95
29.38
10.95
-18.74
-41.90
-46.39
-32.94
-14.29
-6.09
-16.59
-40.81
-63.09
-67.05
-45.87
-7.22
30.50
48.56
38.07
4.66
-34.85
-61.98
-66.24
-49.82
-25.47
-8.12
-6.43
-17.98
-31.31
-33.36
-17.65
10.95
38.33
49.03
35.23
2.15
-33.89
-54.25
-48.06
-18.72
17.67
41.65
41.51
19.87
-7.97
-23.28
-15.30
12.09
42.67
57.49
46.09
12.41
-27.74
-56.28
-63.26
-51.96
-36.08
-30.28
-41.20
-63.53
-83.71
-88.86
-74.76
-48.35
-23.54
-12.90
-21.20
-43.84
-70.36
-90.30
-97.25
-89.74
-69.96
-41.60
-8.83
23.75
51.19
69.37
76.67
74.74
67.79
60.38
55.75
55.10
58.31
65.17
75.82
90.05
106.15
120.68
130.17
131.81
124.87
110.82
92.81
74.32
57.82
44.20
32.73
21.09
6.57
-13.00
-38.02
-66.23
-92.76
-111.54
-117.73
-109.91
-90.90
-66.72
-44.11
-27.98
-20.29
-20.14
-25.23
-33.16
-42.22
-50.64
-56.27
-56.61
-49.68
-35.05
-14.15
10.14
34.59
56.40
74.01
87.11
96.21
102.30
106.27
108.74
109.90
109.57
107.23
102.42
94.81
84.41
72.28
58.61
43.38
26.65
8.71
-9.73
-27.58
-43.38
-55.41
-61.88
-61.38
-53.37
-38.34
-17.76
6.15
30.97
54.39
74.67
90.60
101.86
108.15
109.21
104.90
95.49
81.89
65.65
48.92
33.77
21.73
13.26
7.56
2.83
-3.01
-11.50
-23.33
-37.97
-54.58
-72.03
-89.67
-107.73
-127.25
-149.90
-175.57
-204.64
-236.97
-271.57
-305.09
-331.93
-345.94
-342.64
-321.29
-285.68
-243.19
-198.76
-157.76
-123.34
-96.02
-75.08
-59.89
-50.52
-46.96
-48.02
-50.60
-51.11
-47.73
-39.57
-28.20
-16.72
-8.09
-3.12
0.06
5.39
16.78
36.98
66.96
105.42
149.40
194.83
236.81
269.71
288.36
289.58
274.61
249.38
222.07
199.50
183.69
171.10
155.12
130.61
97.59
61.89
31.81
13.01
5.35
3.16
-1.26
-13.09
-32.45
-54.84
-74.20
-86.27
-90.40
-88.52
-83.28
-76.19
-66.88
-53.95
-36.55
-15.59
6.13
24.88
37.94
44.65
46.48
46.47
47.57
51.46
57.97
65.40
71.63
75.59
77.73
79.40
82.39
87.61
94.44
100.96
105.22
103.82
93.86
73.79
44.27
8.87
-26.30
-54.18
-68.54
-67.25
-53.83
-35.58
-20.36
-13.14
-14.44
-21.14
-29.00
-34.96
-38.49
-40.77
-42.92
-44.91
-45.62
-43.79
-39.12
-32.59
-25.86
-20.88
-18.68
-18.99
-20.44
-21.35
-20.50
-17.68
-13.61
-9.62
-7.02
-6.53
-7.98
-10.50
-13.06
-14.89
-15.83
-16.30
-17.05
-18.84
-22.06
-26.63
-32.13
-38.01
-43.90
-49.71
-55.60
-61.92
-69.33
-78.00
-87.93
-98.94
-110.86
-123.58
-137.13
-151.51
-166.74
-182.66
-198.78
-214.30
-228.02
-238.33
-243.44
-241.79
-231.70
-211.95
-182.01
-142.19
-93.82
-39.06
19.34
78.30
134.72
185.86
229.41
263.64
287.51
300.59
302.97
295.29
278.50
253.80
222.57
186.22
146.13
103.73
60.42
17.55
-23.59
-61.88
-96.39
-126.40
-151.50
-171.38
-185.78
-194.53
-197.40
-194.15
-184.70
-169.18
-148.06
-122.24
-92.95
-61.60
-29.66
1.54
30.91
57.57
80.85
100.30
115.64
126.84
134.26
138.53
140.60
141.43
141.69
141.61
141.07
139.96
138.56
137.69
138.30
140.71
144.06
146.57
146.61
143.41
137.95
132.12
127.27
123.05
117.36
107.53
91.99
71.34
48.13
25.48
5.40
-11.98
-27.86
-43.25
-57.45
-67.71
-70.50
-63.58
-47.98
-28.51
-12.21
-5.36
-10.48
-25.15
-43.71
-60.94
-75.38
-90.14
-110.75
-140.80
-178.43
-215.90
-242.62
-249.98
-235.14
-201.82
-157.73
-111.09
-67.86
-31.28
-2.88
16.69
27.65
32.04
34.55
41.89
60.45
93.46
138.60
188.00
229.99
252.68
248.30
216.23
164.03
105.56
56.28
26.96
19.29
25.00
30.13
22.43
-2.11
-36.63
-67.14
-80.16
-70.29
-43.48
-13.48
6.00
9.04
0.55
-7.77
-5.47
9.38
28.02
36.13
23.05
-10.61
-51.44
-79.87
-80.74
-51.83
-6.10
35.10
53.20
42.01
10.95
-20.29
-32.81
-18.53
15.64
52.08
73.05
70.81
52.07
33.91
33.50
57.82
99.12
139.15
159.85
153.39
126.68
96.49
79.04
80.26
92.20
98.10
83.29
44.98
-5.08
-46.26
-60.81
-44.01
-7.56
26.62
38.25
19.37
-22.02
-67.41
-98.84
-108.61
-102.37
-94.45
-98.56
-119.70
-151.94
-182.53
-199.31
-196.83
-177.68
-149.74
-120.85
-95.37
-73.15
-51.91
-29.99
-8.35
9.51
19.11
17.40
4.67
-15.28
-36.14
-51.31
-56.17
-49.38
-32.78
-10.14
14.23
36.84
55.48
69.28
78.12
82.01
80.90
74.90
64.70
51.85
38.95
29.05
24.83
27.76
37.49
52.14
68.65
83.75
94.60
99.17
96.41
86.24
69.62
48.34
24.85
1.88
-17.83
-31.00
-34.73
-27.01
-7.25
23.71
63.74
109.69
157.68
203.72
244.18
276.56
299.52
312.54
315.73
309.76
295.77
275.05
248.98
218.86
185.67
150.83
116.07
83.19
53.71
28.44
7.33
-10.44
-25.94
-40.23
-53.66
-65.72
-75.28
-81.45
-84.36
-85.72
-88.64
-96.73
-113.17
-139.37
-174.35
-214.88
-256.80
-296.14
-330.23
-357.62
-377.73
-390.79
-398.25
-403.06
-409.34
-420.91
-439.09
-461.36
-482.05
-489.17
-476.74
-448.21
-414.54
-387.22
-370.69
-359.22
-340.12
-300.56
-240.83
-164.54
-79.12
6.71
85.10
149.32
193.47
212.74
205.19
175.30
132.48
89.31
58.45
49.73
67.39
109.00
165.57
223.44
267.43
285.50
272.77
234.27
183.46
136.31
104.03
88.44
82.52
76.17
63.47
46.40
33.05
31.44
42.72
59.28
68.73
61.23
35.81
1.01
-28.54
-39.85
-26.88
7.59
54.75
104.26
147.58
181.92
207.95
226.27
235.00
230.45
208.52
168.57
115.17
57.61
6.82
-29.19
-48.05
-54.32
-57.13
-66.38
-88.40
-123.97
-169.06
-217.30
-262.70
-300.98
-331.11
-350.94
-356.59
-342.73
-304.79
-241.82
-158.68
-66.76
19.09
86.19
129.39
152.78
167.83
187.37
218.45
258.58
296.88
318.24
311.22
273.01
209.74
133.19
57.22
-8.29
-58.02
-89.83
-104.26
-104.24
-95.28
-85.38
-82.78
-92.90
-115.28
-142.72
-162.54
-161.38
-130.64
-70.56
9.48
94.29
168.73
222.72
253.35
264.96
265.19
261.02
255.96
249.93
241.43
228.41
214.28
201.15
190.62
180.12
164.40
137.08
94.03
35.99
-30.31
-92.74
-141.01
-169.48
-178.80
-176.10
-171.77
-173.91
-184.08
-196.75
-202.32
-193.24
-167.88
-132.58
-99.01
-79.14
-79.65
-99.18
-129.63
-159.71
-179.66
-183.48
-170.31
-144.15
-112.20
-82.54
-60.87
-48.22
-40.24
-29.57
-8.72
26.36
74.83
131.76
189.94
242.11
281.94
304.26
305.20
283.61
242.88
191.65
142.26
106.72
92.10
97.70
115.52
134.00
142.94
137.48
118.89
92.62
64.98
40.46
20.61
4.82
-7.76
-17.62
-24.87
-30.14
-35.06
-42.03
-53.13
-69.21
-89.31
-110.75
-130.25
-144.93
-153.02
-154.07
-148.60
-137.57
-121.90
-102.42
-79.84
-55.24
-30.33
-7.48
10.05
19.19
17.93
5.98
-14.86
-40.98
-67.88
-90.99
-106.78
-112.76
-107.81
-92.35
-68.03
-37.47
-3.60
30.66
62.80
90.86
113.46
129.76
139.37
142.58
140.26
133.85
125.14
115.84
107.22
99.78
93.29
86.97
80.16
72.63
64.78
57.66
52.41
49.83
49.90
51.71
53.69
54.66
54.26
53.00
52.23
53.14
56.17
60.56
65.08
66.74
62.82
51.20
30.58
0.84
-36.38
-77.00
-114.36
-140.84
-151.17
-144.49
-125.02
-100.46
-78.70
-64.71
-59.15
-59.27
-61.43
-63.33
-64.52
-65.85
-67.99
-70.61
-72.49
-72.50
-70.37
-67.20
-64.69
-64.44
-66.99
-71.73
-77.35
-82.49
-86.37
-89.19
-91.89
-95.59
-100.92
-107.73
-115.09
-121.67
-126.54
-128.71
-127.65
-123.29
-115.24
-103.02
-86.30
-65.29
-41.11
-15.74
8.43
29.26
45.54
57.50
66.40
74.07
81.91
90.43
99.08
107.06
113.67
119.11
124.49
131.22
140.40
152.55
167.65
184.91
202.44
216.47
221.47
211.40
182.17
134.36
74.06
11.49
-42.75
-81.72
-104.26
-114.06
-116.66
-116.21
-113.63
-107.71
-96.93
-81.42
-63.29
-45.50
-29.99
-16.82
-4.58
8.58
23.32
38.66
52.37
62.18
66.79
66.78
64.18
61.51
60.82
62.77
66.58
70.54
73.01
73.16
71.67
70.08
69.93
71.99
75.69
79.28
80.43
77.66
70.03
58.24
43.90
28.78
14.13
0.12
-14.01
-29.52
-47.67
-69.56
-95.53
-123.89
-151.73
-174.16
-185.51
-181.50
-161.61
-129.99
-94.48
-63.58
-43.18
-34.66
-35.07
-39.55
-44.11
-47.22
-49.69
-53.28
-58.98
-66.27
-73.41
-78.53
-79.80
-76.12
-67.56
-54.48
-38.20
-21.14
-6.60
1.98
2.52
-4.51
-15.76
-26.23
-30.57
-25.21
-10.16
11.67
35.65
56.99
71.81
77.22
72.10
57.95
39.16
22.04
12.67
14.15
24.91
39.20
49.75
51.19
42.17
25.66
7.16
-7.63
-14.66
-12.10
0.31
21.50
49.17
79.32
106.43
124.57
129.35
119.16
96.22
65.76
34.50
8.25
-9.75
-18.94
-20.96
-18.59
-14.54
-10.61
-7.07
-2.94
3.10
11.02
18.48
21.46
16.49
3.54
-13.30
-27.43
-33.48
-30.72
-24.00
-20.96
-27.32
-43.45
-64.17
-82.29
-93.43
-98.71
-102.83
-110.99
-124.37
-138.21
-143.35
-130.61
-95.49
-40.35
26.45
93.65
150.25
188.14
203.38
195.91
169.31
129.82
85.27
42.76
9.89
-7.81
-8.46
6.32
32.48
65.64
101.57
136.16
165.29
185.61
195.21
194.27
186.96
176.44
165.18
154.18
142.86
129.42
111.90
89.25
61.99
32.47
3.25
-23.47
-47.08
-67.44
-85.94
-104.98
-127.06
-154.26
-187.28
-225.74
-266.89
-305.65
-335.06
-348.45
-342.10
-316.43
-276.16
-228.06
-179.53
-136.01
-100.45
-73.56
-52.43
-35.80
-23.21
-18.17
-20.63
-29.14
-39.94
-50.11
-56.89
-57.56
-50.21
-34.00
-10.21
18.29
46.87
70.98
87.27
94.37
92.48
82.51
66.63
48.78
35.03
31.34
41.09
62.53
88.71
109.83
117.39
108.43
87.29
64.19
50.22
52.84
73.06
105.70
142.10
173.57
193.93
201.19
197.63
188.12
178.24
171.71
169.22
168.25
164.07
151.10
125.25
85.54
34.77
-21.10
-74.46
-117.82
-145.70
-153.24
-140.32
-112.37
-78.98
-50.28
-32.99
-28.66
-34.67
-46.53
-60.10
-72.87
-83.28
-90.18
-92.64
-90.41
-84.35
-76.55
-69.49
-65.20
-64.55
-67.11
-71.38
-75.52
-78.24
-79.22
-79.35
-80.17
-83.04
-88.80
-97.44
-108.21
-120.02
-132.04
-143.72
-155.23
-167.01
-179.19
-191.37
-202.45
-210.84
-214.79
-213.97
-207.59
-195.59
-178.65
-158.16
-135.96
-114.07
-94.58
-79.40
-70.14
-67.66
-72.27
-83.43
-99.78
-119.35
-139.69
-158.47
-173.73
-183.97
-187.97
-184.99
-174.57
-156.52
-131.14
-99.06
-61.71
-21.28
19.75
59.16
95.28
127.29
155.16
179.26
199.94
216.92
229.31
236.11
237.09
233.35
227.55
223.61
223.89
230.76
245.42
267.76
296.39
328.79
361.58
390.90
413.29
427.20
433.83
436.63
439.63
445.12
451.73
454.36
446.14
421.61
379.76
324.62
263.46
203.97
151.62
108.65
74.72
48.55
27.55
10.84
-1.48
-9.53
-14.40
-17.92
-22.06
-27.99
-35.74
-44.08
-51.18
-55.78
-57.92
-58.80
-60.19
-63.48
-68.93
-75.59
-81.39
-83.90
-81.33
-73.30
-60.90
-46.26
-31.97
-19.28
-9.51
-3.21
-0.23
-0.39
-3.88
-11.33
-23.45
-40.68
-62.38
-86.72
-110.64
-130.62
-143.73
-148.55
-145.73
-137.64
-127.84
-119.59
-114.96
-114.28
-116.49
-120.13
-124.40
-129.90
-137.08
-147.97
-164.95
-189.60
-221.21
-255.93
-286.85
-305.54
-304.83
-281.83
-239.97
-187.66
-135.37
-91.43
-59.43
-37.83
-22.07
-7.27
9.82
30.12
52.59
74.58
92.14
100.57
96.21
78.57
51.69
23.13
0.68
-11.55
-15.46
-17.94
-26.81
-45.95
-72.28
-96.88
-109.34
-102.98
-78.09
-41.24
-1.49
34.02
62.83
86.61
107.52
124.58
132.35
123.33
92.94
43.58
-15.30
-70.86
-112.47
-136.06
-144.71
-144.10
-139.57
-132.67
-120.77
-99.69
-66.98
-23.76
25.78
76.26
123.13
163.33
195.31
218.10
231.53
234.18
224.74
203.84
175.45
146.20
123.00
109.25
104.69
103.85
98.58
82.13
51.95
10.79
-35.58
-81.32
-122.24
-155.55
-180.30
-194.25
-194.91
-181.93
-158.73
-132.46
-111.50
-101.68
-102.16
-106.93
-106.42
-92.41
-61.94
-18.10
31.94
80.36
121.54
152.83
173.15
182.59
183.20
177.26
169.03
164.27
167.97
181.88
202.71
221.38
229.01
219.71
192.68
152.47
106.38
61.33
21.76
-10.69
-36.18
-54.98
-67.33
-73.75
-75.22
-73.36
-70.07
-67.23
-65.90
-66.23
-67.26
-67.78
-67.03
-64.93
-62.05
-59.44
-58.11
-58.61
-60.88
-64.16
-67.52
-70.34
-72.49
-74.35
-76.66
-80.18
-85.42
-92.49
-101.14
-110.93
-121.47
-132.52
-143.86
-155.15
-165.81
-174.82
-180.86
-183.06
-180.16
-171.30
-156.30
-135.80
-111.19
-84.47
-57.93
-33.90
-14.36
-0.70
6.37
6.84
1.40
-8.73
-22.11
-37.15
-52.31
-66.19
-77.49
-85.19
-88.59
-87.26
-81.15
-70.64
-56.51
-39.73
-21.39
-2.34
16.72
35.19
52.52
68.04
80.90
90.07
94.75
94.62
90.34
83.42
76.01
70.27
67.60
68.15
70.83
73.85
75.45
74.85
72.65
70.47
70.21
73.00
78.55
85.23
90.72
93.16
92.11
89.16
87.53
91.25
103.97
127.09
159.41
196.43
230.98
254.67
260.19
243.49
205.67
153.51
98.09
51.90
24.78
20.56
35.75
61.17
85.68
100.80
103.55
96.40
84.75
73.15
63.08
52.95
40.33
24.38
6.81
-8.90
-19.69
-24.54
-24.81
-23.08
-21.16
-18.99
-14.98
-7.62
2.74
13.15
18.85
15.43
0.63
-23.75
-52.31
-78.17
-95.49
-101.46
-96.73
-84.38
-68.23
-51.53
-36.27
-23.34
-13.09
-5.57
-0.68
1.78
2.19
1.14
-0.68
-2.67
-4.37
-5.67
-6.66
-7.51
-8.40
-9.27
-9.87
-9.86
-9.02
-7.08
-3.86
0.92
7.52
16.06
26.71
39.34
53.38
67.40
80.19
89.73
93.81
90.43
77.87
55.31
22.82
-18.53
-66.89
-119.24
-171.73
-220.01
-259.87
-287.81
-301.34
-299.45
-280.44
-246.29
-200.73
-148.31
-93.48
-40.13
8.70
51.20
86.58
114.95
137.13
154.47
168.29
179.62
189.30
196.70
200.57
199.41
191.68
176.49
153.69
123.76
87.60
46.07
0.31
-47.89
-97.52
-147.07
-193.73
-233.85
-263.56
-279.49
-279.85
-264.54
-234.88
-190.36
-134.84
-72.91
-9.09
51.38
105.64
150.53
182.63
199.00
197.92
178.88
143.83
96.40
41.39
-15.36
-68.11
-111.68
-142.53
-159.31
-163.52
-156.97
-141.16
-116.36
-81.85
-37.76
13.51
66.72
116.20
154.04
174.48
175.41
158.94
130.48
96.56
63.37
35.09
13.38
-2.86
-16.61
-32.49
-54.66
-84.78
-121.32
-158.91
-191.48
-214.18
-225.01
-221.79
-204.48
-173.73
-130.51
-76.58
-15.33
48.37
109.38
163.79
210.03
248.01
278.37
301.17
317.01
324.57
322.38
310.16
289.57
263.43
234.55
205.00
175.36
145.20
113.39
78.85
40.32
-2.66
-50.49
-102.67
-156.37
-206.27
-245.56
-268.74
-274.13
-265.14
-248.88
-232.46
-219.36
-207.90
-194.33
-176.78
-158.07
-144.36
-140.77
-146.96
-156.05
-158.29
-147.31
-125.61
-103.76
-95.11
-108.25
-142.36
-187.96
-232.10
-264.52
-276.85
-267.30
-238.25
-193.70
-137.58
-73.44
-4.89
63.73
127.47
181.66
222.48
248.43
260.84
263.20
259.90
254.81
250.21
246.58
242.98
237.76
229.76
218.93
206.13
192.72
179.82
168.00
157.13
146.75
137.10
127.59
118.22
109.52
102.00
95.48
89.02
81.19
70.58
56.45
39.25
20.80
4.11
-7.40
-11.11
-5.64
8.73
30.23
56.30
84.39
112.76
140.64
167.48
192.25
213.06
226.95
230.26
219.69
193.76
153.91
104.23
50.40
-1.70
-47.26
-83.51
-110.02
-128.06
-140.33
-150.12
-160.29
-172.24
-184.92
-194.73
-196.86
-187.72
-167.18
-140.06
-115.11
-102.09
-107.78
-133.11
-172.55
-216.36
-254.70
-280.80
-292.20
-289.16
-272.04
-239.95
-191.24
-126.08
-48.45
33.40
108.58
166.80
200.87
208.09
190.05
152.16
101.79
46.55
-7.24
-55.34
-94.56
-121.19
-129.69
-113.35
-67.67
5.01
92.88
176.37
234.46
252.68
227.99
168.75
89.78
6.23
-70.52
-133.12
-175.92
-193.54
-182.18
-143.30
-86.94
-30.72
5.90
10.64
-15.04
-56.11
-91.28
-103.51
-88.33
-54.84
-19.61
2.40
4.77
-9.64
-33.26
-59.61
-86.14
-112.09
-134.32
-145.23
-135.36
-99.68
-43.39
17.95
64.41
81.26
66.31
30.50
-8.25
-33.66
-37.42
-20.41
10.40
46.67
81.26
108.22
122.03
118.16
95.30
57.41
13.29
-26.75
-54.95
-68.18
-67.19
-53.76
-29.27
4.45
42.42
75.05
90.35
79.51
42.71
-9.03
-57.97
-87.07
-87.78
-63.31
-25.52
11.96
40.27
57.98
69.12
77.88
84.30
83.42
68.33
35.09
-13.53
-68.35
-117.99
-153.80
-172.89
-177.47
-171.36
-156.39
-131.61
-95.16
-47.56
6.55
59.52
103.38
132.50
144.47
139.50
119.38
86.92
46.10
2.23
-38.78
-71.93
-94.19
-104.52
-102.71
-88.49
-61.51
-22.62
24.99
75.45
121.05
154.16
169.23
164.19
140.36
101.68
52.52
-2.37
-57.59
-106.25
-140.31
-151.97
-136.20
-93.02
-28.81
42.97
105.63
143.92
148.74
119.20
61.95
-11.36
-86.77
-150.94
-195.38
-217.55
-221.49
-215.48
-209.08
-209.76
-220.67
-239.60
-251.14
-240.26
-197.67
-126.13
-38.30
50.89
131.24
198.83
253.50
295.59
323.04
335.88
332.55
313.88
283.99
248.88
213.84
182.22
154.83
129.32
102.28
70.29
33.24
-5.65
-41.36
-68.85
-83.95
-83.97
-68.82
-40.58
-4.17
33.83
65.68
84.19
84.79
67.69
38.92
7.95
-15.34
-25.19
-21.82
-11.64
-4.58
-10.44
-35.60
-80.56
-140.43
-205.88
-265.78
-308.69
-324.67
-307.09
-255.69
-178.54
-89.78
-6.08
59.25
99.91
117.79
120.85
118.29
115.32
108.50
92.64
64.26
26.25
-13.67
-47.08
-72.01
-91.31
-109.95
-133.29
-159.71
-184.39
-200.96
-205.50
-197.46
-177.37
-147.86
-114.46
-88.19
-76.91
-84.02
-105.33
-130.66
-145.67
-133.51
-82.90
6.72
120.89
242.26
354.34
445.97
510.01
525.39
479.93
375.81
253.61
133.64
29.20
-55.74
-113.73
-143.01
-149.84
-144.31
-138.26
-139.74
-152.31
-166.63
-166.94
-139.81
-83.73
-10.18
63.79
121.31
151.82
150.81
124.00
81.96
35.55
-7.75
-42.83
-64.92
-71.14
-62.58
-47.28
-34.17
-29.37
-32.16
-34.97
-26.69
1.35
49.66
108.59
161.52
194.44
202.27
189.92
167.64
144.50
124.70
109.13
97.85
92.95
99.61
123.49
166.70
225.44
290.27
348.72
390.68
408.14
395.60
351.40
279.28
189.81
99.41
25.11
-21.18
-33.81
-16.69
19.01
59.69
93.74
114.04
118.74
109.03
75.79
19.82
-47.76
-109.88
-153.06
-174.07
-178.71
-174.17
-162.12
-143.77
-116.33
-78.06
-30.61
20.79
69.50
101.26
108.03
88.94
49.65
1.27
-46.42
-88.26
-123.33
-152.45
-175.83
-191.09
-196.29
-191.93
-179.82
-163.74
-148.21
-136.69
-130.54
-128.86
-128.24
-125.61
-119.84
-111.14
-101.34
-92.82
-87.38
-85.62
-86.91
-89.18
-90.56
-90.33
-88.67
-86.71
-85.83
-86.87
-90.01
-94.76
-99.88
-104.18
-106.90
-107.70
-106.49
-103.96
-99.37
-91.98
-81.18
-66.73
-49.04
-29.25
-8.95
10.21
26.86
40.51
51.23
59.60
66.18
71.14
74.10
74.53
72.18
67.46
61.75
56.99
55.09
57.04
62.32
68.97
74.42
76.72
75.18
71.13
67.25
66.64
71.46
81.89
95.99
110.43
121.79
127.02
123.86
110.93
88.09
57.10
22.50
-8.63
-29.16
-32.79
-18.32
8.79
38.60
61.63
73.54
76.79
77.94
82.20
89.01
91.34
80.05
50.23
5.17
-44.58
-86.27
-110.92
-116.51
-106.67
-86.50
-58.83
-23.64
19.12
65.47
105.62
126.39
116.95
75.15
10.37
-58.30
-108.96
-125.47
-104.00
-54.36
4.10
50.52
70.50
60.43
26.37
-20.59
-69.67
-113.78
-149.01
-172.18
-178.48
-162.05
-119.74
-55.64
16.94
78.63
111.12
105.21
64.92
5.52
-53.15
-94.89
-112.07
-105.71
-81.76
-46.90
-6.58
34.28
69.08
89.58
88.86
65.83
28.15
-9.97
-34.28
-37.83
-24.90
-8.19
-0.92
-8.57
-25.20
-37.51
-33.62
-11.44
19.11
41.97
44.95
27.61
1.52
-17.29
-18.20
-2.00
20.65
36.47
38.27
29.05
19.37
20.14
35.16
58.47
77.48
79.77
59.06
17.38
-36.79
-92.96
-142.24
-179.10
-200.98
-206.80
-195.71
-167.08
-121.58
-62.97
0.96
59.20
99.41
111.25
90.31
40.97
-23.30
-83.16
-119.30
-118.99
-80.16
-12.26
67.27
139.06
187.41
204.04
188.61
147.40
90.79
31.17
-19.57
-52.20
-61.79
-48.75
-18.17
21.31
59.95
87.71
97.54
88.15
63.00
28.29
-8.76
-40.71
-61.86
-69.71
-65.58
-53.75
-39.83
-29.04
-24.29
-26.29
-33.80
-44.75
-57.89
-72.05
-86.35
-99.89
-111.48
-120.47
-127.36
-133.80
-142.22
-153.32
-165.18
-173.18
-170.98
-154.10
-122.25
-79.66
-32.99
12.26
54.20
94.92
136.63
177.88
212.67
233.66
236.82
224.56
205.43
190.41
188.02
198.51
215.31
226.54
220.34
190.20
137.10
68.71
-4.23
-71.36
-125.55
-161.72
-177.57
-173.76
-150.22
-107.18
-47.47
19.71
80.63
121.67
135.74
123.46
94.00
60.30
32.56
14.09
1.81
-9.94
-27.72
-56.05
-96.85
-148.65
-205.29
-255.59
-285.61
-283.72
-246.28
-180.82
-103.89
-34.66
12.60
33.60
33.00
20.32
5.09
-5.89
-8.95
-2.05
16.13
46.26
87.62
136.04
183.63
220.03
235.75
225.44
190.08
136.99
76.34
20.96
-18.18
-35.51
-32.01
-13.89
11.08
35.86
55.16
65.04
63.60
51.49
31.81
11.51
-0.93
1.33
20.24
51.60
86.34
114.22
126.87
119.86
93.19
50.01
-4.11
-61.55
-113.08
-149.91
-166.67
-164.43
-150.67
-135.56
-127.07
-127.02
-130.93
-131.80
-125.38
-113.26
-101.76
-97.27
-101.15
-108.85
-112.90
-108.02
-94.64
-78.24
-65.55
-60.33
-61.09
-62.22
-57.41
-43.07
-19.80
8.34
36.41
61.01
81.35
98.57
114.25
128.80
140.56
146.27
142.73
129.14
108.38
86.31
69.28
60.92
60.61
64.28
67.25
66.87
63.53
59.18
55.12
50.71
43.94
33.62
20.88
8.77
0.28
-3.66
-4.51
-4.66
-5.23
-5.22
-2.42
4.44
14.38
24.48
31.72
35.05
36.04
37.50
41.16
46.22
49.68
48.52
42.19
33.50
27.12
26.68
32.41
40.86
47.12
47.72
42.46
34.08
25.89
19.25
12.70
3.07
-12.14
-33.15
-57.81
-82.96
-105.81
-124.69
-138.98
-148.52
-153.30
-153.31
-148.64
-139.89
-128.42
-116.57
-107.30
-103.16
-104.95
-110.75
-116.30
-116.64
-108.64
-92.54
-71.55
-49.72
-29.40
-10.17
10.05
32.93
58.05
82.83
103.78
117.99
123.98
121.77
112.56
98.52
82.53
67.46
55.23
46.17
39.16
32.72
26.24
20.42
16.22
13.47
10.41
4.91
-3.55
-12.57
-17.75
-15.25
-4.43
11.60
27.94
41.10
51.05
60.39
71.38
83.13
91.36
91.05
80.08
61.49
42.31
29.64
26.69
31.18
37.29
39.44
35.48
27.40
19.29
14.63
14.89
20.16
30.45
45.88
65.38
85.04
98.29
98.68
83.75
57.07
26.69
0.62
-17.76
-30.83
-43.95
-60.87
-80.60
-98.07
-107.72
-107.34
-99.39
-89.11
-81.03
-76.50
-73.95
-70.90
-66.13
-60.63
-56.67
-56.07
-59.03
-63.83
-67.53
-67.28
-61.30
-49.63
-34.26
-18.63
-6.41
-0.23
-0.59
-5.71
-12.47
-17.82
-20.16
-19.58
-17.34
-15.03
-13.71
-13.72
-14.97
-17.48
-21.34
-26.37
-31.63
-35.31
-35.44
-30.83
-21.71
-9.70
2.83
13.76
21.99
27.74
32.09
36.02
39.52
41.35
39.68
33.41
23.36
12.10
2.92
-1.74
-1.34
2.88
8.89
15.11
21.00
26.72
32.27
37.03
39.77
39.43
35.66
28.93
20.24
10.78
1.92
-5.07
-9.21
-10.38
-9.76
-9.40
-11.30
-16.05
-22.15
-26.54
-26.18
-20.03
-10.14
-0.95
3.13
0.37
-6.90
-13.41
-13.73
-5.27
10.53
29.68
48.37
65.46
82.53
101.60
122.50
141.82
154.79
158.29
152.92
142.78
132.76
125.86
121.83
117.94
111.04
99.74
85.29
70.71
58.60
49.05
39.16
24.76
3.27
-24.26
-53.19
-77.82
-94.73
-105.12
-114.15
-127.82
-149.32
-176.97
-205.30
-228.28
-241.85
-244.38
-235.30
-214.05
-180.57
-136.88
-88.15
-41.04
-0.98
30.09
53.63
71.78
84.72
90.00
84.50
67.52
42.48
15.69
-6.73
-21.68
-30.20
-35.84
-41.87
-49.17
-55.97
-59.07
-55.85
-45.40
-28.73
-8.36
13.08
33.61
52.27
68.99
83.37
93.57
96.03
87.40
67.31
40.30
15.02
-0.05
-1.46
6.19
11.90
4.03
-22.77
-63.23
-102.93
-125.04
-119.07
-86.15
-38.28
8.13
40.72
55.96
58.06
53.65
46.07
33.86
13.91
-13.43
-41.46
-59.47
-59.00
-39.68
-10.16
16.37
29.52
27.00
14.63
1.59
-5.37
-5.41
-2.77
-3.16
-9.86
-22.00
-35.53
-45.38
-47.78
-41.38
-27.53
-9.63
8.01
21.33
28.20
28.98
26.09
22.65
20.56
19.86
18.98
16.41
12.21
8.55
8.76
15.29
28.18
44.12
57.64
63.22
57.84
42.73
23.19
6.60
-0.98
2.64
14.61
28.69
38.30
39.67
33.16
22.12
10.44
0.05
-9.57
-20.35
-33.40
-47.61
-60.12
-68.01
-70.36
-68.88
-67.29
-69.03
-75.56
-85.40
-94.72
-99.26
-96.19
-85.40
-69.25
-51.40
-34.95
-21.12
-9.02
3.34
17.29
32.26
45.72
54.69
57.89
57.19
57.10
62.58
75.78
94.50
113.16
125.68
129.55
127.68
127.16
134.90
153.92
181.68
212.06
239.40
261.44
279.42
295.47
309.29
315.82
307.68
278.84
227.81
158.65
79.36
-0.62
-72.82
-131.05
-173.28
-201.33
-221.47
-243.52
-277.69
-330.26
-399.79
-476.57
-545.48
-592.87
-611.40
-603.21
-579.05
-553.68
-539.88
-544.00
-564.55
-585.03
-587.82
-557.92
-488.21
-382.12
-251.85
-113.11
20.44
139.90
240.53
318.51
371.10
397.47
399.97
384.95
361.77
340.07
326.94
325.07
331.62
340.93
347.10
345.99
336.72
322.11
304.93
286.77
267.44
244.76
216.50
181.90
142.34
101.30
63.09
30.88
5.61
-13.75
-29.59
-43.88
-57.51
-70.62
-82.62
-92.52
-99.18
-101.06
-96.87
-86.81
-73.28
-59.12
-49.26
-47.01
-51.29
-56.31
-54.28
-40.16
-15.55
11.44
30.13
33.07
20.79
1.91
-11.83
-12.19
1.19
20.82
35.59
36.68
21.79
-3.63
-29.60
-46.52
-49.69
-40.46
-24.41
-7.78
4.82
11.08
10.57
3.45
-9.65
-26.87
-43.64
-52.70
-46.59
-22.48
14.64
52.91
78.09
79.72
55.54
12.18
-38.78
-82.44
-106.63
-107.11
-87.87
-56.93
-21.59
13.69
46.48
74.71
95.96
107.79
108.95
100.69
86.81
72.30
61.23
55.45
54.33
55.46
55.77
52.82
45.97
36.61
27.29
20.35
16.93
16.66
18.13
19.47
19.07
16.38
12.01
7.26
3.44
1.30
0.86
1.61
2.79
3.58
3.50
2.51
0.92
-0.82
-2.23
-2.92
-2.62
-1.31
0.72
2.89
4.59
5.28
4.84
3.68
2.54
2.31
3.63
6.48
10.22
13.76
16.07
16.72
16.27
15.97
17.24
21.15
27.84
36.36
44.86
50.89
51.69
45.00
29.95
8.29
-15.57
-35.41
-45.49
-43.18
-30.92
-15.30
-3.99
-2.37
-10.82
-25.34
-40.11
-50.54
-55.10
-55.21
-53.52
-52.31
-53.29
-56.89
-63.38
-72.40
-82.80
-91.59
-95.51
-91.67
-78.66
-58.86
-36.12
-15.06
0.92
11.12
17.60
24.26
34.58
48.99
63.83
73.21
71.57
57.12
33.52
7.84
-13.24
-26.82
-34.51
-39.84
-44.14
-45.27
-38.98
-22.70
0.97
24.23
37.79
35.66
17.94
-8.75
-35.32
-53.56
-58.94
-51.10
-32.49
-7.00
20.61
44.60
59.89
63.14
54.85
39.17
21.79
7.37
-2.06
-6.79
-7.46
-2.47
10.19
31.97
60.93
90.83
112.94
119.66
107.88
78.55
40.05
0.55
-33.88
-60.74
-80.04
-92.87
-99.94
-101.12
-96.11
-84.73
-67.92
-46.79
-22.67
3.09
28.93
52.88
72.89
87.15
94.83
95.94
91.79
84.62
77.04
71.23
68.28
67.52
66.37
60.68
46.17
20.24
-16.36
-59.37
-101.85
-136.35
-157.11
-161.79
-152.59
-135.24
-116.88
-102.84
-94.60
-89.40
-81.00
-63.27
-33.05
6.32
45.41
72.94
81.70
72.65
54.30
38.45
34.87
47.73
74.25
107.67
141.18
170.18
191.25
199.84
189.81
156.95
103.32
38.25
-23.47
-66.49
-80.76
-65.68
-28.99
11.84
37.70
40.43
24.94
1.94
-20.71
-40.71
-59.60
-79.55
-100.63
-120.34
-131.50
-127.50
-106.24
-72.14
-34.92
-5.92
5.90
-2.75
-28.35
-62.30
-94.74
-116.99
-123.36
-111.23
-80.81
-35.71
16.26
64.06
96.68
107.17
96.04
71.36
45.91
32.04
36.61
59.02
90.63
117.85
128.82
120.88
99.74
73.00
45.26
17.54
-10.55
-38.67
-64.30
-83.40
-92.36
-90.60
-80.87
-67.88
-56.12
-48.28
-44.76
-43.83
-42.53
-38.20
-30.37
-20.97
-13.15
-9.63
-11.58
-18.20
-26.83
-33.67
-34.87
-28.33
-14.27
5.15
26.91
48.29
67.52
83.75
96.81
106.85
113.47
116.53
116.49
114.39
111.01
105.70
95.50
76.43
46.31
5.41
-41.50
-87.19
-124.70
-150.53
-162.96
-164.11
-157.77
-146.47
-132.73
-118.04
-104.40
-94.15
-88.47
-85.47
-80.40
-67.01
-40.14
-0.82
45.66
91.11
128.23
153.87
169.80
180.21
184.12
187.42
185.43
172.96
146.83
108.08
62.09
16.02
-24.70
-58.37
-85.57
-108.78
-127.49
-138.41
-137.60
-123.54
-99.08
-70.86
-46.18
-28.96
-19.64
-14.38
-8.35
1.32
14.12
26.52
33.99
33.26
24.23
9.15
-7.56
-21.59
-30.39
-33.83
-33.35
-30.63
-26.30
-19.81
-10.68
0.85
13.27
24.29
32.10
36.28
37.75
38.03
38.15
37.90
36.14
31.40
22.55
9.30
-7.52
-25.85
-42.64
-54.61
-59.47
-57.23
-50.44
-43.25
-39.19
-39.07
-40.47
-39.09
-31.46
-17.42
-0.57
13.38
19.48
15.87
4.24
-11.60
-27.86
-42.46
-55.08
-65.90
-74.14
-77.56
-73.56
-61.12
-42.56
-23.31
-9.85
-6.44
-12.65
-22.98
-28.97
-23.15
-2.57
29.62
65.57
96.31
115.36
120.88
115.33
103.58
90.38
78.85
70.30
65.33
64.83
69.55
78.91
90.17
98.83
100.15
91.46
73.70
51.54
31.83
20.23
18.55
23.94
30.32
31.06
21.92
3.09
-20.37
-39.95
-47.80
-40.65
-21.61
1.06
17.32
19.74
6.32
-21.00
-54.04
-81.45
-94.54
-92.01
-79.14
-63.08
-48.07
-34.62
-21.14
-5.90
10.73
26.11
36.79
40.68
37.71
30.57
23.40
20.05
23.10
32.33
44.91
56.34
63.31
62.64
53.99
38.98
19.94
-1.24
-23.22
-44.70
-63.55
-75.33
-77.07
-68.31
-51.96
-33.20
-17.44
-7.53
-2.88
-0.59
1.37
1.77
-3.37
-17.71
-41.82
-72.05
-100.78
-119.48
-122.36
-106.49
-77.44
-44.52
-17.42
0.69
10.76
16.89
24.36
37.23
56.64
79.76
101.05
114.36
115.75
105.07
85.98
64.08
43.93
27.41
13.43
0.46
-11.92
-22.21
-28.24
-28.63
-23.85
-16.29
-9.17
-5.47
-6.23
-10.25
-15.00
-18.02
-17.93
-14.83
-10.12
-5.71
-3.23
-3.22
-5.04
-7.31
-8.69
-8.43
-6.58
-3.89
-1.29
0.38
0.87
0.43
-0.30
-0.74
-0.52
0.38
1.68
3.02
4.09
4.77
5.13
5.34
5.58
5.97
6.51
7.14
7.75
8.12
8.31
8.36
8.33
8.26
8.18
8.11
8.06
8.03
8.04
8.09
8.17
8.27
8.38
8.48
8.55
8.59
8.58
8.50
8.35
8.11
7.77
7.29
6.67
5.86
4.86
3.62
2.19
0.60
-1.10
-2.87
-4.74
-6.73
-8.96
-11.53
-14.52
-17.97
-21.81
-25.97
-30.39
-35.07
-40.06
-45.50
-51.49
-58.15
-65.50
-73.48
-81.99
-91.02
-100.66
-111.12
-122.74
-135.62
-149.58
-163.90
-177.30
-188.04
-194.22
-194.40
-187.35
-172.54
-150.18
-121.03
-86.31
-47.51
-6.41
34.75
73.24
105.99
129.93
142.65
143.15
132.18
112.21
86.67
59.11
32.27
7.69
-14.10
-32.91
-48.10
-58.11
-60.65
-53.37
-34.35
-2.42
42.46
98.69
161.87
224.70
277.75
311.65
320.22
302.99
265.76
218.37
171.05
130.85
100.19
77.74
60.63
46.78
35.62
27.38
21.92
17.98
13.63
7.37
-1.06
-10.53
-19.12
-25.05
-27.63
-27.45
-26.09
-25.30
-26.24
-29.02
-32.57
-35.60
-36.99
-36.28
-33.89
-30.81
-28.16
-26.67
-26.45
-27.01
-27.61
-27.56
-26.57
-24.77
-22.63
-20.68
-19.28
-18.47
-18.07
-17.74
-17.20
-16.30
-15.08
-13.70
-12.38
-11.23
-10.31
-9.59
-9.01
-8.50
-8.02
-7.57
-7.13
-6.72
-6.35
-6.01
-5.69
-5.41
-5.14
-4.89
-4.66
-4.45
-4.25
-4.07
-3.89
-3.72
-3.57
-3.42
-3.29
-3.17
-3.04
-2.93
-2.83
-2.72
-2.63
-2.53
-2.44
-2.36
-2.28
-2.20
-2.12
-2.06
-1.99
-1.92
-1.86
-1.80
-1.75
-1.69
-1.64
-1.59
-1.54
-1.49
-1.45
-1.40
-1.37
-1.33
-1.29
-1.25
-1.21
-1.18
-1.16
-1.13
-1.11
-1.08
-1.03
-0.98
-0.93
-0.92
-0.97
-1.08
-1.23
-1.41
-1.56
-1.64
-1.65
-1.60
-1.51
-1.42
-1.35
-1.33
-1.35
-1.36
-1.35
-1.30
-1.23
-1.22
-1.34
-1.62
-2.02
-2.42
-2.70
-2.72
-2.50
-2.18
-2.01
-2.23
-2.93
-4.05
-5.30
-6.32
-6.82
-6.72
-6.27
-5.89
-6.05
-7.03
-8.71
-10.65
-12.22
-12.91
-12.58
-11.61
-10.74
-10.77
-12.15
-14.73
-17.73
-20.18
-21.31
-20.85
-19.21
-17.26
-15.94
-16.13
-18.47
-23.18
-29.40
-35.07
-36.79
-31.10
-16.09
7.46
36.07
65.03
90.06
108.32
117.97
117.72
106.43
83.61
50.97
12.96
-24.13
-54.20
-73.00
-79.07
-72.91
-56.41
-32.85
-7.25
13.81
23.89
19.18
0.94
-24.37
-46.93
-57.50
-51.10
-28.29
5.48
42.80
76.97
104.11
122.63
132.98
136.36
133.74
125.85
112.81
95.24
74.20
52.85
33.60
18.17
7.20
0.32
-3.37
-5.55
-8.35
-13.50
-21.73
-32.44
-43.84
-53.75
-60.67
-64.13
-64.67
-62.96
-59.11
-52.37
-42.04
-28.25
-12.25
3.72
17.36
26.92
31.52
31.04
25.50
15.35
1.68
-13.75
-29.47
-44.11
-56.79
-67.27
-75.60
-82.17
-87.50
-92.22
-97.01
-102.06
-106.47
-107.69
-102.28
-87.47
-63.03
-32.09
-0.39
26.09
43.28
50.65
50.74
47.24
43.12
39.59
36.45
33.29
30.27
28.14
27.71
29.03
31.14
32.70
32.65
30.79
28.05
25.78
25.06
26.17
28.46
30.67
31.70
31.17
29.60
28.21
28.17
29.90
32.91
35.99
38.03
38.39
37.43
35.99
35.09
35.38
37.15
40.49
45.21
50.27
53.39
51.33
40.66
19.90
-9.24
-41.95
-71.85
-93.56
-104.57
-105.77
-100.42
-92.11
-83.42
-75.61
-69.23
-64.95
-64.12
-68.20
-77.57
-90.27
-101.86
-106.46
-98.92
-77.65
-45.60
-9.75
21.71
42.69
51.56
51.02
46.07
41.17
38.11
36.39
34.28
30.71
26.02
21.71
19.18
18.83
19.84
20.73
20.05
17.25
12.84
8.02
4.10
1.83
1.11
1.13
0.76
-0.83
-3.85
-7.83
-11.95
-15.42
-17.90
-19.59
-21.11
-23.20
-26.42
-30.88
-36.25
-41.94
-47.32
-51.95
-55.52
-57.80
-58.58
-57.68
-54.59
-48.96
-40.59
-29.56
-16.47
-2.19
12.27
26.00
38.45
49.37
58.80
66.87
73.72
79.32
83.41
85.63
85.78
84.06
80.96
77.18
73.44
70.26
67.76
65.67
63.61
61.51
59.58
58.23
57.94
58.96
61.44
65.60
71.69
79.66
88.54
96.27
99.75
96.18
84.43
65.81
43.54
21.11
0.80
-16.99
-33.15
-49.04
-64.88
-79.40
-90.49
-96.44
-96.80
-92.31
-84.14
-72.98
-59.54
-44.15
-27.13
-8.95
9.26
25.68
38.06
43.99
41.35
27.82
1.84
-36.40
-84.83
-139.73
-196.51
-250.17
-295.90
-323.00
-323.54
-295.24
-243.01
-176.97
-108.06
-44.80
8.07
49.05
78.78
97.95
107.66
109.52
105.56
97.95
88.66
79.58
72.39
68.14
66.23
65.53
64.98
63.18
59.38
51.98
39.87
22.86
1.06
-25.64
-56.78
-90.54
-125.02
-158.64
-190.46
-219.79
-245.64
-266.39
-279.20
-279.07
-258.95
-214.62
-147.10
-63.36
26.33
112.29
188.91
249.94
293.94
325.50
349.76
370.02
387.01
400.28
409.60
415.20
417.09
400.42
358.39
292.71
212.51
128.92
50.32
-18.61
-75.99
-121.74
-156.49
-179.24
-190.91
-194.58
-194.31
-193.64
-194.25
-196.10
-198.01
-198.97
-195.25
-184.64
-167.11
-144.08
-117.23
-87.46
-54.71
-18.87
17.94
54.39
88.51
118.00
141.35
158.31
169.48
175.15
174.70
167.43
154.65
138.93
123.21
109.00
95.24
78.84
56.92
29.16
-0.95
-27.07
-43.73
-49.10
-45.57
-37.94
-30.51
-25.06
-20.93
-16.48
-10.75
-4.48
0.87
3.76
3.66
0.96
-3.02
-7.01
-10.18
-12.30
-13.85
-15.42
-17.27
-19.39
-20.93
-21.06
-19.24
-15.41
-9.96
-3.96
1.80
7.00
11.72
16.84
23.26
31.69
42.48
55.48
69.62
83.90
97.50
109.32
119.33
127.17
132.55
135.34
135.66
133.09
127.89
120.76
111.48
102.18
92.85
82.68
69.82
57.30
45.85
35.90
27.94
20.01
15.17
13.13
13.20
14.63
17.00
19.44
21.84
24.93
26.02
30.44
37.71
46.48
55.19
62.56
67.34
69.40
69.65
64.35
59.81
53.51
42.16
23.14
-4.67
-41.74
-88.18
-112.44
-153.96
-202.95
-256.76
-309.13
-350.76
-373.03
-373.08
-355.37
-328.98
-307.89
-291.86
-287.74
-297.86
-320.09
-349.54
-381.37
-411.21
-434.61
-450.59
-451.72
-445.93
-442.41
-446.94
-460.48
-482.04
-510.96
-547.09
-591.19
-589.25
-512.47
-366.52
-187.12
-13.43
129.79
233.50
298.99
333.06
347.63
345.12
327.07
296.96
260.96
225.42
195.69
173.73
161.51
160.02
162.50
163.28
161.12
159.52
162.91
174.76
195.56
223.74
255.95
285.06
306.13
319.71
332.37
346.64
367.48
396.85
432.21
465.88
485.70
481.54
449.97
395.86
330.12
267.22
220.30
199.07
208.08
245.61
303.99
370.70
430.81
470.43
481.86
464.82
425.87
374.94
321.04
269.12
219.56
170.02
117.34
59.73
-3.54
-70.30
-134.88
-188.94
-223.34
-233.13
-219.92
-191.90
-161.12
-139.55
-134.73
-147.91
-174.50
-205.66
-230.97
-239.52
-222.47
-175.97
-104.86
-21.72
56.51
114.29
143.61
144.47
124.09
92.77
59.09
24.80
-10.92
-48.33
-85.38
-116.77
-141.39
-160.25
-175.38
-189.08
-207.52
-232.85
-261.60
-285.84
-293.62
-283.43
-258.96
-226.09
-191.90
-170.85
-172.33
-197.63
-240.38
-285.35
-330.15
-376.70
-427.02
-483.13
-555.97
-650.65
-763.51
-882.88
-987.11
-1072.99
-1145.17
-1211.31
-1201.11
-1076.28
-846.83
-566.04
-348.56
-191.27
-73.72
17.61
106.58
195.19
268.59
316.15
336.95
340.43
347.24
359.99
381.86
407.93
429.15
425.28
391.66
333.74
267.13
214.27
182.89
174.99
189.67
224.01
272.42
326.32
375.54
413.24
441.62
459.51
466.88
464.17
451.72
428.66
396.02
356.69
316.00
281.40
254.86
236.22
223.20
212.52
200.75
185.99
168.25
149.84
138.02
132.32
131.41
132.20
130.64
123.41
108.48
86.23
59.67
33.39
11.48
-2.35
-6.69
-2.46
7.23
17.27
22.25
18.29
4.60
-16.67
-40.52
-62.13
-79.71
-92.39
-102.51
-113.86
-128.99
-146.90
-162.58
-167.91
-155.27
-120.83
-66.67
-1.38
62.84
114.09
144.27
150.69
136.15
106.83
69.81
30.88
-7.43
-44.21
-77.84
-104.18
-116.55
-107.35
-71.03
-7.12
78.50
172.76
260.15
327.25
365.98
374.55
356.18
317.43
266.06
209.32
150.09
90.23
32.46
-18.87
-59.41
-86.62
-100.47
-103.40
-99.33
-96.81
-102.21
-116.63
-136.17
-155.34
-170.59
-180.96
-187.61
-192.80
-204.80
-230.16
-270.16
-320.66
-376.00
-432.32
-488.05
-543.52
-563.92
-529.39
-446.01
-342.08
-245.21
-169.11
-115.64
-80.99
-58.89
-41.69
-26.55
-10.26
11.28
41.22
77.81
114.43
143.42
160.73
167.48
164.27
153.67
139.19
127.51
124.16
131.65
148.84
171.62
193.48
204.55
197.84
173.18
137.66
101.34
72.69
55.72
50.37
53.81
60.45
65.39
66.58
65.45
64.72
67.20
73.56
82.77
92.55
98.32
95.48
80.19
50.69
6.58
-51.33
-120.38
-194.88
-259.75
-297.40
-297.43
-265.44
-218.56
-175.08
-146.62
-135.78
-137.89
-147.80
-160.16
-170.38
-175.63
-173.32
-160.67
-135.13
-95.19
-40.41
27.35
98.92
164.77
217.10
252.77
273.14
281.92
282.88
278.40
278.53
280.99
285.30
291.44
299.67
310.07
322.54
337.28
355.37
366.61
352.48
307.97
238.48
156.76
76.27
6.13
-49.99
-92.40
-123.76
-146.88
-161.39
-167.53
-166.60
-160.96
-153.26
-145.75
-139.92
-136.72
-136.00
-135.12
-132.33
-127.25
-120.70
-114.03
-108.46
-104.76
-103.42
-104.15
-105.21
-105.47
-104.77
-103.48
-102.07
-100.78
-99.38
-97.50
-95.06
-90.41
-82.50
-71.19
-56.99
-40.84
-23.89
-7.18
8.23
21.57
32.62
41.35
48.01
53.05
56.95
59.94
62.11
63.05
62.13
58.73
52.27
42.68
30.28
15.72
-0.34
-17.04
-33.59
-49.30
-63.37
-74.96
-83.24
-87.52
-87.57
-84.25
-79.13
-74.30
-72.45
-75.29
-82.82
-93.04
-102.18
-105.54
-98.82
-78.99
-44.81
3.29
61.08
122.10
178.95
225.65
259.23
279.81
288.97
288.39
279.20
262.56
240.21
214.86
189.75
167.75
150.69
139.20
133.09
131.20
131.27
129.63
121.51
102.59
71.08
29.29
-16.43
-57.83
-88.06
-104.31
-108.27
-104.48
-97.37
-89.48
-81.24
-72.20
-62.40
-52.89
-45.18
-40.07
-37.15
-34.64
-30.49
-23.31
-13.35
-2.32
7.80
15.08
18.64
18.77
16.55
12.99
8.29
1.78
-7.81
-21.47
-39.34
-60.44
-82.86
-104.17
-122.22
-135.74
-144.18
-147.54
-145.81
-138.75
-126.03
-108.05
-86.07
-62.60
-41.12
-25.08
-17.24
-19.46
-32.56
-54.74
-83.64
-114.42
-140.30
-154.50
-152.90
-136.06
-109.60
-81.93
-60.79
-50.35
-50.44
-56.16
-61.78
-62.93
-57.46
-44.94
-25.65
0.01
31.17
65.64
99.99
130.99
156.18
174.32
185.80
192.11
195.07
195.92
195.38
193.44
190.31
186.23
181.77
177.89
175.85
176.98
181.75
190.87
199.96
203.67
196.45
174.82
139.30
94.91
49.57
11.06
-15.97
-31.21
-37.31
-38.19
-36.88
-34.51
-30.75
-25.00
-17.32
-8.94
-1.18
5.71
12.44
20.20
30.13
42.61
57.19
72.87
88.01
101.52
113.22
123.45
132.55
140.41
146.07
147.54
146.31
142.30
135.64
126.88
116.59
105.12
92.48
78.50
63.25
47.51
32.03
18.02
6.32
-3.26
-11.99
-21.78
-34.15
-49.32
-65.78
-81.30
-93.55
-101.72
-107.25
-113.41
-123.66
-139.83
-160.84
-183.13
-203.26
-219.68
-233.79
-248.43
-265.10
-281.92
-294.03
-296.74
-288.88
-274.14
-258.55
-246.40
-237.16
-226.52
-210.46
-189.65
-170.40
-160.90
-164.84
-177.08
-185.00
-175.32
-142.45
-93.01
-43.30
-10.82
-5.15
-23.19
-51.88
-76.51
-89.57
-94.97
-105.03
-131.95
-179.05
-236.81
-286.47
-308.98
-294.18
-245.34
-176.58
-105.63
-45.78
-1.90
29.24
54.67
80.77
110.92
145.46
182.30
217.54
245.94
261.69
260.67
243.60
217.67
194.55
185.67
196.01
220.50
245.82
256.57
243.27
206.87
157.55
107.84
65.13
27.77
-12.01
-60.66
-116.39
-168.20
-201.40
-206.69
-186.12
-152.42
-121.88
-106.09
-107.64
-122.15
-143.38
-167.59
-193.97
-221.43
-245.43
-258.08
-252.05
-226.01
-187.15
-148.66
-123.27
-117.21
-127.66
-145.14
-158.51
-159.85
-146.82
-122.60
-93.57
-66.63
-46.89
-36.45
-34.24
-36.94
-40.25
-40.42
-35.36
-24.90
-10.38
6.51
24.98
45.40
68.47
94.25
121.18
146.34
166.06
177.27
178.52
170.47
155.97
139.09
123.77
112.58
106.03
102.99
101.72
101.15
101.15
101.93
103.13
103.29
100.70
94.66
86.41
78.60
73.79
72.61
73.27
72.56
68.00
59.74
51.03
46.90
51.84
68.11
94.82
128.57
164.42
196.91
221.02
233.59
234.68
228.15
220.41
217.56
222.61
234.35
248.71
261.70
271.81
280.36
289.87
301.71
314.94
326.98
335.74
341.15
345.18
350.00
355.98
360.76
360.25
350.66
330.28
300.30
264.04
225.72
189.07
156.42
128.37
104.28
82.92
63.21
44.87
28.13
13.66
2.39
-4.55
-5.85
-0.26
12.94
33.30
58.79
85.49
108.28
121.94
122.30
107.23
76.73
32.72
-21.93
-84.08
-150.99
-220.66
-291.98
-364.84
-439.68
-516.30
-592.53
-663.30
-720.90
-757.21
-766.73
-749.00
-709.18
-656.08
-598.86
-544.33
-495.74
-453.52
-417.12
-386.41
-361.89
-344.02
-332.10
-324.03
-317.06
-308.81
-298.16
-285.37
-271.82
-258.94
-247.55
-237.61
-228.23
-218.37
-207.08
-194.30
-181.01
-168.82
-159.09
-152.62
-149.07
-147.40
-146.27
-144.25
-140.41
-134.56
-127.12
-118.70
-109.85
-100.64
-90.88
-80.30
-67.87
-52.88
-35.37
-16.17
3.45
21.93
38.56
53.03
65.47
78.72
95.35
116.41
141.10
167.55
192.90
216.27
237.33
256.23
278.39
308.41
347.75
394.20
443.58
490.07
532.24
569.89
603.42
641.22
689.89
750.86
820.24
892.18
959.19
1020.06
1073.10
1113.63
1144.00
1163.68
1168.34
1152.16
1112.77
1050.23
975.38
899.48
770.53
565.51
297.92
13.98
-237.53
-407.00
-513.93
-582.39
-629.95
-666.23
-689.17
-692.32
-673.61
-639.05
-599.06
-567.37
-548.42
-543.97
-555.22
-575.64
-599.56
-623.28
-642.61
-650.67
-643.97
-619.61
-581.97
-540.78
-501.37
-468.38
-439.33
-412.77
-388.57
-369.27
-354.34
-342.74
-332.87
-319.80
-299.47
-270.04
-233.70
-195.19
-160.77
-134.43
-118.08
-111.87
-113.80
-121.38
-132.38
-146.00
-162.01
-180.34
-199.80
-218.31
-233.49
-243.21
-246.02
-241.13
-228.85
-209.92
-185.18
-155.49
-121.46
-83.77
-43.31
-1.03
42.43
86.68
131.67
177.57
224.10
270.41
315.17
356.88
394.03
424.83
446.76
456.85
452.78
434.15
403.34
365.13
325.04
287.27
253.39
222.57
193.02
163.76
135.71
111.38
93.75
84.60
83.49
87.57
92.34
93.25
87.16
73.49
54.41
33.61
14.52
-0.94
-12.69
-21.49
-27.55
-29.76
-25.95
-14.18
6.10
33.35
64.66
97.08
128.80
159.51
189.70
219.51
247.68
271.60
288.10
294.98
292.09
281.60
267.10
251.91
237.62
223.39
206.31
183.00
151.33
111.94
68.32
25.68
-11.08
-39.06
-58.08
-70.00
-77.18
-81.29
-82.88
-82.02
-79.14
-75.32
-71.65
-68.44
-64.75
-58.87
-49.51
-36.78
-22.25
-8.27
3.17
11.21
16.04
18.39
18.88
17.72
14.75
9.84
3.10
-5.09
-14.22
-23.76
-33.41
-43.08
-52.91
-62.98
-73.09
-82.51
-90.04
-94.28
-94.09
-89.40
-81.47
-72.75
-65.78
-62.16
-61.85
-63.50
-65.23
-65.50
-64.04
-61.71
-59.67
-58.45
-57.60
-55.95
-52.18
-45.03
-32.84
-14.78
8.74
35.84
63.50
88.49
108.25
121.83
130.20
137.39
147.04
161.08
179.40
200.52
222.77
244.53
264.40
281.10
296.24
310.79
324.88
337.86
348.88
357.21
361.78
361.16
353.65
341.02
323.68
300.43
269.16
228.68
180.25
127.39
75.10
8.18
-75.77
-167.85
-251.91
-314.96
-353.32
-370.14
-370.65
-358.95
-338.27
-308.13
-269.83
-227.36
-186.93
-155.52
-137.32
-134.10
-142.94
-156.84
-164.80
-157.54
-131.64
-91.17
-46.31
-6.77
21.12
34.95
36.51
26.60
4.78
-28.72
-72.08
-123.24
-178.11
-232.41
-283.74
-321.86
-344.03
-351.48
-346.63
-318.16
-261.84
-180.88
-85.49
-0.24
73.30
136.65
190.62
237.06
273.57
293.91
294.28
275.40
242.63
205.42
168.69
135.16
105.11
77.88
48.81
15.93
-18.19
-46.79
-61.13
-58.63
-40.61
-13.40
15.47
33.13
29.66
1.31
-48.03
-108.30
-169.39
-220.55
-256.62
-277.14
-294.69
-324.90
-378.85
-457.05
-549.84
-643.72
-723.79
-782.98
-775.94
-677.13
-493.07
-262.04
-28.29
180.25
341.27
467.89
568.02
644.43
691.05
703.62
683.22
637.82
578.48
514.13
451.49
389.98
328.72
262.95
190.65
114.53
41.77
-19.78
-65.77
-94.81
-112.64
-124.72
-137.32
-153.08
-170.20
-183.42
-187.05
-178.14
-156.56
-129.55
-104.28
-86.88
-79.95
-82.63
-92.05
-104.98
-119.49
-134.80
-156.32
-188.08
-231.63
-285.77
-348.17
-416.10
-485.62
-550.67
-603.00
-639.60
-657.74
-655.85
-634.69
-598.47
-553.82
-506.96
-461.66
-385.99
-268.72
-121.23
28.62
155.12
246.79
304.99
337.25
351.71
354.37
343.72
318.59
281.07
236.72
192.15
152.51
120.65
97.41
80.85
65.84
48.68
28.70
8.22
-9.66
-22.98
-31.43
-35.89
-38.03
-41.65
-49.48
-61.89
-77.02
-92.17
-105.10
-114.21
-118.15
-119.02
-119.10
-120.20
-123.20
-128.08
-134.64
-143.17
-154.24
-168.40
-186.01
-206.75
-229.57
-252.43
-272.50
-286.54
-291.67
-285.56
-266.61
-234.35
-189.03
-132.10
-66.03
5.95
80.25
153.19
221.36
281.88
332.55
372.20
400.44
417.44
423.92
420.86
409.40
390.59
365.39
334.45
298.45
257.93
213.32
165.20
114.35
61.83
8.94
-42.78
-91.70
-136.01
-174.09
-204.73
-227.15
-241.10
-246.90
-245.38
-237.71
-225.25
-209.44
-191.54
-172.66
-153.61
-134.86
-116.65
-98.99
-81.75
-64.69
-47.74
-30.88
-14.35
1.46
16.13
29.20
40.40
49.62
57.00
62.75
67.10
70.20
72.05
72.64
72.04
70.55
68.73
67.39
67.33
69.18
73.23
79.28
86.94
95.75
105.57
116.66
129.60
144.98
163.15
183.80
206.08
228.84
250.93
271.65
290.90
309.06
326.93
345.53
365.76
387.93
411.27
433.57
451.34
460.65
458.36
443.36
417.13
383.36
346.79
311.67
280.59
254.20
231.59
211.15
191.49
171.91
152.47
133.73
116.36
100.80
87.12
75.11
64.56
55.39
47.58
41.02
35.22
29.33
22.45
14.10
4.63
-4.72
-12.39
-17.15
-18.68
-17.68
-15.48
-13.25
-11.43
-9.66
-7.01
-2.68
3.53
11.17
19.28
26.92
33.59
39.25
44.17
48.52
52.05
54.05
53.51
49.44
41.32
29.47
15.04
-0.27
-14.67
-26.82
-35.97
-41.76
-43.88
-41.85
-35.27
-24.27
-9.98
5.56
19.98
31.31
38.76
42.74
44.54
45.58
46.99
49.35
52.65
56.29
59.10
59.69
56.89
50.56
41.81
32.77
25.94
22.98
24.06
27.60
30.75
30.00
22.22
5.75
-18.71
-47.48
-74.40
-92.52
-96.72
-85.94
-64.10
-38.97
-19.04
-10.44
-14.80
-29.58
-50.02
-71.80
-92.55
-111.79
-130.00
-147.58
-164.60
-181.35
-198.67
-217.46
-237.46
-255.59
-265.62
-259.55
-230.81
-178.06
-107.23
-30.54
37.74
86.75
113.08
121.50
122.00
124.61
134.64
150.59
165.82
172.44
165.15
142.85
108.06
65.00
18.29
-27.49
-67.37
-96.05
-109.25
-105.44
-87.19
-61.16
-36.24
-20.88
-20.66
-36.55
-64.75
-97.96
-127.34
-145.12
-147.17
-134.66
-113.57
-92.36
-78.34
-74.79
-80.35
-90.93
-103.04
-116.33
-133.72
-158.75
-192.02
-228.97
-260.62
-276.98
-271.15
-241.88
-193.29
-132.17
-64.96
3.55
69.31
127.18
169.96
189.81
181.31
144.49
86.27
19.02
-43.27
-89.10
-112.37
-113.25
-96.66
-70.02
-40.57
-13.54
8.55
25.92
40.90
56.69
75.84
99.15
125.14
150.76
172.75
188.80
198.06
200.61
196.49
185.16
166.11
140.06
109.97
80.99
58.78
47.25
47.13
55.82
69.14
83.44
97.00
109.80
122.07
132.39
137.03
130.64
108.46
69.16
16.47
-41.27
-93.66
-132.00
-152.36
-156.88
-152.36
-147.69
-150.33
-163.66
-185.70
-209.71
-226.54
-227.60
-207.97
-168.07
-113.93
-55.53
-4.08
31.17
45.42
39.26
18.18
-9.58
-35.74
-54.46
-63.38
-63.35
-57.02
-47.26
-36.28
-25.70
-17.27
-13.19
-15.65
-25.77
-42.79
-64.38
-87.39
-108.95
-126.73
-139.18
-145.26
-144.10
-135.13
-118.32
-94.49
-65.35
-33.06
0.92
35.02
67.62
97.06
122.16
142.52
158.60
171.53
182.46
193.36
204.83
215.98
225.22
231.47
234.87
236.66
238.39
240.99
246.23
253.85
261.53
266.23
266.01
261.18
253.97
247.12
242.29
241.64
243.84
244.30
237.33
218.58
186.92
144.30
94.27
24.82
-64.98
-165.47
-260.16
-334.51
-382.38
-404.89
-406.71
-393.12
-369.15
-336.43
-297.20
-255.28
-215.24
-181.25
-155.97
-139.82
-130.46
-123.09
-109.81
-85.07
-50.53
-11.81
21.59
41.10
42.76
28.82
6.18
-15.62
-29.16
-33.53
-29.99
-20.78
-7.44
8.76
25.94
41.33
52.74
58.40
58.04
54.30
51.07
51.92
58.29
69.38
82.48
94.65
103.18
105.94
101.32
86.70
58.96
16.17
-44.87
-126.67
-225.30
-333.14
-439.82
-533.61
-603.72
-641.90
-645.02
-615.09
-557.62
-480.09
-391.19
-299.31
-211.06
-130.60
-58.68
4.74
60.78
111.86
160.87
208.98
255.86
301.09
345.20
389.98
433.17
468.37
486.51
478.25
436.02
357.24
246.31
114.22
-23.05
-153.47
-269.68
-367.87
-437.23
-466.08
-450.08
-397.73
-339.16
-286.94
-246.12
-216.98
-192.63
-166.04
-131.34
-86.27
-33.05
22.60
75.57
119.45
150.68
170.31
182.62
192.26
202.34
214.46
229.53
249.64
274.13
300.54
325.63
345.64
357.02
357.12
345.26
323.46
296.73
270.05
247.89
233.53
227.76
228.65
232.13
234.00
231.87
226.67
221.25
219.07
222.40
230.69
240.61
247.20
245.64
232.67
207.43
170.56
123.48
68.00
5.65
-62.17
-133.99
-208.34
-283.67
-358.26
-429.65
-493.80
-544.38
-573.77
-575.64
-548.24
-496.98
-434.34
-376.64
-338.55
-327.54
-340.94
-367.46
-392.31
-403.23
-395.12
-370.51
-336.83
-302.21
-271.93
-247.40
-227.51
-210.63
-196.05
-184.21
-175.24
-167.53
-157.43
-140.22
-112.11
-71.86
-21.31
35.28
92.26
144.21
186.91
217.84
236.37
243.48
241.28
232.32
218.83
202.28
183.62
163.73
143.86
125.86
111.68
102.72
99.05
99.25
101.03
102.16
101.49
99.13
96.35
94.86
96.16
100.77
108.08
116.55
124.16
129.02
129.85
126.29
118.74
108.16
95.66
82.19
68.39
54.62
41.09
28.10
16.00
4.97
-4.97
-13.99
-22.28
-29.92
-36.87
-42.98
-48.01
-51.98
-55.17
-58.11
-61.26
-64.70
-67.99
-70.23
-70.29
-67.03
-59.78
-48.55
-33.93
-16.88
1.46
19.87
37.16
52.26
64.79
74.50
81.12
84.31
83.75
79.31
71.22
60.15
47.31
35.08
25.45
19.45
16.91
17.07
19.25
23.28
29.62
39.10
53.57
73.36
97.22
123.29
150.89
181.08
215.69
255.15
296.66
336.12
367.27
383.86
381.99
361.11
322.95
270.19
205.81
123.21
27.15
-67.45
-141.67
-182.68
-189.92
-173.77
-149.08
-127.07
-112.45
-103.13
-95.82
-88.72
-82.52
-80.15
-85.08
-99.65
-124.55
-158.00
-195.60
-233.16
-267.24
-294.24
-303.98
-287.69
-243.09
-178.84
-110.30
-52.01
-12.67
5.76
9.78
7.13
3.44
4.12
8.11
13.62
18.80
23.98
28.21
31.49
36.23
45.52
60.77
77.87
94.39
109.43
122.14
132.25
138.02
136.75
124.82
99.96
61.78
14.16
-36.72
-86.92
-134.36
-181.06
-230.19
-284.51
-344.08
-407.33
-469.47
-524.66
-570.71
-591.06
-575.19
-521.53
-438.94
-340.73
-238.64
-145.31
-53.76
41.85
143.19
246.07
345.61
433.30
502.80
539.83
536.48
494.64
423.54
337.86
249.93
167.91
95.51
36.75
-10.80
-46.16
-66.48
-71.44
-62.15
-41.91
-14.33
16.91
48.59
76.88
99.80
115.91
123.25
121.17
110.58
94.35
76.10
59.34
45.76
36.68
32.24
31.43
32.97
35.64
38.37
39.82
38.57
33.13
23.32
9.88
-5.73
-21.86
-37.02
-50.16
-60.67
-67.88
-71.18
-69.82
-63.97
-55.11
-45.85
-38.90
-35.78
-36.23
-38.33
-39.65
-38.41
-34.24
-28.05
-21.32
-15.13
-9.84
-5.30
-1.26
2.12
4.40
5.20
4.56
3.09
1.75
1.47
2.52
4.57
6.77
8.22
8.48
7.66
6.28
4.95
4.04
3.42
2.76
1.64
-0.11
-2.40
-4.91
-7.25
-9.17
-10.65
-11.91
-13.20
-14.77
-16.56
-18.36
-19.80
-20.50
-20.32
-19.33
-17.86
-16.23
-14.77
-13.62
-12.87
-12.61
-12.90
-13.74
-14.94
-16.15
-16.89
-16.82
-15.86
-14.20
-12.21
-10.28
-8.68
-7.42
-6.40
-5.49
-4.71
-4.20
-4.30
-5.31
-7.43
-10.78
-15.16
-20.32
-25.99
-31.95
-38.10
-44.36
-50.46
-55.87
-59.95
-62.19
-62.67
-62.15
-61.88
-63.22
-67.12
-73.91
-83.32
-94.79
-107.68
-121.41
-135.20
-147.95
-158.48
-165.72
-168.95
-167.61
-161.11
-148.45
-128.53
-100.85
-66.39
-28.28
8.55
38.43
56.73
61.11
52.41
34.25
11.98
-8.67
-22.85
-27.40
-21.26
-5.35
17.98
45.81
75.44
104.77
132.53
158.16
181.51
202.66
221.65
238.49
252.99
264.72
273.04
277.22
276.75
271.60
262.35
250.08
235.86
220.41
203.85
185.73
165.49
142.67
117.33
89.96
61.54
33.25
6.39
-17.93
-38.82
-55.85
-69.07
-78.92
-86.08
-91.28
-95.08
-97.77
-99.46
-100.05
-99.45
-97.60
-94.56
-90.56
-86.02
-81.60
-78.22
-76.98
-79.02
-85.07
-94.96
-107.36
-119.86
-129.35
-132.72
-127.71
-113.36
-90.34
-60.94
-28.65
2.47
28.68
47.42
57.82
60.71
58.17
52.65
46.21
40.05
34.38
28.47
20.90
10.01
-5.48
-25.77
-49.68
-74.91
-98.59
-118.07
-131.47
-137.94
-137.59
-131.46
-121.07
-108.04
-93.38
-76.86
-56.83
-30.73
3.52
46.32
95.70
147.69
197.60
241.27
275.95
300.14
313.32
315.27
305.93
285.62
255.18
216.35
171.85
125.46
81.73
45.23
19.29
4.68
-0.97
-2.39
-4.80
-11.82
-23.97
-38.94
-53.02
-62.90
-66.79
-64.38
-56.07
-42.17
-22.82
1.56
29.55
58.67
85.78
108.26
124.71
135.21
141.02
143.56
143.53
140.38
132.40
117.51
94.40
63.49
27.18
-10.55
-45.29
-73.21
-91.95
-100.84
-100.64
-93.21
-81.10
-67.21
-54.32
-44.83
-40.22
-40.90
-46.15
-54.42
-63.79
-72.42
-78.95
-82.71
-83.80
-82.92
-81.09
-79.30
-78.11
-77.63
-77.53
-77.36
-76.70
-75.29
-72.95
-69.57
-65.14
-59.75
-53.74
-47.56
-41.78
-36.85
-32.93
-29.91
-27.45
-25.29
-23.29
-21.60
-20.44
-19.92
-19.93
-20.09
-19.90
-18.99
-17.24
-14.79
-11.97
-9.14
-6.52
-4.23
-2.25
-0.55
0.89
2.10
3.09
3.88
4.47
4.97
5.44
6.00
6.65
7.30
7.75
7.63
6.62
4.53
1.46
-2.33
-6.34
-10.17
-13.50
-16.29
-18.79
-21.29
-24.01
-26.89
-29.61
-31.66
-32.72
-32.75
-32.10
-31.36
-31.00
-31.18
-31.60
-31.75
-31.02
-29.17
-26.31
-23.05
-20.43
-19.59
-21.34
-25.74
-31.98
-38.41
-43.25
-44.96
-42.80
-36.89
-28.00
-17.18
-5.38
6.75
19.09
32.18
47.30
66.07
89.47
116.93
145.71
171.51
189.85
197.81
195.14
184.01
167.70
148.78
128.40
106.01
80.69
52.04
21.11
-9.90
-38.33
-61.98
-79.89
-92.25
-100.60
-106.94
-113.04
-119.77
-126.94
-133.60
-138.75
-142.11
-144.42
-147.22
-151.97
-158.98
-166.73
-172.14
-171.51
-161.83
-142.08
-113.49
-79.04
-42.25
-6.01
27.75
57.83
82.86
101.06
110.38
109.78
100.17
84.86
68.48
55.21
47.08
43.15
40.40
35.50
26.85
15.34
3.96
-3.78
-5.47
-0.58
9.77
23.64
38.90
53.69
66.21
74.81
78.28
76.21
69.50
59.99
49.97
41.10
33.99
28.24
23.12
18.25
13.88
10.92
10.31
12.68
17.91
24.99
32.35
38.25
41.45
41.49
38.73
33.85
27.27
18.99
8.78
-3.15
-15.76
-27.16
-35.35
-38.97
-37.79
-32.61
-24.66
-15.05
-4.55
6.09
15.87
23.63
28.37
29.83
28.70
26.43
24.45
23.62
24.01
25.14
26.70
29.02
33.15
40.11
49.92
60.84
69.50
72.09
66.07
51.70
32.32
13.21
-0.49
-5.86
-3.28
3.93
10.89
13.07
7.47
-7.04
-30.05
-60.13
-94.76
-130.16
-161.50
-184.03
-194.75
-194.22
-187.17
-181.30
-184.11
-199.15
-223.81
-249.84
-266.86
-266.85
-247.67
-213.54
-172.48
-132.46
-98.28
-70.74
-48.01
-27.99
-9.91
5.51
17.18
24.86
29.56
32.97
36.30
39.53
41.29
39.65
33.05
21.38
6.48
-7.98
-17.45
-18.12
-8.41
10.14
33.28
55.63
72.70
82.45
85.45
83.99
80.61
77.08
74.07
71.69
70.09
69.78
71.41
75.24
80.80
86.97
92.42
96.12
97.93
98.80
100.64
105.79
116.07
131.89
151.71
172.23
189.43
199.97
202.23
196.64
185.14
170.01
153.01
134.90
115.74
95.41
73.96
51.70
28.83
5.38
-18.95
-44.47
-71.37
-99.53
-128.15
-155.91
-180.76
-200.21
-211.65
-213.18
-204.21
-185.87
-160.80
-132.26
-103.37
-76.16
-51.36
-28.38
-5.70
18.66
46.55
78.99
115.49
153.65
189.40
217.99
235.33
239.17
229.60
208.76
179.87
146.30
110.92
75.93
43.12
13.83
-10.95
-30.85
-46.19
-57.90
-67.14
-74.87
-81.45
-86.62
-89.90
-90.84
-89.41
-85.95
-81.18
-75.79
-70.35
-65.18
-60.43
-56.13
-52.23
-48.65
-45.33
-42.29
-39.61
-37.48
-36.03
-35.25
-34.95
-34.82
-34.54
-33.95
-33.11
-32.20
-31.47
-31.05
-30.88
-30.69
-30.17
-28.97
-26.92
-24.03
-20.42
-16.41
-12.34
-8.56
-5.36
-2.88
-1.17
-0.12
0.33
0.34
-0.03
-0.67
-1.47
-2.22
-2.71
-2.71
-2.04
-0.78
0.78
2.17
3.00
3.07
2.48
1.46
0.30
-0.82
-1.90
-2.96
-4.04
-5.03
-5.83
-6.33
-6.59
-6.82
-7.20
-7.76
-8.31
-8.44
-7.77
-6.08
-3.54
-0.59
2.14
4.11
5.10
5.18
4.69
3.93
3.14
2.36
1.55
0.70
-0.02
-0.34
0.04
1.22
3.00
4.95
6.55
7.39
7.32
6.47
5.12
3.53
1.93
0.45
-0.86
-2.00
-2.99
-3.90
-4.80
-5.72
-6.64
-7.34
-7.58
-7.10
-5.73
-3.51
-0.70
2.29
4.97
6.91
7.92
8.04
7.48
6.63
5.80
5.18
4.77
4.45
4.13
3.81
3.59
3.53
3.59
3.58
3.25
2.51
1.44
0.28
-0.67
-1.31
-1.81
-2.44
-3.41
-4.74
-6.22
-7.56
-8.53
-9.02
-9.00
-8.47
-7.37
-5.68
-3.43
-0.81
1.94
4.54
6.80
8.60
9.87
10.56
10.57
9.92
8.73
7.34
6.10
5.29
5.02
5.24
5.73
6.16
6.29
5.97
5.16
3.96
2.53
1.05
-0.28
-1.34
-2.13
-2.72
-3.20
-3.67
-4.20
-4.80
-5.45
-6.08
-6.51
-6.50
-5.83
-4.37
-2.18
0.50
3.27
5.75
7.65
8.93
9.72
10.23
10.62
10.90
10.99
10.72
10.01
8.96
7.80
6.86
6.38
6.45
7.04
8.01
9.18
10.46
11.82
13.26
14.84
16.51
18.15
19.53
20.38
20.42
19.45
17.34
14.07
9.79
4.83
-0.30
-4.91
-8.27
-9.92
-9.78
-8.31
-6.27
-4.50
-3.54
-3.58
-4.39
-5.58
-6.70
-7.45
-7.65
-7.24
-6.23
-4.75
-2.95
-1.02
0.85
2.55
4.06
5.43
6.66
7.68
8.31
8.36
7.70
6.40
4.71
3.09
1.90
1.35
1.40
1.73
1.99
1.86
1.19
0.10
-1.07
-1.97
-2.13
-1.25
0.81
3.91
7.60
11.30
14.30
16.07
16.35
15.21
12.98
10.17
7.23
4.51
2.18
0.30
-1.10
-1.92
-2.13
-1.74
-0.89
0.15
1.05
1.53
1.44
0.79
-0.30
-1.70
-3.33
-5.21
-7.38
-9.82
-12.40
-14.92
-17.09
-18.68
-19.55
-19.63
-18.95
-17.64
-15.87
-13.85
-11.78
-9.76
-7.84
-6.05
-4.43
-3.08
-2.15
-1.70
-1.65
-1.82
-1.92
-1.72
-1.14
-0.28
0.66
1.53
2.26
2.89
3.56
4.36
5.30
6.27
7.11
7.62
7.71
7.34
6.55
5.51
4.36
3.30
2.31
1.31
0.09
-1.53
-3.59
-5.86
-7.93
-9.33
-9.65
-8.85
-7.12
-4.91
-2.69
-0.83
0.52
1.40
1.91
2.26
2.56
2.88
3.20
3.47
3.65
3.73
3.78
3.95
4.39
5.15
6.08
6.86
7.06
6.31
4.42
1.32
-2.82
-7.64
-12.68
-17.40
-21.47
-25.05
-28.89
-34.33
-42.72
-54.76
-69.79
-85.69
-99.26
-107.26
-107.42
-99.25
-84.07
-64.43
-43.35
-23.56
-7.00
5.13
12.33
14.66
12.65
7.37
0.48
-6.07
-10.27
-10.51
-5.86
3.78
17.71
34.66
52.94
70.75
86.37
98.37
105.87
108.73
107.56
103.46
97.70
91.32
84.90
78.49
72.02
65.33
58.40
51.27
43.97
36.62
29.54
23.34
18.76
16.50
16.78
19.17
22.68
26.17
28.74
29.86
29.28
26.78
22.15
15.38
7.09
-1.18
-7.22
-8.68
-4.11
6.47
21.21
37.12
51.04
60.83
66.10
68.04
68.91
70.72
74.36
78.91
82.03
80.89
73.39
59.07
39.14
16.21
-6.66
-26.68
-42.13
-52.64
-59.54
-65.86
-75.77
-92.78
-117.34
-145.18
-167.81
-175.50
-161.66
-126.34
-76.75
-24.39
19.83
49.68
65.01
69.91
69.26
65.49
57.60
42.42
17.02
-19.47
-65.48
-117.75
-172.41
-225.49
-273.12
-311.37
-336.26
-344.19
-332.88
-302.06
-253.75
-191.76
-121.14
-47.41
23.93
88.03
141.30
181.92
210.07
227.44
236.39
238.89
236.03
228.24
215.92
199.90
181.61
162.65
144.28
127.12
111.13
95.79
80.45
64.55
47.63
29.46
10.05
-10.39
-31.46
-52.69
-73.50
-93.30
-111.83
-129.33
-146.77
-165.40
-185.94
-207.74
-228.38
-244.16
-251.17
-246.86
-230.75
-204.42
-170.61
-132.17
-91.62
-51.16
-12.85
21.75
52.16
79.51
106.08
134.05
163.84
193.33
218.37
234.54
239.18
232.51
217.21
196.78
173.77
148.95
121.73
91.35
57.98
23.13
-10.76
-41.14
-66.39
-86.25
-101.74
-114.37
-125.24
-134.34
-140.75
-143.31
-141.52
-136.01
-128.09
-118.70
-107.48
-92.84
-73.05
-47.82
-19.00
10.15
36.74
60.03
81.68
104.43
129.97
157.21
182.34
200.33
207.13
201.27
184.11
159.00
129.84
100.13
72.41
48.14
27.73
10.72
-4.00
-17.81
-31.92
-47.21
-64.13
-82.66
-102.16
-121.33
-138.26
-150.94
-158.06
-159.58
-156.68
-151.02
-143.76
-134.85
-123.38
-108.55
-90.65
-71.42
-53.26
-37.98
-25.86
-15.72
-5.83
4.90
16.36
27.35
36.28
41.98
43.97
42.46
38.00
31.18
22.69
13.30
3.74
-5.27
-12.90
-17.75
-17.89
-11.33
2.92
24.08
49.57
76.20
101.76
125.98
150.32
176.28
203.49
228.67
246.23
250.17
236.26
203.33
153.27
90.36
20.15
-51.01
-116.43
-169.55
-204.97
-219.63
-213.84
-191.60
-159.80
-126.48
-98.74
-80.88
-73.73
-75.00
-80.52
-85.86
-87.64
-84.24
-75.81
-63.62
-49.37
-34.68
-20.91
-9.02
0.47
7.37
11.86
14.31
15.21
15.08
14.53
14.32
15.56
19.39
26.70
37.65
51.33
65.95
79.35
89.72
96.02
98.18
96.73
92.51
86.55
80.10
74.75
72.29
74.20
81.08
92.16
105.21
117.03
124.37
124.85
117.69
103.81
85.42
65.23
45.68
28.33
13.68
1.36
-9.60
-20.46
-32.54
-46.99
-64.51
-85.03
-107.71
-130.80
-151.87
-168.34
-178.09
-180.02
-174.41
-162.61
-146.62
-128.52
-109.93
-91.87
-74.91
-59.37
-45.57
-33.83
-24.35
-17.02
-11.33
-6.46
-1.57
3.85
9.85
16.01
21.73
26.49
30.06
32.56
34.39
35.94
37.49
39.15
41.01
43.19
45.86
49.19
53.07
57.16
60.72
62.81
62.65
59.79
54.45
47.37
39.68
32.45
26.51
22.24
19.67
18.64
18.91
20.27
22.54
25.43
28.50
31.24
33.15
33.89
33.40
31.82
29.40
26.38
22.93
19.08
14.87
10.33
5.52
0.67
-3.98
-8.18
-11.76
-14.55
-16.46
-17.35
-17.17
-16.04
-14.13
-11.83
-9.58
-7.71
-6.41
-5.69
-5.38
-5.30
-5.35
-5.45
-5.64
-6.01
-6.58
-7.34
-8.12
-8.68
-8.80
-8.36
-7.41
-6.20
-5.09
-4.35
-4.16
-4.45
-5.04
-5.70
-6.25
-6.53
-6.48
-6.08
-5.35
-4.41
-3.49
-2.85
-2.74
-3.24
-4.18
-5.22
-5.94
-5.93
-5.07
-3.46
-1.47
0.43
1.84
2.60
2.77
2.68
2.68
3.01
3.62
4.26
4.66
4.65
4.27
3.82
3.53
3.54
3.79
4.05
4.11
3.78
3.07
2.04
0.89
-0.19
-1.03
-1.56
-1.82
-1.97
-2.24
-2.82
-3.81
-5.12
-6.62
-8.07
-9.26
-9.98
-10.03
-9.40
-8.08
-6.28
-4.21
-2.15
-0.26
1.32
2.52
3.29
3.54
3.30
2.63
1.74
0.85
0.12
-0.39
-0.70
-0.87
-0.93
-0.90
-0.80
-0.71
-0.65
-0.73
-0.96
-1.34
-1.81
-2.34
-2.88
-3.36
-3.70
-3.79
-3.63
-3.31
-2.99
-2.83
-2.94
-3.30
-3.87
-4.53
-5.18
-5.70
-6.00
-5.91
-5.34
-4.23
-2.65
-0.82
0.95
2.37
3.27
3.69
3.82
3.86
3.92
3.91
3.62
2.84
1.52
-0.05
-1.47
-2.33
-2.47
-2.02
-1.23
-0.40
0.36
1.07
1.77
2.40
2.80
2.74
2.11
1.04
-0.24
-1.36
-2.08
-2.34
-2.22
-1.90
-1.52
-1.14
-0.75
-0.38
-0.09
0.02
-0.14
-0.57
-1.13
-1.55
-1.59
-1.05
0.03
1.43
2.90
4.18
5.17
5.83
6.19
6.15
5.63
4.50
2.79
0.74
-1.30
-3.00
-4.10
-4.63
-4.68
-4.42
-3.97
-3.39
-2.73
-2.13
-1.76
-1.79
-2.34
-3.31
-4.54
-5.79
-6.84
-7.54
-7.88
-7.80
-7.37
-6.76
-6.15
-5.78
-5.81
-6.26
-6.97
-7.67
-8.05
-7.87
-7.01
-5.41
-3.10
-0.16
3.20
6.67
9.89
12.62
14.70
16.13
17.01
17.34
17.15
16.44
15.29
13.93
12.65
11.75
11.36
11.38
11.50
11.37
10.62
9.08
6.81
4.06
1.21
-1.37
-3.48
-5.10
-6.33
-7.26
-7.92
-8.24
-8.14
-7.64
-6.90
-6.13
-5.50
-5.02
-4.47
-3.62
-2.28
-0.54
1.29
2.78
3.58
3.53
2.78
1.68
0.64
-0.09
-0.47
-0.63
-0.75
-0.96
-1.28
-1.66
-2.00
-2.27
-2.49
-2.70
-2.91
-3.04
-3.03
-2.87
-2.61
-2.30
-2.02
-1.78
-1.56
-1.34
-1.11
-0.93
-0.97
-1.36
-2.18
-3.37
-4.77
-6.18
-7.32
-7.91
-7.67
-6.50
-4.48
-1.96
0.58
2.66
3.94
4.36
4.13
3.62
3.15
2.90
2.87
2.93
2.97
2.90
2.71
2.43
2.16
1.92
1.73
1.59
1.42
1.17
0.79
0.22
-0.53
-1.36
-2.14
-2.73
-3.03
-3.12
-3.13
-3.13
-3.14
-3.08
-2.87
-2.55
-2.29
-2.27
-2.62
-3.33
-4.15
-4.78
-4.96
-4.57
-3.63
-2.28
-0.66
1.06
2.72
4.20
5.33
6.05
6.26
5.96
5.17
3.97
2.56
1.21
0.24
-0.17
0.07
0.79
1.75
2.68
3.41
3.88
4.09
4.08
3.75
3.08
2.04
0.73
-0.67
-1.89
-2.73
-3.16
-3.30
-3.46
-3.88
-4.69
-5.75
-6.73
-7.23
-6.89
-5.61
-3.56
-1.11
1.27
3.17
4.27
4.48
3.82
2.50
0.74
-1.16
-2.94
-4.37
-5.28
-5.56
-5.22
-4.39
-3.26
-2.09
-1.03
-0.15
0.55
1.12
1.55
1.80
1.85
1.72
1.45
1.15
0.89
0.62
0.25
-0.40
-1.44
-2.84
-4.48
-6.15
-7.60
-8.56
-8.84
-8.25
-6.82
-4.71
-2.27
0.05
1.85
2.89
3.16
2.79
2.05
1.18
0.38
-0.23
-0.59
-0.70
-0.60
-0.36
-0.09
0.15
0.31
0.38
0.28
-0.07
-0.70
-1.56
-2.50
-3.31
-3.89
-4.22
-4.42
-4.61
-4.85
-5.09
-5.24
-5.22
-5.05
-4.80
-4.53
-4.30
-4.00
-3.59
-2.99
-2.21
-1.32
-0.44
0.31
0.83
1.05
1.00
0.73
0.32
-0.14
-0.55
-0.83
-0.92
-0.78
-0.43
0.06
0.55
0.92
1.05
0.96
0.72
0.45
0.21
0.00
-0.27
-0.72
-1.37
-2.18
-3.00
-3.69
-4.21
-4.68
-5.25
-6.06
-7.06
-8.01
-8.60
-8.57
-7.88
-6.68
-5.24
-3.83
-2.58
-1.54
-0.66
0.04
0.46
0.52
0.12
-0.71
-1.87
-3.15
-4.29
-5.07
-5.32
-4.98
-4.12
-2.95
-1.70
-0.72
-0.13
0.04
-0.06
-0.19
-0.13
0.24
0.97
2.07
3.44
4.94
6.37
7.47
8.07
8.11
7.71
7.12
6.57
6.27
6.29
6.67
7.40
8.55
10.07
11.79
13.36
14.33
14.38
13.49
11.94
10.20
8.71
7.69
7.07
6.60
6.01
5.08
3.81
2.24
0.46
-1.45
-3.43
-5.40
-7.21
-8.75
-9.90
-10.59
-10.82
-10.60
-10.04
-9.27
-8.51
-7.95
-7.76
-7.99
-8.61
-9.45
-10.29
-10.88
-11.04
-10.67
-9.82
-8.66
-7.40
-6.20
-5.12
-4.05
-2.86
-1.50
-0.03
1.38
2.52
3.28
3.70
3.90
4.02
4.14
4.27
4.30
4.23
4.07
3.96
4.06
4.47
5.15
5.95
6.67
7.06
6.95
6.23
4.94
3.18
1.11
-1.09
-3.29
-5.33
-7.00
-8.11
-8.41
-7.74
-6.05
-3.49
-0.33
3.08
6.36
9.19
11.33
12.67
13.16
12.90
12.02
10.69
9.06
7.26
5.41
3.60
1.89
0.23
-1.49
-3.46
-5.67
-7.98
-10.06
-11.51
-12.01
-11.33
-9.44
-6.30
-1.98
3.33
9.11
14.71
19.40
22.71
24.62
25.54
26.09
26.86
28.10
29.65
31.11
32.00
31.89
30.47
27.66
23.57
18.51
12.89
7.14
1.52
-3.94
-9.47
-15.37
-21.82
-28.88
-36.34
-43.82
-50.89
-57.25
-62.78
-67.57
-71.80
-75.71
-79.45
-83.05
-86.43
-89.42
-91.74
-93.05
-92.88
-90.83
-86.64
-80.31
-72.02
-62.12
-50.86
-38.34
-24.56
-9.50
6.57
23.04
39.01
53.53
65.87
75.62
82.69
87.20
89.28
89.01
86.59
82.31
76.77
70.65
64.49
58.40
52.01
44.74
36.06
25.98
15.14
4.60
-4.55
-11.51
-16.12
-18.63
-19.53
-19.27
-18.08
-16.01
-13.17
-9.82
-6.34
-3.18
-0.60
1.34
2.87
4.38
6.22
8.55
11.37
14.48
17.64
20.59
23.11
25.05
26.36
27.10
27.35
27.34
27.23
27.15
27.06
26.80
26.17
25.07
23.56
21.85
20.31
19.21
18.61
18.34
18.06
17.44
16.32
14.77
13.02
11.39
10.06
9.12
8.51
8.17
7.97
7.89
7.82
7.65
7.22
6.35
4.89
2.82
0.29
-2.39
-4.85
-6.84
-8.24
-9.16
-9.85
-10.51
-11.22
-11.77
-11.81
-10.98
-9.14
-6.41
-3.10
0.35
3.70
6.92
10.17
13.75
17.77
22.09
26.19
29.43
31.15
31.07
29.39
26.70
23.80
21.30
19.29
17.20
13.99
8.48
-0.21
-12.43
-27.73
-44.91
-61.96
-76.35
-85.45
-87.13
-80.58
-66.79
-48.51
-29.61
-13.83
-3.66
0.22
-1.11
-5.66
-11.35
-16.59
-20.34
-21.90
-20.64
-16.00
-7.84
3.12
14.88
24.47
28.92
26.28
16.45
1.31
-15.83
-31.15
-41.50
-45.36
-42.95
-35.57
-24.48
-10.39
6.69
26.76
49.08
71.56
90.76
102.95
105.62
98.85
84.94
67.53
50.09
35.20
24.22
17.40
14.51
15.31
20.39
29.99
43.59
59.64
76.24
91.64
104.27
112.91
116.75
116.59
113.24
107.04
97.56
84.35
67.23
45.89
19.75
-11.86
-48.19
-88.51
-132.12
-178.27
-225.23
-267.69
-298.25
-310.52
-309.41
-298.48
-279.43
-249.19
-207.20
-155.35
-97.95
-41.27
8.15
45.62
70.79
85.74
93.53
96.46
96.15
93.56
88.95
82.27
73.67
64.60
56.36
49.60
44.00
39.12
34.77
30.88
27.30
23.81
20.65
17.77
14.84
11.26
6.78
1.65
-3.77
-9.13
-14.22
-18.65
-22.14
-24.52
-25.82
-26.05
-25.24
-23.51
-21.16
-18.55
-15.92
-13.43
-11.13
-8.96
-6.78
-4.44
-1.83
0.92
3.55
5.67
6.93
7.19
6.57
5.35
3.85
2.33
0.90
-0.41
-1.58
-2.60
-3.42
-3.97
-4.31
-4.60
-5.08
-5.99
-7.37
-9.13
-11.02
-12.81
-14.28
-15.33
-15.90
-15.93
-15.29
-13.83
-11.54
-8.60
-5.41
-2.51
-0.38
0.80
1.14
1.01
0.92
1.16
1.75
2.49
3.10
3.46
3.82
4.53
5.95
8.19
10.92
13.52
15.33
15.85
14.87
12.54
9.20
5.27
1.21
-2.58
-5.80
-8.31
-10.22
-11.93
-13.97
-16.82
-20.56
-24.81
-28.68
-31.04
-30.91
-27.80
-21.87
-13.87
-4.97
3.59
10.79
16.01
19.12
20.44
20.53
19.95
19.17
18.28
17.25
15.94
14.25
12.22
9.98
7.70
5.47
3.44
1.71
0.42
-0.36
-0.72
-0.93
-1.32
-2.13
-3.44
-5.04
-6.58
-7.73
-8.25
-8.14
-7.54
-6.78
-6.19
-6.17
-6.97
-8.62
-10.83
-12.97
-14.22
-13.81
-11.37
-7.07
-1.59
4.14
9.24
13.21
15.92
17.50
18.10
17.77
16.54
14.55
12.19
10.08
8.87
8.97
10.35
12.50
14.75
16.47
17.33
17.26
16.48
15.32
14.14
13.16
12.47
11.99
11.57
11.01
10.18
9.08
7.70
6.02
3.97
1.43
-1.63
-5.07
-8.54
-11.65
-14.00
-15.31
-15.32
-13.87
-10.83
-6.32
-0.76
5.14
10.59
14.91
17.83
19.53
20.49
21.13
21.63
21.93
21.87
21.41
20.82
20.66
21.55
23.94
27.86
32.93
38.47
43.61
47.50
49.40
48.80
45.48
39.51
31.14
20.65
8.32
-5.55
-20.39
-35.19
-48.52
-58.61
-63.98
-63.81
-58.24
-48.37
-35.96
-22.90
-10.92
-1.32
5.17
8.40
8.79
7.20
4.74
2.39
0.91
0.57
1.22
2.47
3.86
5.12
6.20
7.33
8.82
10.97
13.87
17.28
20.68
23.37
24.71
24.34
22.17
18.46
13.69
8.34
2.89
-2.32
-6.98
-10.86
-13.74
-15.58
-16.51
-16.94
-17.33
-18.04
-19.05
-19.92
-19.89
-18.25
-14.67
-9.44
-3.52
1.90
5.79
7.69
7.85
7.04
6.11
5.67
5.81
6.17
6.17
5.34
3.51
0.81
-2.36
-5.62
-8.57
-10.99
-12.74
-13.71
-13.79
-12.92
-11.12
-8.51
-5.41
-2.16
0.82
3.30
5.21
6.68
7.82
8.85
9.81
10.64
11.21
11.32
10.91
10.01
8.78
7.39
6.00
4.66
3.31
1.88
0.36
-1.09
-2.24
-2.81
-2.63
-1.67
-0.14
1.63
3.33
4.72
5.77
6.53
7.09
7.45
7.57
7.35
6.73
5.85
4.85
3.97
3.39
3.10
3.04
3.02
2.91
2.57
1.99
1.16
0.16
-0.92
-2.00
-3.04
-4.07
-5.16
-6.38
-7.76
-9.32
-11.09
-12.99
-14.93
-16.77
-18.31
-19.36
-19.69
-19.10
-17.50
-14.98
-11.76
-8.26
-4.91
-2.04
0.26
2.15
3.89
5.69
7.58
9.43
10.96
12.00
12.43
12.31
11.79
11.12
10.50
10.08
9.89
9.73
9.41
8.73
7.60
6.13
4.59
3.21
2.22
1.70
1.61
1.84
2.12
2.13
1.61
0.57
-0.60
-1.13
-0.23
2.47
6.60
11.02
14.22
14.90
12.56
7.62
1.20
-5.38
-11.03
-15.08
-17.29
-17.59
-16.07
-12.95
-8.66
-3.91
0.46
3.70
5.46
5.77
5.03
3.75
2.23
0.58
-1.32
-3.51
-5.90
-8.21
-10.08
-11.27
-11.70
-11.49
-10.82
-9.94
-9.01
-8.17
-7.52
-7.08
-6.78
-6.52
-6.25
-5.94
-5.75
-5.79
-6.07
-6.39
-6.39
-5.67
-4.10
-1.87
0.64
2.94
4.76
6.06
6.99
7.74
8.39
8.86
8.98
8.55
7.44
5.65
3.32
0.78
-1.46
-2.89
-3.12
-2.08
-0.05
2.46
4.97
7.23
9.20
10.97
12.52
13.62
13.88
12.89
10.46
6.64
1.80
-3.55
-8.82
-13.47
-17.03
-19.22
-19.80
-18.73
-16.03
-11.81
-6.30
0.06
6.70
12.89
17.94
21.38
23.10
23.28
22.36
20.79
18.79
16.44
13.68
10.51
7.08
3.65
0.52
-2.09
-4.10
-5.56
-6.57
-7.30
-7.88
-8.47
-9.22
-10.16
-11.14
-11.93
-12.31
-12.24
-11.92
-11.76
-12.15
-13.31
-15.10
-17.12
-18.88
-19.99
-20.25
-19.59
-18.08
-15.78
-12.77
-9.17
-5.22
-1.27
2.30
5.17
7.18
8.37
8.88
8.98
8.91
8.83
8.78
8.69
8.43
7.87
7.02
5.98
4.94
4.05
3.41
2.99
2.74
2.57
2.45
2.37
2.34
2.44
2.69
3.18
3.91
4.89
6.02
7.16
8.17
8.90
9.32
9.45
9.42
9.51
10.01
11.17
13.00
15.25
17.54
19.37
20.36
20.35
19.41
17.75
15.61
13.21
10.66
8.10
5.62
3.35
1.39
-0.09
-0.98
-1.14
-0.61
0.45
1.71
2.72
3.08
2.53
1.06
-1.22
-4.12
-7.44
-11.08
-14.85
-18.61
-22.07
-24.91
-26.94
-28.09
-28.57
-28.63
-28.55
-28.41
-28.07
-27.29
-25.78
-23.50
-20.60
-17.54
-14.78
-12.70
-11.39
-10.64
-10.03
-9.13
-7.65
-5.50
-2.86
-0.04
2.62
4.87
6.66
8.02
9.07
9.89
10.58
11.24
12.00
12.90
13.87
14.60
14.56
13.21
10.32
6.10
1.26
-3.26
-6.68
-8.66
-9.42
-9.50
-9.47
-9.60
-9.85
-9.95
-9.63
-8.89
-7.89
-6.93
-6.21
-5.72
-5.21
-4.44
-3.29
-1.89
-0.58
0.29
0.55
0.23
-0.30
-0.60
-0.28
0.83
2.64
4.88
7.26
9.57
11.58
13.14
14.03
13.97
12.84
10.70
7.93
5.07
2.71
1.16
0.49
0.50
0.82
1.10
1.07
0.64
-0.13
-0.93
-1.35
-0.93
0.62
3.24
6.59
10.03
13.02
15.26
16.77
17.76
18.42
18.69
18.33
17.04
14.66
11.29
7.36
3.40
-0.15
-3.02
-5.22
-6.92
-8.29
-9.45
-10.52
-11.50
-12.38
-13.13
-13.77
-14.32
-14.84
-15.40
-16.00
-16.68
-17.37
-18.03
-18.58
-18.95
-19.05
-18.75
-17.89
-16.38
-14.18
-11.36
-8.13
-4.82
-1.74
0.78
2.49
3.33
3.37
2.82
2.02
1.30
0.88
0.89
1.27
1.84
2.41
2.81
2.97
2.92
2.77
2.61
2.56
2.67
2.89
3.13
3.23
3.00
2.35
1.27
-0.11
-1.52
-2.73
-3.62
-4.28
-4.93
-5.86
-7.09
-8.35
-9.10
-8.77
-7.06
-4.09
-0.42
3.22
6.18
8.16
9.19
9.52
9.38
8.85
7.91
6.54
4.84
3.08
1.61
0.72
0.47
0.68
1.02
1.21
1.12
0.81
0.46
0.25
0.20
0.20
0.04
-0.50
-1.51
-2.91
-4.47
-5.89
-6.90
-7.46
-7.65
-7.73
-7.94
-8.33
-8.80
-9.05
-8.84
-7.99
-6.54
-4.59
-2.31
0.10
2.44
4.41
5.71
6.17
5.87
5.14
4.42
4.04
4.05
4.27
4.40
4.27
3.91
3.50
3.19
2.97
2.66
2.04
1.01
-0.33
-1.73
-3.00
-4.07
-5.04
-6.09
-7.38
-8.94
-10.67
-12.40
-13.91
-15.06
-15.78
-16.10
-16.14
-16.11
-16.09
-16.04
-15.68
-14.59
-12.33
-8.73
-4.01
1.31
6.52
11.01
14.45
16.81
18.30
19.11
19.38
19.11
18.28
16.96
15.33
13.64
12.13
10.99
10.26
9.91
9.84
9.97
10.14
10.20
10.01
9.47
8.54
7.34
6.00
4.65
3.46
2.48
1.74
1.19
0.73
0.22
-0.43
-1.31
-2.37
-3.54
-4.69
-5.70
-6.50
-7.06
-7.32
-7.24
-6.76
-5.78
-4.28
-2.38
-0.25
1.85
3.61
4.90
5.70
6.12
6.34
6.52
6.64
6.63
6.37
5.82
5.09
4.37
3.84
3.60
3.59
3.65
3.65
3.41
2.92
2.15
1.14
-0.05
-1.33
-2.62
-3.83
-4.85
-5.63
-6.09
-6.27
-6.22
-6.14
-6.20
-6.62
-7.42
-8.35
-9.02
-8.97
-7.92
-5.95
-3.48
-1.09
0.77
1.87
2.36
2.53
2.64
2.80
2.95
3.03
2.98
2.91
2.89
2.91
2.84
2.54
1.95
1.16
0.40
-0.16
-0.39
-0.36
-0.25
-0.20
-0.25
-0.38
-0.58
-0.88
-1.36
-2.04
-2.93
-3.89
-4.79
-5.50
-5.91
-6.03
-5.80
-5.19
-4.15
-2.70
-0.99
0.74
2.23
3.28
3.87
4.03
3.86
3.46
2.92
2.33
1.89
1.73
1.95
2.48
3.08
3.50
3.51
3.14
2.50
1.86
1.32
0.91
0.52
0.06
-0.46
-0.99
-1.42
-1.76
-2.12
-2.68
-3.54
-4.67
-5.88
-6.91
-7.57
-7.82
-7.81
-7.72
-7.61
-7.37
-6.72
-5.40
-3.36
-0.83
1.73
3.86
5.21
5.74
5.61
5.13
4.56
4.07
3.75
3.61
3.72
4.04
4.55
5.08
5.47
5.57
5.28
4.62
3.70
2.73
1.88
1.34
1.12
1.13
1.20
1.07
0.63
-0.18
-1.28
-2.52
-3.78
-5.02
-6.31
-7.72
-9.24
-10.59
-11.36
-11.18
-9.84
-7.50
-4.59
-1.68
0.84
2.79
4.29
5.51
6.54
7.29
7.61
7.47
6.94
6.25
5.63
5.25
5.11
5.15
5.26
5.34
5.31
5.18
4.93
4.55
4.06
3.47
2.82
2.13
1.41
0.69
0.02
-0.52
-0.93
-1.22
-1.54
-2.03
-2.86
-4.03
-5.37
-6.59
-7.38
-7.54
-7.03
-6.04
-4.75
-3.37
-1.98
-0.62
0.67
1.81
2.72
3.32
3.56
3.47
3.12
2.58
1.98
1.37
0.81
0.37
0.06
-0.04
0.12
0.54
1.12
1.69
2.05
2.08
1.76
1.24
0.68
0.24
-0.06
-0.31
-0.60
-0.96
-1.38
-1.80
-2.20
-2.64
-3.20
-3.86
-4.47
-4.79
-4.55
-3.66
-2.15
-0.29
1.60
3.25
4.40
4.90
4.66
3.74
2.33
0.75
-0.69
-1.72
-2.29
-2.51
-2.53
-2.46
-2.29
-2.03
-1.71
-1.39
-1.16
-1.00
-0.79
-0.39
0.22
0.90
1.38
1.38
0.83
-0.14
-1.19
-2.04
-2.51
-2.60
-2.46
-2.21
-1.97
-1.79
-1.69
-1.69
-1.80
-1.95
-1.97
-1.68
-0.87
0.48
2.18
3.93
5.40
6.36
6.78
6.74
6.35
5.74
5.02
4.28
3.59
2.98
2.43
1.87
1.20
0.44
-0.29
-0.75
-0.78
-0.36
0.34
1.03
1.46
1.54
1.33
0.99
0.65
0.28
-0.21
-0.94
-1.89
-2.94
-3.90
-4.60
-4.92
-4.97
-4.83
-4.65
-4.41
-4.01
-3.22
-1.87
0.04
2.30
4.45
6.03
6.71
6.51
5.65
4.47
3.34
2.35
1.53
0.80
0.16
-0.34
-0.59
-0.61
-0.56
-0.65
-1.05
-1.74
-2.53
-3.09
-3.25
-3.01
-2.53
-2.13
-1.98
-2.13
-2.43
-2.72
-2.87
-2.85
-2.77
-2.71
-2.83
-3.11
-3.55
-3.95
-4.12
-3.87
-3.06
-1.75
-0.11
1.54
2.92
3.83
4.24
4.24
4.02
3.69
3.29
2.77
2.06
1.16
0.21
-0.57
-1.00
-0.99
-0.64
-0.15
0.26
0.43
0.35
0.08
-0.29
-0.72
-1.19
-1.66
-2.06
-2.25
-2.16
-1.81
-1.35
-1.00
-0.92
-1.17
-1.67
-2.24
-2.65
-2.63
-2.02
-0.77
1.01
3.04
4.97
6.51
7.47
7.81
7.62
6.95
5.81
4.27
2.42
0.52
-1.15
-2.37
-3.10
-3.45
-3.61
-3.70
-3.72
-3.63
-3.36
-2.98
-2.58
-2.25
-2.01
-1.81
-1.56
-1.23
-0.88
-0.64
-0.66
-0.95
-1.43
-1.93
-2.25
-2.23
-1.77
-0.89
0.34
1.73
3.07
4.14
4.76
4.85
4.46
3.80
3.11
2.64
2.49
2.65
3.01
3.41
3.71
3.80
3.62
3.18
2.56
1.87
1.25
0.76
0.36
-0.03
-0.54
-1.21
-1.93
-2.51
-2.79
-2.71
-2.31
-1.79
-1.35
-1.15
-1.25
-1.53
-1.86
-2.07
-2.06
-1.76
-1.19
-0.31
0.82
2.14
3.53
4.84
5.90
6.48
6.37
5.43
3.75
1.56
-0.78
-2.85
-4.38
-5.18
-5.26
-4.75
-3.89
-2.88
-1.94
-1.29
-0.99
-1.08
-1.44
-1.92
-2.44
-3.06
-3.79
-4.66
-5.56
-6.28
-6.76
-7.01
-7.14
-7.31
-7.56
-7.74
-7.58
-6.92
-5.69
-4.10
-2.44
-0.92
0.40
1.56
2.63
3.63
4.45
5.01
5.25
5.17
4.89
4.57
4.35
4.31
4.45
4.68
4.92
5.03
4.94
4.59
3.98
3.24
2.47
1.78
1.19
0.68
0.15
-0.48
-1.26
-2.23
-3.31
-4.40
-5.38
-6.21
-6.84
-7.33
-7.70
-7.90
-7.84
-7.39
-6.46
-5.07
-3.40
-1.71
-0.27
0.75
1.35
1.59
1.58
1.35
0.87
0.08
-0.93
-1.99
-2.74
-2.83
-2.01
-0.24
2.29
5.20
8.15
10.82
13.09
14.96
16.60
18.14
19.73
21.39
23.03
24.39
25.13
24.88
23.52
21.20
18.39
15.69
13.58
12.24
11.49
10.79
9.47
6.95
2.82
-3.05
-10.49
-18.96
-27.42
-34.48
-38.68
-38.93
-34.90
-27.22
-17.25
-6.69
2.91
10.47
15.60
18.40
19.33
18.91
17.55
15.52
12.95
9.89
6.44
2.79
-0.87
-4.30
-7.47
-10.38
-12.99
-15.17
-16.73
-17.51
-17.53
-17.05
-16.37
-15.86
-15.68
-15.73
-15.78
-15.55
-14.82
-13.59
-12.04
-10.40
-8.96
-7.90
-7.25
-6.94
-6.80
-6.68
-6.48
-6.26
-6.07
-5.97
-5.98
-6.03
-6.12
-6.22
-6.35
-6.55
-6.86
-7.20
-7.52
-7.78
-7.98
-8.17
-8.33
-8.42
-8.39
-8.19
-7.80
-7.33
-6.91
-6.65
-6.57
-6.56
-6.41
-5.88
-4.84
-3.26
-1.25
0.99
3.21
5.20
6.84
8.15
9.21
10.14
11.04
11.98
12.90
13.62
13.90
13.57
12.58
11.16
9.74
8.88
9.03
10.35
12.59
15.22
17.71
19.73
21.31
22.75
24.50
26.91
30.11
33.94
38.01
41.88
45.28
48.24
51.06
54.20
57.92
61.97
65.52
67.40
66.61
62.96
57.25
50.89
45.39
41.74
39.86
38.69
36.46
31.27
21.87
8.13
-8.84
-26.76
-42.67
-54.13
-59.91
-60.35
-57.14
-52.28
-47.25
-42.64
-38.04
-32.42
-25.20
-16.83
-9.48
-7.05
-14.34
-35.72
-73.68
-127.73
-190.17
-248.91
-290.04
-303.43
-287.38
-248.47
-197.03
-142.22
-89.61
-41.58
0.53
35.36
61.06
76.38
81.83
80.01
74.72
69.72
67.50
68.51
71.44
73.89
73.75
70.20
64.02
57.03
51.17
47.73
46.79
47.43
48.12
47.52
45.06
41.14
36.76
33.00
30.52
29.44
29.32
29.43
29.20
28.38
27.27
26.43
26.56
28.02
31.00
35.32
40.54
46.11
51.44
55.99
59.20
60.83
60.44
57.83
52.97
46.09
37.64
28.24
18.64
9.50
1.42
-5.21
-10.12
-13.26
-14.78
-14.82
-13.70
-11.67
-8.89
-5.69
-2.25
1.36
5.10
8.89
12.82
16.92
21.19
25.82
30.54
35.27
40.01
44.81
49.67
54.73
60.03
65.77
72.15
78.87
85.81
92.87
100.02
107.20
114.45
121.75
129.23
137.16
145.07
152.69
159.86
166.20
171.32
174.58
174.97
170.88
165.11
158.29
150.76
142.79
134.42
125.73
116.70
107.40
98.02
88.95
79.99
71.15
62.56
54.20
45.98
37.72
29.24
20.59
12.02
3.46
-4.98
-13.18
-21.22
-29.39
-38.01
-47.32
-57.25
-67.25
-76.84
-85.48
-92.79
-98.99
-104.81
-111.25
-119.28
-129.34
-141.21
-154.38
-168.12
-181.80
-195.32
-208.99
-223.38
-239.33
-257.65
-279.00
-303.42
-329.66
-354.71
-374.24
-383.77
-380.15
-362.99
-334.85
-300.29
-264.21
-230.23
-199.92
-173.31
-149.78
-128.89
-110.66
-95.28
-82.52
-71.56
-61.18
-50.32
-38.61
-26.51
-15.07
-5.44
1.71
6.57
9.92
12.80
16.03
19.82
23.77
27.20
29.42
30.05
29.20
27.22
24.63
21.97
19.67
18.15
17.76
18.71
20.95
24.22
28.00
31.79
35.14
37.90
40.04
41.76
43.11
44.12
44.69
44.71
44.18
43.22
41.96
40.60
39.40
38.34
37.49
36.80
36.19
35.56
34.76
33.60
31.91
29.62
26.76
23.47
19.99
16.52
13.23
10.17
7.33
4.59
1.81
-1.01
-3.75
-5.97
-7.17
-6.81
-4.69
-0.94
3.85
8.93
13.58
17.44
20.52
22.94
25.00
26.81
28.30
29.27
29.55
29.09
27.93
26.31
24.34
22.17
19.94
17.86
16.13
14.99
14.51
14.57
14.93
15.28
15.37
15.08
14.44
13.46
12.14
10.39
8.08
5.15
1.63
-2.29
