1537273817.00
64.000000
-0.00
-0.00
-0.00
-0.00
-0.00
-0.00
-0.00
-0.00
-0.00
-0.00
0.00
0.01
0.01
-0.00
-0.03
-0.05
-0.05
0.00
0.13
0.36
0.66
1.01
1.37
1.72
2.06
2.40
2.79
3.24
3.80
4.42
5.06
5.68
6.23
6.73
7.23
7.82
8.54
9.51
10.63
11.80
12.90
13.89
14.81
15.81
17.12
18.88
21.31
24.23
27.37
30.43
33.24
35.88
38.66
42.02
46.30
51.88
58.42
65.40
72.25
78.60
84.52
90.52
97.31
105.46
115.52
127.03
139.18
151.10
162.20
172.51
182.66
194.05
205.42
219.09
235.68
255.33
276.80
297.16
312.01
316.74
308.04
285.07
250.30
207.63
161.40
114.81
69.34
25.15
-17.88
-59.45
-98.69
-134.14
-164.97
-190.73
-211.30
-226.51
-236.31
-240.40
-238.46
-230.56
-217.19
-199.71
-179.80
-159.30
-139.63
-121.67
-105.55
-91.00
-77.64
-65.20
-53.90
-43.79
-35.17
-28.31
-23.21
-19.56
-16.85
-14.52
-12.17
-9.64
-7.05
-4.73
-3.06
-2.30
-2.46
-3.31
-4.49
-5.62
-6.56
-7.36
-8.46
-10.39
-13.63
-18.30
-24.07
-30.23
-36.03
-40.99
-45.14
-49.11
-53.82
-60.00
-67.76
-76.44
-84.88
-91.98
-97.31
-101.55
-106.07
-112.42
-121.39
-132.55
-144.57
-156.15
-166.88
-177.60
-189.40
-202.34
-214.71
-223.79
-227.48
-225.84
-221.11
-216.08
-211.91
-206.72
-196.50
-177.94
-151.52
-122.27
-97.60
-83.11
-79.20
-80.79
-80.52
-73.23
-59.11
-43.11
-31.47
-27.66
-29.94
-32.39
-28.36
-14.47
7.17
29.92
46.14
51.12
45.35
33.93
23.85
20.23
23.98
31.57
37.58
38.06
33.06
26.33
22.85
25.43
32.47
38.80
38.88
30.49
16.64
4.19
-0.10
6.52
20.71
34.55
39.63
31.54
12.34
-10.42
-27.40
-32.40
-25.32
-12.04
-1.02
1.13
-7.09
-21.73
-35.78
-43.19
-41.98
-35.06
-28.01
-25.44
-27.82
-31.54
-31.30
-23.93
-10.84
2.29
8.76
4.79
-7.75
-21.90
-29.16
-24.37
-9.00
9.19
20.30
17.54
1.05
-22.07
-41.35
-48.37
-41.08
-24.62
-8.15
0.40
-1.38
-9.46
-16.26
-15.62
-6.58
6.15
15.19
15.48
7.75
-1.54
-4.04
5.25
24.36
44.96
56.82
53.84
37.88
18.25
6.61
10.52
29.07
53.40
71.75
76.01
65.94
49.00
35.86
34.50
45.79
63.67
79.08
85.48
82.36
74.92
70.01
71.44
77.43
82.01
78.98
66.40
48.32
33.03
28.32
37.09
55.23
73.79
83.38
78.77
61.11
37.26
16.52
6.95
11.90
28.72
50.14
67.79
76.08
74.48
66.64
57.16
48.40
38.88
24.80
3.69
-22.30
-45.88
-57.76
-51.75
-29.12
2.10
31.16
50.20
57.91
59.62
63.75
77.63
104.63
142.45
186.51
232.23
276.34
316.50
349.75
371.30
374.81
357.47
318.23
260.49
192.22
123.86
64.74
19.97
-11.10
-34.30
-56.25
-82.24
-113.35
-146.14
-174.38
-191.82
-194.75
-184.19
-164.66
-142.61
-124.95
-116.65
-119.83
-134.23
-158.63
-191.91
-233.13
-279.79
-326.23
-363.58
-381.40
-371.47
-331.38
-266.24
-187.89
-111.89
-53.29
-22.95
-24.98
-55.43
-103.29
-153.65
-192.06
-208.45
-199.47
-168.04
-120.98
-66.44
-11.76
37.00
75.45
101.29
115.19
121.28
125.80
135.60
155.42
186.20
224.78
265.55
302.15
329.41
344.23
345.76
335.08
314.69
287.74
257.31
226.02
195.56
166.76
139.71
114.19
90.05
67.38
46.58
28.25
12.96
0.95
-7.89
-14.21
-18.94
-23.04
-27.17
-31.44
-35.38
-38.20
-39.15
-37.89
-34.74
-30.65
-26.86
-24.35
-23.36
-23.27
-22.83
-20.74
-16.22
-9.53
-1.90
4.81
9.07
10.35
9.28
7.30
5.71
5.08
4.67
2.63
-3.12
-14.61
-32.78
-57.48
-87.45
-120.00
-150.93
-174.95
-186.25
-182.33
-164.81
-138.93
-111.80
-89.55
-75.10
-67.81
-64.77
-63.29
-62.25
-61.98
-62.80
-63.79
-62.43
-55.42
-40.30
-15.77
17.17
54.99
91.78
120.72
135.85
134.37
118.15
93.50
69.08
52.11
46.31
50.36
59.73
69.64
77.71
84.42
91.55
100.34
109.85
117.26
119.24
113.93
101.37
83.72
63.95
44.61
27.03
10.97
-5.01
-22.62
-42.72
-65.09
-88.78
-112.03
-134.42
-155.05
-171.95
-181.52
-179.70
-163.87
-134.99
-98.00
-60.43
-29.97
-10.37
-1.58
-0.56
-3.51
-7.70
-12.27
-17.48
-23.48
-29.74
-34.92
-37.99
-38.83
-38.41
-38.06
-38.79
-40.64
-42.57
-43.07
-40.57
-34.39
-24.95
-13.75
-3.01
5.53
10.84
13.08
12.81
11.24
9.58
9.07
10.73
15.26
23.40
35.69
52.34
73.02
96.72
121.70
145.64
165.97
180.33
186.99
184.98
174.14
155.18
129.34
98.15
63.86
28.69
-5.46
-37.28
-66.25
-92.48
-116.44
-138.75
-159.89
-179.94
-198.67
-215.92
-231.72
-246.60
-261.73
-277.87
-295.31
-313.26
-329.97
-342.93
-349.45
-347.15
-334.52
-311.08
-276.34
-230.21
-172.79
-104.70
-27.46
56.42
144.00
232.02
317.48
397.03
465.61
516.27
541.31
535.36
498.32
437.34
363.41
287.64
217.56
155.91
102.57
57.90
25.02
8.32
10.48
29.74
59.75
91.96
118.58
134.82
138.56
128.97
105.84
69.79
23.34
-28.25
-77.77
-118.18
-144.84
-156.77
-156.24
-147.32
-134.38
-120.85
-108.69
-98.40
-89.28
-79.79
-68.23
-53.38
-35.02
-13.62
9.68
33.23
55.00
72.74
84.61
89.93
89.76
86.67
83.75
83.37
85.92
89.44
90.51
85.70
73.25
54.22
31.40
8.42
-11.83
-28.69
-43.83
-60.04
-79.90
-104.50
-132.99
-162.86
-189.83
-208.12
-211.13
-193.25
-152.69
-93.88
-27.60
32.40
74.20
92.80
91.77
80.07
66.60
55.52
45.58
33.10
16.14
-3.32
-20.29
-30.13
-31.87
-28.35
-25.20
-27.59
-37.29
-51.97
-67.07
-77.32
-78.98
-70.63
-53.49
-31.67
-11.60
-1.33
-7.00
-30.43
-66.92
-105.72
-133.23
-137.66
-114.28
-67.78
-10.90
40.42
72.91
80.78
67.02
40.98
13.83
-5.91
-14.62
-13.08
-4.07
10.47
30.72
57.62
90.16
123.04
146.43
149.56
125.92
77.53
15.45
-44.37
-87.77
-107.75
-106.47
-92.54
-75.39
-60.72
-49.11
-37.96
-25.40
-12.43
-2.18
3.08
4.92
8.98
22.07
47.54
82.51
118.44
145.18
155.87
149.71
131.70
109.22
88.34
71.35
56.97
41.83
22.54
-3.00
-34.77
-70.40
-105.52
-135.14
-155.34
-164.68
-164.66
-158.66
-150.10
-141.09
-131.94
-122.34
-112.22
-102.26
-92.59
-82.03
-68.09
-48.24
-21.80
9.17
40.40
67.81
89.01
105.06
119.62
136.51
157.58
181.81
206.32
227.66
243.69
253.41
257.03
254.94
247.27
234.06
215.55
192.33
164.76
135.02
102.95
67.87
28.98
-14.24
-61.65
-112.26
-164.15
-215.44
-263.56
-306.10
-340.52
-364.73
-377.27
-377.42
-365.25
-337.12
-293.08
-235.39
-168.46
-97.56
-28.05
35.44
89.82
133.47
166.17
188.16
200.83
206.01
205.80
202.21
196.81
191.11
185.98
181.70
177.57
173.12
167.99
161.84
154.44
145.39
134.80
122.34
108.22
90.93
69.44
43.26
12.44
-22.51
-60.97
-101.30
-140.85
-177.85
-211.27
-240.17
-263.63
-280.89
-291.32
-297.44
-297.78
-291.11
-276.92
-255.31
-226.78
-192.13
-152.56
-107.78
-60.97
-14.75
28.29
65.88
96.39
118.83
133.02
139.36
138.67
131.84
120.87
107.39
92.68
78.50
65.13
52.90
42.25
33.74
27.34
24.19
24.83
29.06
35.99
44.15
52.07
58.53
62.89
65.10
66.14
66.97
68.14
69.67
70.83
70.81
69.03
65.59
61.34
57.80
56.09
56.68
59.06
61.83
63.43
62.44
57.69
48.22
33.81
15.88
-3.04
-18.69
-26.73
-24.75
-13.97
0.85
13.37
18.23
13.69
1.93
-12.60
-25.69
-35.17
-41.24
-45.19
-48.02
-49.64
-49.18
-46.10
-40.78
-34.81
-29.69
-26.76
-26.23
-27.30
-28.55
-28.64
-26.99
-23.87
-20.26
-17.31
-15.88
-16.11
-17.46
-19.06
-20.06
-20.09
-19.26
-18.17
-17.44
-17.60
-18.73
-20.56
-22.62
-24.50
-26.02
-27.20
-28.33
-29.71
-31.58
-33.97
-36.77
-39.71
-42.56
-45.08
-47.00
-48.15
-48.29
-47.17
-44.47
-39.91
-33.28
-24.58
-14.29
-2.64
9.75
22.12
33.55
43.15
50.10
53.86
54.12
50.82
44.15
34.46
22.36
8.46
-6.67
-22.45
-38.35
-53.94
-68.82
-82.56
-94.82
-105.25
-113.43
-118.86
-121.31
-120.10
-115.05
-105.82
-92.44
-75.44
-55.82
-34.87
-14.04
5.45
22.71
37.26
49.05
58.29
65.11
69.65
72.00
72.31
70.93
68.47
65.70
63.53
62.54
62.83
63.95
65.06
65.07
63.36
59.79
54.74
48.96
43.10
37.28
31.23
24.51
16.56
7.38
-2.43
-11.91
-19.24
-22.02
-17.15
-1.65
25.93
63.49
105.06
141.53
161.92
159.42
133.71
91.19
42.56
0.24
-27.26
-35.69
-24.79
1.98
38.23
75.16
103.10
113.85
103.07
71.34
24.24
-29.67
-81.58
-123.92
-152.15
-164.71
-162.78
-149.53
-129.13
-105.08
-79.31
-52.17
-23.47
5.24
29.77
44.34
44.75
31.64
11.55
-5.55
-11.16
-2.33
17.47
40.69
59.89
70.88
73.01
67.67
55.97
38.06
14.07
-14.10
-42.25
-64.55
-75.83
-73.38
-58.26
-34.82
-9.45
11.54
23.92
26.86
22.94
16.61
11.84
10.23
10.56
9.95
5.88
-2.28
-13.32
-24.98
-35.30
-43.01
-46.92
-44.97
-34.31
-12.90
18.05
52.71
81.63
95.38
88.91
64.44
30.70
-1.05
-22.06
-29.55
-26.65
-19.35
-12.41
-6.99
-0.95
8.45
21.84
36.39
46.99
48.81
39.96
22.37
1.11
-18.15
-31.49
-38.10
-39.85
-39.69
-39.57
-39.25
-36.59
-29.09
-15.81
1.28
17.49
26.97
25.18
10.87
-12.97
-40.21
-63.86
-78.85
-83.35
-78.46
-66.52
-49.55
-28.72
-5.10
19.27
41.02
56.38
62.83
60.57
52.72
43.98
38.49
38.05
41.63
46.16
48.15
45.04
35.99
21.89
4.84
-12.43
-27.26
-37.66
-42.67
-42.36
-37.65
-30.14
-21.86
-14.90
-11.24
-12.43
-19.42
-32.34
-50.21
-70.21
-87.68
-97.06
-93.91
-77.18
-50.22
-19.97
5.92
22.19
28.03
26.65
22.99
20.86
21.40
23.42
25.20
26.14
27.06
29.15
32.52
35.72
36.45
32.97
25.28
15.16
5.28
-2.00
-5.85
-7.16
-7.93
-10.09
-14.54
-20.79
-27.32
-32.30
-34.53
-33.84
-31.11
-27.81
-25.12
-23.22
-21.20
-17.49
-10.90
-1.40
9.57
19.47
26.00
28.39
27.84
27.06
29.22
36.98
52.02
74.84
104.58
138.59
172.08
198.69
212.03
208.02
186.62
152.04
110.89
69.58
32.08
-0.57
-29.03
-53.80
-74.21
-88.85
-96.52
-96.95
-90.92
-79.67
-64.71
-47.89
-31.53
-18.71
-12.75
-15.84
-27.98
-46.25
-65.51
-80.07
-85.57
-80.46
-66.15
-46.11
-24.30
-3.92
12.86
24.46
29.40
26.55
15.87
-0.55
-18.43
-32.47
-38.48
-35.13
-24.45
-10.84
1.08
8.09
9.07
4.33
-5.37
-19.27
-36.28
-54.27
-70.02
-79.82
-80.79
-71.74
-53.41
-27.94
1.99
33.55
63.76
89.07
105.59
110.30
102.69
85.54
64.20
44.39
29.76
20.70
15.06
10.11
4.38
-1.59
-6.04
-7.16
-4.12
2.64
11.72
20.90
27.04
26.16
14.45
-9.84
-44.34
-82.04
-113.04
-127.99
-121.62
-94.75
-53.82
-8.44
31.84
60.28
74.24
75.04
66.76
54.43
42.39
33.22
27.39
23.87
20.93
17.14
11.70
4.42
-4.73
-15.56
-27.22
-37.68
-43.99
-43.48
-35.35
-21.66
-6.92
3.88
7.62
4.32
-3.29
-11.71
-18.67
-24.01
-28.81
-33.91
-38.87
-42.04
-41.87
-38.06
-31.86
-25.31
-19.74
-15.28
-11.19
-6.81
-2.68
-0.69
-3.56
-13.86
-32.88
-59.96
-91.95
-123.44
-147.42
-156.82
-146.34
-114.19
-63.16
-0.54
63.20
116.63
150.12
158.28
141.53
106.09
62.13
20.69
-9.73
-25.26
-26.69
-18.06
-4.52
9.24
19.64
24.68
24.41
21.47
20.83
28.09
46.28
72.96
99.81
115.71
112.21
88.34
51.89
15.89
-8.01
-15.30
-10.29
-2.75
-1.81
-10.75
-26.00
-40.28
-47.78
-47.73
-44.30
-43.41
-48.66
-59.06
-69.84
-75.78
-74.81
-69.50
-65.73
-68.70
-79.26
-92.53
-100.25
-95.32
-76.17
-48.45
-22.72
-9.11
-11.96
-27.23
-44.49
-52.32
-44.30
-22.18
5.26
27.16
36.21
31.80
19.20
6.18
-1.33
-1.96
1.94
6.16
7.03
2.82
-7.40
-24.52
-49.32
-80.97
-115.86
-147.63
-169.06
-174.80
-162.65
-133.89
-91.59
-39.16
19.92
81.14
138.32
184.78
216.38
234.99
248.33
266.76
298.16
343.54
396.35
445.52
480.35
490.30
471.76
426.89
361.59
282.80
196.72
108.64
23.08
-55.92
-125.11
-181.68
-224.58
-254.92
-275.35
-289.23
-299.39
-307.63
-314.31
-318.81
-319.59
-315.32
-305.37
-289.86
-270.41
-247.47
-221.00
-190.46
-155.44
-115.70
-71.76
-25.07
22.25
67.73
109.24
145.00
173.91
195.25
208.76
214.41
212.34
202.96
186.88
165.12
137.52
104.89
68.41
29.53
-10.05
-48.54
-84.08
-115.04
-140.18
-159.29
-172.79
-181.90
-188.05
-192.44
-195.55
-197.09
-196.39
-192.73
-185.90
-176.20
-164.60
-152.15
-139.23
-125.18
-108.71
-88.58
-64.23
-36.17
-5.47
26.91
60.76
96.16
132.41
167.27
197.34
220.51
237.66
252.85
271.06
295.13
323.54
350.90
371.04
379.17
375.56
364.64
352.04
341.29
332.20
321.90
306.94
287.44
264.26
238.32
208.98
173.57
128.23
70.53
1.88
-71.69
-139.79
-191.78
-220.78
-226.76
-216.77
-202.15
-193.69
-197.39
-213.10
-236.06
-260.78
-283.87
-305.05
-325.96
-348.09
-371.05
-392.09
-407.20
-412.97
-406.45
-385.54
-348.80
-296.08
-229.42
-153.90
-77.27
-7.97
47.26
85.93
110.53
126.89
141.02
156.42
173.12
188.92
201.46
209.82
214.61
216.88
216.85
213.40
205.07
191.08
172.29
150.95
129.86
110.87
93.96
77.68
60.43
41.88
23.41
7.48
-3.98
-10.86
-15.19
-19.92
-27.34
-37.86
-49.84
-60.54
-67.28
-68.60
-64.33
-55.65
-44.36
-32.61
-22.72
-16.98
-17.14
-23.52
-34.12
-44.41
-48.01
-38.36
-11.31
32.40
86.26
138.86
177.26
191.63
180.34
148.12
104.88
61.29
24.63
-2.72
-21.89
-34.53
-40.79
-39.51
-30.39
-15.77
-1.05
7.43
5.81
-5.06
-20.07
-32.78
-38.87
-38.14
-33.60
-29.25
-27.82
-29.77
-33.33
-35.78
-35.00
-30.69
-24.36
-18.42
-15.22
-15.90
-20.00
-25.76
-30.85
-33.18
-31.33
-24.95
-15.32
-5.89
-1.95
-9.32
-31.77
-68.76
-114.66
-160.07
-194.94
-212.14
-209.58
-189.43
-157.38
-119.35
-79.55
-40.50
-3.95
28.17
53.67
70.97
79.93
82.02
79.91
76.63
74.19
73.15
72.81
71.82
69.03
64.13
57.64
50.82
45.01
41.00
38.75
37.53
36.33
34.32
31.24
27.34
23.28
19.77
17.19
15.52
14.39
13.36
12.07
10.45
8.59
6.75
5.15
3.86
2.81
1.87
0.97
0.15
-0.48
-0.86
-1.02
-1.15
-1.54
-2.39
-3.69
-5.12
-6.20
-6.47
-5.77
-4.37
-2.95
-2.28
-2.87
-4.65
-6.93
-8.69
-8.98
-7.51
-4.80
-2.05
-0.68
-1.51
-4.40
-8.18
-11.13
-11.80
-9.86
-6.16
-2.25
0.16
0.21
-2.01
-5.91
-10.87
-16.02
-19.60
-18.76
-10.47
6.33
29.08
51.44
65.75
66.64
53.93
32.84
11.25
-4.33
-11.61
-12.65
-11.53
-11.28
-12.40
-13.28
-12.13
-8.64
-4.30
-1.30
-1.05
-3.64
-7.66
-11.03
-12.18
-10.70
-7.40
-3.81
-1.47
-1.22
-2.90
-5.52
-7.80
-8.81
-8.29
-6.69
-4.82
-3.47
-3.04
-3.53
-4.57
-5.73
-6.72
-7.40
-7.80
-7.96
-7.89
-7.61
-7.32
-7.28
-7.85
-9.28
-11.51
-14.09
-16.30
-17.46
-17.27
-16.10
-14.88
-14.74
-16.47
-20.09
-24.72
-28.91
-31.45
-31.67
-29.98
-27.59
-25.90
-26.15
-29.10
-34.99
-43.17
-51.69
-57.15
-55.44
-43.32
-20.30
10.36
42.53
69.53
87.04
94.70
95.56
93.94
92.91
92.96
92.63
90.32
85.75
80.49
76.88
76.57
79.74
85.27
91.73
97.54
101.24
100.96
94.61
80.61
59.05
32.42
5.05
-18.32
-34.33
-42.13
-43.18
-39.91
-34.53
-28.48
-22.68
-18.27
-16.63
-19.03
-25.77
-35.80
-47.14
-57.71
-66.28
-72.54
-77.68
-83.27
-90.75
-100.81
-112.82
-124.28
-131.14
-129.18
-115.24
-89.71
-56.71
-22.98
4.75
22.38
29.79
30.05
27.41
25.08
23.94
23.20
21.68
19.13
16.34
14.60
14.67
16.23
18.17
19.13
18.26
15.67
12.31
9.34
7.67
7.49
8.29
9.15
9.13
7.84
5.48
2.74
0.38
-1.07
-1.59
-1.60
-1.68
-2.33
-3.71
-5.57
-7.45
-8.93
-9.87
-10.41
-10.96
-11.87
-13.27
-15.01
-16.67
-17.84
-18.25
-17.99
-17.38
-16.72
-16.06
-14.95
-12.61
-8.28
-1.61
7.08
16.78
26.14
33.91
39.43
42.97
45.46
47.83
50.63
53.69
56.18
57.50
57.60
57.14
56.60
55.81
53.91
50.15
45.29
41.38
40.76
43.46
46.56
45.68
37.75
23.18
5.97
-8.28
-15.71
-15.93
-12.09
-8.59
-8.31
-11.39
-15.98
-19.77
-20.74
-18.57
-13.49
-6.14
2.75
12.53
22.60
32.22
40.70
47.86
52.88
54.90
53.22
47.61
38.95
28.80
18.62
8.86
-0.16
-8.74
-17.25
-24.44
-30.57
-36.93
-42.00
-44.81
-45.54
-44.28
-41.57
-38.22
-35.06
-32.72
-31.56
-31.76
-30.24
-28.55
-27.52
-27.27
-27.81
-28.89
-30.07
-30.96
-31.33
-30.75
-29.65
-27.88
-24.96
-20.89
-17.77
-14.46
-10.52
-6.27
-1.77
2.09
5.00
7.03
7.83
6.94
4.38
2.94
1.79
0.80
-0.53
-4.23
-8.11
-10.44
-10.32
-7.00
-0.43
8.66
19.61
30.39
39.31
45.21
46.90
43.01
32.97
16.62
-5.95
-28.72
-50.16
-69.65
-86.72
-100.99
-112.77
-121.84
-127.74
-129.72
-127.46
-122.00
-114.25
-109.26
-106.18
-103.98
-101.07
-95.32
-84.36
-67.47
-46.21
-22.99
-0.66
18.05
30.96
37.98
41.00
43.49
47.20
51.73
55.40
56.39
51.08
35.08
5.08
-39.54
-94.94
-155.23
-212.60
-258.81
-282.16
-277.72
-250.96
-214.42
-186.26
-167.77
-153.54
-136.69
-110.10
-71.05
-20.54
38.93
103.53
167.56
225.95
273.50
307.19
326.33
331.42
323.23
303.46
275.23
242.95
212.15
186.11
165.93
150.85
138.80
127.22
114.18
99.23
83.40
69.04
57.66
49.73
44.76
41.50
38.44
34.31
28.85
22.56
16.72
12.26
9.67
8.88
9.31
10.19
10.61
10.31
9.35
8.27
7.63
7.85
9.05
10.86
13.94
16.42
17.43
16.63
14.29
11.18
8.24
6.27
5.47
5.58
5.55
4.73
2.98
0.92
-0.25
0.83
5.09
12.42
21.90
31.82
40.80
48.14
54.13
59.72
66.26
75.18
87.36
103.53
123.05
143.92
162.47
173.91
173.90
160.55
135.89
105.17
75.61
52.30
37.57
30.92
29.84
31.06
31.33
31.51
31.10
29.42
23.02
9.33
-11.65
-37.29
-63.90
-88.09
-107.58
-121.87
-131.21
-140.36
-152.90
-169.12
-186.54
-202.25
-214.62
-223.42
-229.55
-233.93
-242.41
-258.96
-283.67
-313.56
-345.75
-379.35
-415.06
-454.20
-465.15
-431.65
-359.78
-272.17
-189.88
-122.84
-72.03
-34.62
-7.48
11.58
19.02
13.62
-0.11
-12.37
-12.81
4.48
38.70
82.98
127.38
158.95
170.47
163.24
145.12
125.24
109.10
97.75
89.36
81.71
71.46
57.99
43.13
31.00
25.37
27.45
36.44
51.01
70.14
91.66
113.19
132.09
145.59
152.23
151.57
145.24
136.45
128.56
122.24
115.43
104.64
83.65
53.62
18.63
-16.51
-48.36
-75.35
-98.13
-118.04
-135.47
-149.73
-156.92
-154.28
-140.93
-117.75
-86.22
-50.04
-15.45
9.72
17.60
7.47
-15.23
-39.85
-53.88
-46.71
-15.38
35.15
95.75
151.32
193.60
219.92
231.77
221.66
187.96
134.22
68.37
9.00
-40.83
-79.16
-104.12
-117.45
-119.93
-111.93
-95.23
-72.59
-46.90
-21.88
2.40
27.01
52.78
80.36
110.81
144.82
182.83
224.83
268.22
309.87
344.14
363.71
362.58
338.92
296.03
241.51
184.69
132.55
89.49
56.13
30.50
10.17
-6.95
-22.56
-38.20
-55.31
-75.48
-99.06
-125.07
-151.16
-171.71
-181.26
-177.64
-162.76
-140.96
-116.94
-94.12
-74.12
-56.74
-40.54
-24.37
-7.69
9.27
25.64
40.22
52.04
59.96
63.39
62.44
57.15
47.38
32.85
13.25
-10.30
-36.09
-62.16
-86.39
-106.61
-121.34
-130.10
-133.59
-133.30
-131.10
-128.81
-127.51
-127.14
-126.70
-125.27
-122.35
-118.28
-113.99
-110.47
-108.76
-109.73
-113.93
-121.34
-130.71
-138.97
-141.54
-133.67
-112.97
-81.21
-44.25
-10.02
14.72
26.93
27.88
21.63
12.59
3.24
-6.18
-16.38
-27.69
-39.16
-48.91
-55.14
-57.44
-55.75
-50.82
-43.45
-33.73
-21.14
-4.88
15.43
39.14
63.97
87.52
107.29
121.56
129.77
132.45
131.04
127.13
121.98
116.28
110.33
103.97
97.01
89.53
81.82
74.40
67.75
61.97
56.97
52.59
48.52
44.45
40.76
37.18
33.81
30.76
28.13
25.92
24.17
22.80
21.71
20.95
20.52
20.51
20.95
21.83
23.02
24.26
25.60
26.25
25.67
23.40
19.24
13.29
5.85
-2.54
-11.20
-19.34
-26.38
-31.69
-34.95
-35.95
-34.64
-31.22
-26.07
-19.81
-13.17
-7.14
-2.46
0.37
1.32
0.87
-0.15
-0.89
-0.62
0.89
3.33
6.19
8.91
11.26
13.51
16.28
20.23
25.79
32.69
40.17
47.33
53.41
58.11
61.75
64.99
68.69
73.83
81.29
91.59
104.20
117.06
126.55
128.60
120.11
100.67
73.18
43.10
16.65
-1.47
-9.39
-8.20
-0.88
8.76
17.24
21.75
19.98
11.60
-3.16
-22.87
-44.70
-65.04
-80.38
-88.05
-86.99
-78.02
-63.50
-46.70
-30.53
-16.53
-4.64
6.18
17.07
28.34
39.04
47.48
51.81
51.03
45.14
35.06
22.28
8.48
-4.55
-15.22
-22.34
-25.56
-25.46
-23.39
-21.11
-20.22
-21.72
-25.98
-32.83
-41.64
-51.52
-61.29
-69.59
-75.19
-77.29
-75.79
-71.46
-65.68
-60.04
-55.88
-53.96
-54.39
-56.73
-60.27
-64.29
-68.25
-71.76
-74.70
-77.12
-79.15
-80.90
-82.27
-83.01
-82.89
-82.11
-81.37
-81.86
-84.50
-89.35
-95.09
-99.30
-99.37
-93.66
-82.30
-67.15
-51.10
-36.85
-26.05
-19.04
-15.09
-12.96
-11.42
-9.49
-6.54
-2.25
3.42
10.29
18.02
26.23
34.47
42.14
48.44
52.36
52.90
49.55
42.50
32.66
21.46
10.29
0.17
-8.19
-14.29
-17.58
-17.47
-13.74
-6.96
1.43
9.44
15.23
17.87
17.63
15.75
13.86
13.41
15.25
19.63
26.13
33.71
40.84
45.82
47.47
45.79
42.26
39.23
38.93
42.12
47.63
52.72
54.40
50.72
41.55
28.33
13.23
-1.67
-14.99
-26.02
-34.54
-40.59
-44.51
-46.72
-47.71
-47.69
-46.42
-43.27
-37.58
-28.98
-17.71
-4.47
9.90
24.62
39.05
52.60
64.61
74.28
81.09
84.96
86.33
86.12
85.29
84.61
84.48
84.87
85.40
85.54
84.73
82.51
78.62
73.08
66.03
57.72
48.28
37.79
26.44
14.75
3.57
-6.10
-13.69
-19.59
-25.24
-32.58
-43.01
-56.38
-70.71
-82.85
-89.83
-90.24
-84.93
-76.41
-67.68
-60.73
-55.98
-52.63
-49.60
-46.29
-42.90
-40.00
-38.01
-36.96
-36.63
-36.89
-37.97
-40.21
-43.69
-47.82
-51.39
-52.88
-51.07
-45.47
-36.49
-25.21
-13.05
-1.19
9.69
19.61
29.17
38.95
49.14
59.05
67.23
71.85
71.55
66.01
56.18
43.90
31.12
19.30
9.06
0.39
-6.93
-12.85
-17.06
-19.27
-19.49
-18.44
-17.26
-17.09
-18.48
-21.23
-24.41
-27.02
-28.37
-28.30
-27.26
-25.87
-24.73
-24.13
-23.89
-23.33
-21.53
-17.56
-10.91
-1.82
8.73
19.24
28.24
34.86
39.07
41.55
43.30
45.23
47.69
50.53
53.14
54.65
54.28
51.65
47.00
41.26
35.68
31.24
28.13
25.67
22.66
18.13
11.89
4.51
-3.12
-10.33
-16.97
-23.38
-29.95
-36.73
-43.52
-50.12
-56.77
-63.99
-72.00
-80.33
-87.78
-92.74
-93.88
-90.56
-82.97
-72.39
-60.41
-48.23
-36.36
-24.76
-13.10
-1.09
11.29
23.75
34.69
42.83
48.26
52.68
58.49
67.50
80.04
95.05
110.86
123.96
132.07
135.59
137.09
139.48
144.18
150.72
157.67
163.62
164.15
155.62
136.69
108.55
73.47
33.28
-10.61
-56.56
-102.44
-150.56
-203.15
-260.18
-318.84
-375.35
-427.23
-473.96
-515.89
-525.88
-485.62
-395.76
-277.83
-158.47
-54.02
31.22
99.16
153.91
199.21
233.43
254.69
263.42
262.91
258.32
253.38
248.87
244.39
238.59
226.78
205.24
174.34
137.96
101.88
71.06
47.49
31.93
23.67
19.43
16.52
13.78
11.47
7.84
6.19
7.60
12.13
18.16
22.78
23.74
24.88
25.24
24.88
24.99
21.61
16.32
9.90
2.67
-4.67
-11.67
-18.07
-22.75
-24.90
-25.83
-27.49
-33.66
-49.17
-72.78
-106.47
-152.18
-208.59
-270.34
-328.89
-373.83
-397.15
-395.41
-371.19
-332.75
-290.12
-250.64
-216.99
-187.50
-157.92
-124.42
-84.71
-38.62
11.57
62.61
111.32
155.14
192.10
220.76
238.17
246.26
247.64
245.73
243.66
242.85
241.98
237.02
222.67
195.38
153.31
102.63
55.98
25.66
16.35
23.84
39.27
54.76
66.86
76.42
86.09
97.18
108.35
116.40
118.50
114.34
104.32
90.38
74.88
59.26
43.21
24.51
0.19
-30.19
-64.81
-101.00
-136.01
-167.58
-193.52
-211.20
-217.35
-208.79
-184.01
-145.20
-98.64
-52.84
-15.50
9.32
22.01
26.11
25.80
23.97
21.35
17.45
12.15
6.41
2.02
0.43
1.82
4.91
7.70
8.22
5.55
0.15
-6.47
-12.45
-16.44
-17.95
-17.73
-17.21
-17.87
-20.51
-24.83
-29.44
-32.39
-32.16
-27.45
-18.27
-5.77
8.19
21.79
33.83
44.00
52.73
60.76
68.76
76.93
85.19
93.25
100.50
105.78
107.25
102.80
90.97
72.06
48.59
24.84
5.28
-7.28
-12.75
-13.44
-12.61
-12.72
-14.31
-16.38
-17.36
-16.45
-14.12
-11.68
-10.27
-10.07
-10.16
-9.01
-5.40
0.83
8.71
16.45
22.27
25.06
24.73
22.09
18.49
15.12
12.68
11.39
10.94
10.80
10.42
9.49
8.00
6.24
4.62
3.57
3.36
4.04
5.41
7.10
8.73
9.98
10.69
10.76
10.24
9.16
7.57
5.57
3.38
1.35
-0.12
-0.71
-0.32
0.82
2.37
3.91
5.19
6.09
6.62
6.82
6.65
6.12
5.27
4.22
3.05
1.71
-0.03
-2.43
-5.57
-9.14
-12.51
-14.95
-16.06
-16.00
-15.43
-15.25
-16.11
-18.09
-20.60
-22.66
-23.36
-22.28
-19.81
-16.94
-14.94
-14.76
-16.68
-20.15
-23.99
-26.83
-27.64
-26.17
-23.20
-20.15
-18.59
-19.49
-22.66
-26.69
-29.50
-29.06
-24.30
-15.52
-4.56
5.22
9.48
3.76
-14.82
-45.69
-83.83
-120.68
-146.87
-156.57
-150.57
-136.38
-125.36
-128.17
-150.81
-192.97
-248.93
-309.28
-363.60
-402.76
-420.18
-412.88
-381.86
-331.69
-269.31
-202.35
-136.72
-75.25
-18.61
33.69
82.31
127.60
169.55
207.54
240.27
266.84
287.99
305.64
322.67
342.60
369.26
406.56
457.77
515.08
567.03
601.11
605.99
575.19
509.23
415.68
307.44
199.02
108.44
39.04
-10.90
-45.69
-70.13
-87.84
-100.42
-107.72
-108.96
-103.99
-93.35
-77.55
-58.68
-40.75
-28.77
-26.81
-36.39
-55.65
-80.07
-104.22
-122.51
-131.62
-131.05
-122.63
-109.62
-95.85
-85.23
-80.96
-84.69
-95.03
-108.15
-119.13
-123.71
-119.99
-109.21
-95.05
-82.04
-73.68
-70.85
-72.18
-75.05
-76.89
-76.04
-71.99
-65.14
-56.26
-46.20
-35.67
-25.42
-16.25
-8.91
-3.87
-1.06
0.29
1.64
4.99
12.30
24.94
42.99
64.88
87.48
106.92
119.73
124.24
121.45
114.40
106.99
102.03
100.43
101.06
101.99
102.12
102.56
107.20
120.30
145.07
181.57
227.97
281.52
339.13
397.26
450.52
492.24
513.14
505.27
464.00
391.66
297.04
191.95
88.08
-6.16
-84.52
-145.54
-189.41
-219.14
-238.30
-251.20
-263.59
-280.59
-306.46
-341.40
-386.41
-425.80
-445.52
-435.97
-396.57
-336.54
-267.81
-215.98
-183.61
-167.13
-161.49
-164.63
-176.40
-189.74
-202.96
-215.65
-228.83
-242.48
-260.36
-287.14
-327.62
-382.65
-447.29
-512.66
-566.05
-596.12
-594.91
-563.20
-507.25
-435.68
-354.92
-267.74
-175.45
-77.66
24.23
127.07
224.55
310.05
378.84
429.36
462.91
481.52
490.03
493.99
499.60
511.41
531.65
559.46
591.08
620.84
635.45
625.73
589.96
535.68
475.58
420.80
376.39
341.57
316.08
296.10
280.80
270.57
265.02
261.82
257.06
246.97
229.14
203.67
171.68
135.55
96.70
54.75
7.55
-47.75
-113.29
-189.08
-272.44
-358.71
-440.82
-511.42
-564.55
-596.96
-608.62
-602.33
-582.48
-553.95
-521.27
-487.27
-453.18
-418.75
-382.81
-344.20
-302.59
-259.04
-215.78
-175.65
-140.67
-111.44
-87.23
-66.83
-49.28
-34.22
-21.45
-10.37
0.24
12.04
26.25
42.98
60.96
78.02
91.98
101.42
106.22
107.35
106.33
104.63
103.04
101.57
99.64
96.54
91.96
86.15
79.76
73.34
67.08
60.65
53.66
46.00
38.21
31.28
26.28
23.83
23.84
25.74
28.94
33.25
38.91
46.24
54.98
64.09
71.91
76.85
78.22
76.44
72.83
68.88
65.40
62.30
58.93
54.70
49.64
44.45
40.00
36.74
34.29
31.63
27.59
21.51
13.60
4.82
-3.55
-10.51
-15.67
-19.28
-21.95
-24.34
-26.86
-29.64
-32.66
-35.82
-39.12
-42.43
-45.47
-47.57
-47.70
-44.72
-37.77
-26.68
-12.21
4.06
20.30
34.91
46.89
55.89
61.74
64.25
63.05
57.97
49.43
38.58
27.17
16.84
8.58
2.47
-2.08
-5.75
-8.87
-11.35
-13.00
-13.87
-14.48
-15.50
-17.39
-20.02
-22.74
-24.73
-25.52
-25.22
-24.46
-23.93
-23.88
-23.94
-23.28
-21.02
-16.74
-10.72
-3.85
2.73
7.98
11.41
13.05
13.41
13.14
12.82
12.72
12.82
13.00
13.24
13.75
14.87
16.76
19.16
21.38
22.52
21.94
19.59
16.10
12.52
9.82
8.55
8.71
9.91
11.61
13.40
14.97
16.12
16.72
16.73
16.30
15.77
15.69
16.56
18.58
21.53
24.73
27.31
28.53
28.09
26.21
23.48
20.51
17.69
15.02
12.31
9.38
6.25
3.19
0.47
-1.85
-4.04
-6.53
-9.64
-13.33
-17.09
-20.28
-22.45
-23.68
-24.63
-26.26
-29.34
-34.09
-40.11
-46.59
-52.75
-58.10
-62.61
-66.46
-69.83
-72.82
-75.34
-77.23
-78.22
-78.00
-76.20
-72.61
-67.28
-60.70
-53.78
-47.53
-42.73
-39.57
-37.74
-36.62
-35.63
-34.43
-32.91
-31.00
-28.55
-25.15
-20.27
-13.42
-4.38
6.50
18.36
29.95
40.03
47.79
53.12
56.58
59.07
61.36
63.83
66.26
68.16
69.03
68.59
66.80
63.69
59.41
54.22
48.73
43.77
40.29
38.93
39.84
42.61
46.51
50.80
54.94
58.56
61.35
62.94
63.01
61.43
58.45
54.58
50.42
46.31
42.20
37.84
32.95
27.49
21.74
16.14
11.19
7.10
3.85
1.17
-1.29
-3.73
-6.20
-8.57
-10.62
-12.22
-13.43
-14.47
-15.58
-16.95
-18.55
-20.21
-21.68
-22.84
-23.70
-24.41
-25.15
-26.09
-27.35
-28.96
-30.87
-32.81
-34.26
-34.57
-33.12
-29.53
-23.96
-17.06
-9.85
-3.36
1.73
5.14
7.03
7.79
7.76
7.20
6.21
4.87
3.33
1.83
0.65
0.03
0.07
0.68
1.66
2.73
3.65
4.21
4.33
4.04
3.44
2.68
1.80
0.81
-0.39
-1.87
-3.65
-5.62
-7.57
-9.35
-10.89
-12.19
-13.19
-13.66
-13.19
-11.37
-7.98
-3.20
2.36
7.92
12.86
16.83
19.91
22.35
24.33
25.81
26.59
26.54
25.83
24.96
24.56
25.10
26.53
28.24
29.32
28.99
27.02
23.94
20.83
18.84
18.83
20.96
24.68
29.11
33.34
36.77
39.30
41.12
42.50
43.55
44.31
44.91
45.74
47.24
49.50
51.72
52.25
49.42
42.63
33.22
24.13
18.64
18.61
23.76
32.00
40.83
48.53
54.52
58.59
59.88
56.38
45.65
26.22
-1.31
-34.07
-67.97
-99.18
-125.26
-145.35
-159.76
-169.21
-174.37
-175.80
-174.04
-169.78
-163.84
-157.09
-150.24
-143.68
-137.45
-131.23
-124.45
-116.45
-106.63
-94.78
-81.17
-66.59
-52.01
-38.41
-26.36
-16.02
-7.19
0.36
6.77
11.99
15.88
18.45
19.96
20.85
21.65
22.80
24.48
26.62
28.90
30.78
31.71
31.18
28.99
25.29
20.55
15.37
10.27
5.47
0.87
-3.78
-8.80
-14.27
-19.95
-25.37
-29.87
-32.86
-34.00
-33.27
-30.94
-27.50
-23.50
-19.39
-15.44
-11.74
-8.12
-4.18
0.57
6.64
14.26
23.33
33.32
43.35
52.37
59.32
63.27
63.59
60.21
53.62
44.97
35.87
28.01
22.77
20.90
22.39
26.61
32.45
38.67
44.10
47.81
49.23
48.19
44.88
39.84
33.82
27.67
22.22
18.20
16.01
15.67
16.81
18.78
20.84
22.46
23.35
23.59
23.42
23.12
22.83
22.60
22.36
22.02
21.59
21.07
20.52
19.96
19.36
18.71
17.99
17.11
15.99
14.54
12.64
10.27
7.57
4.77
2.14
-0.15
-2.11
-3.90
-5.71
-7.64
-9.69
-11.81
-13.89
-15.86
-17.57
-18.72
-18.91
-17.75
-15.08
-11.12
-6.43
-1.81
2.12
5.05
6.97
8.15
8.82
9.13
9.07
8.63
7.87
6.97
6.22
5.84
5.91
6.30
6.79
7.13
7.16
6.82
6.17
5.30
4.32
3.29
2.25
1.23
0.22
-0.77
-1.73
-2.66
-3.55
-4.39
-5.18
-5.97
-6.88
-8.09
-9.79
-12.03
-14.65
-17.19
-19.05
-19.66
-18.70
-16.28
-12.83
-9.03
-5.45
-2.47
-0.17
1.51
2.72
3.56
4.08
4.31
4.30
4.18
4.11
4.22
4.62
5.30
6.12
6.92
7.53
7.81
7.74
7.38
6.79
6.07
5.23
4.29
3.22
2.07
0.90
-0.16
-0.99
-1.55
-1.85
-1.95
-1.97
-2.01
-2.20
-2.72
-3.73
-5.33
-7.49
-9.93
-12.16
-13.63
-13.85
-12.68
-10.30
-7.21
-3.99
-1.13
1.08
2.56
3.39
3.72
3.70
3.49
3.24
3.11
3.24
3.70
4.44
5.33
6.15
6.72
6.93
6.76
6.27
5.55
4.67
3.66
2.57
1.47
0.45
-0.40
-1.04
-1.51
-1.92
-2.38
-2.92
-3.51
-4.04
-4.41
-4.55
-4.53
-4.46
-4.54
-4.93
-5.74
-6.91
-8.27
-9.53
-10.38
-10.54
-9.80
-8.14
-5.64
-2.59
0.62
3.53
5.71
6.98
7.31
6.90
6.05
5.02
3.94
2.87
1.83
0.93
0.32
0.11
0.31
0.76
1.19
1.38
1.24
0.87
0.44
0.12
-0.04
-0.09
-0.13
-0.27
-0.57
-1.05
-1.69
-2.43
-3.19
-3.92
-4.59
-5.19
-5.82
-6.59
-7.57
-8.82
-10.29
-11.84
-13.28
-14.35
-14.78
-14.32
-12.81
-10.35
-7.24
-4.00
-1.19
0.72
1.53
1.32
0.37
-0.93
-2.30
-3.52
-4.50
-5.21
-5.60
-5.66
-5.43
-4.97
-4.42
-3.97
-3.76
-3.92
-4.54
-5.68
-7.34
-9.48
-11.92
-14.46
-16.84
-18.89
-20.57
-22.02
-23.51
-25.36
-27.78
-30.82
-34.29
-37.85
-41.15
-43.99
-46.37
-48.52
-50.87
-53.93
-58.10
-63.33
-68.85
-73.08
-73.94
-69.55
-59.07
-43.37
-24.88
-6.87
7.76
17.57
22.89
25.58
28.15
32.77
40.62
51.62
64.66
77.91
89.23
96.62
98.72
95.24
87.12
76.42
65.75
57.44
52.82
52.01
53.89
56.74
58.89
59.24
57.40
53.42
47.36
39.08
28.44
15.67
1.68
-12.02
-23.86
-32.71
-38.31
-41.11
-41.81
-40.93
-38.84
-35.78
-32.12
-28.19
-24.05
-19.41
-13.92
-7.74
-1.88
2.01
2.38
-1.39
-8.64
-17.79
-27.14
-35.64
-43.06
-49.65
-55.53
-60.47
-63.96
-65.63
-65.59
-64.48
-63.28
-63.00
-64.33
-67.24
-70.86
-73.59
-73.60
-69.51
-60.84
-47.95
-31.65
-12.61
8.56
31.00
53.03
72.17
85.80
92.26
91.68
85.88
77.50
68.75
60.60
52.79
44.65
35.77
26.35
16.98
8.14
0.02
-7.49
-14.45
-20.69
-25.66
-28.48
-28.12
-23.66
-14.71
-1.72
13.89
30.00
44.42
55.58
62.97
66.98
68.48
68.27
66.83
64.43
61.41
58.41
56.20
55.46
56.40
58.68
61.61
64.34
66.28
67.23
67.46
67.52
67.97
68.97
70.21
70.84
70.00
67.19
62.57
56.83
50.72
44.58
38.05
30.44
21.13
10.12
-1.95
-14.04
-25.30
-35.37
-44.38
-52.62
-60.17
-66.77
-72.10
-76.02
-78.96
-81.77
-85.29
-89.81
-94.78
-98.96
-100.97
-99.94
-96.02
-90.34
-84.45
-79.82
-77.24
-76.77
-77.93
-79.97
-81.94
-82.50
-79.92
-72.30
-58.45
-38.43
-13.77
13.09
39.85
65.16
88.81
110.78
130.33
145.45
153.54
152.88
143.90
129.33
113.11
98.53
86.89
77.34
68.00
57.26
44.70
30.99
17.17
3.75
-9.57
-23.63
-39.06
-55.71
-72.37
-87.08
-97.68
-102.61
-101.48
-95.37
-86.48
-77.34
-69.93
-65.05
-62.15
-59.86
-56.66
-51.57
-44.41
-35.80
-26.86
-18.95
-13.33
-10.81
-11.41
-14.20
-17.35
-18.66
-16.37
-9.84
-0.00
10.96
20.27
25.64
26.00
21.84
14.90
7.37
1.07
-3.17
-5.53
-6.86
-8.06
-9.63
-11.47
-13.19
-14.45
-15.19
-15.71
-16.38
-17.38
-18.57
-19.60
-20.20
-20.42
-20.62
-21.26
-22.62
-24.58
-26.64
-28.17
-28.76
-28.47
-27.72
-27.09
-26.90
-27.12
-27.28
-26.81
-25.24
-22.46
-18.63
-14.18
-9.55
-5.16
-1.33
1.72
3.86
5.08
5.55
5.65
5.86
6.68
8.39
11.00
14.21
17.54
20.46
22.59
23.72
23.88
23.22
21.91
20.08
17.80
15.07
11.89
8.34
4.61
0.93
-2.49
-5.56
-8.41
-11.29
-14.35
-17.53
-20.42
-22.42
-22.95
-21.74
-18.96
-15.18
-11.12
-7.46
-4.54
-2.40
-0.85
0.34
1.33
2.13
2.72
3.07
3.26
3.48
3.90
4.66
5.69
6.87
7.92
8.61
8.73
8.23
7.18
5.73
4.07
2.37
0.73
-0.82
-2.30
-3.76
-5.24
-6.80
-8.60
-10.81
-13.59
-16.91
-20.49
-23.74
-25.91
-26.30
-24.58
-20.88
-15.74
-9.97
-4.36
0.52
4.44
7.35
9.36
10.63
11.31
11.71
12.17
13.13
14.87
17.45
20.55
23.64
26.15
27.68
28.11
27.58
26.34
24.64
22.62
20.32
17.78
15.10
12.46
10.06
8.09
6.57
5.43
4.45
3.36
1.95
0.12
-2.12
-4.69
-7.53
-10.65
-14.11
-17.90
-21.84
-25.53
-28.43
-30.02
-30.00
-28.37
-25.39
-21.41
-16.64
-11.12
-4.78
2.32
9.82
17.08
23.47
28.74
33.14
37.33
41.93
47.12
52.38
56.68
58.94
58.53
55.59
50.97
45.89
41.49
38.53
37.17
37.09
37.64
38.17
38.24
37.82
37.21
36.92
37.43
38.94
41.31
44.16
46.96
49.26
50.76
51.34
50.96
49.66
47.38
44.07
39.69
34.33
28.22
21.74
15.30
9.27
3.93
-0.59
-4.39
-7.99
-12.30
-18.37
-26.94
-37.92
-50.19
-61.79
-70.70
-75.56
-76.20
-73.56
-69.06
-63.97
-58.97
-54.28
-49.93
-46.12
-43.15
-41.15
-39.82
-38.46
-36.27
-32.74
-28.00
-22.64
-17.43
-12.86
-9.02
-5.65
-2.43
0.79
3.94
6.76
9.01
10.59
11.46
11.65
11.19
10.16
8.77
7.39
6.47
6.37
7.20
8.72
10.45
11.85
12.61
12.72
12.38
11.88
11.37
10.79
10.04
9.08
7.97
6.84
5.71
4.40
2.59
0.08
-3.02
-6.13
-8.39
-9.05
-7.79
-4.91
-1.17
2.53
5.53
7.60
8.93
9.93
11.04
12.52
14.42
16.61
18.86
20.88
22.46
23.47
23.93
23.90
23.55
22.99
22.28
21.54
20.87
20.39
20.16
20.10
19.97
19.49
18.44
16.77
14.63
12.31
10.09
8.17
6.56
5.15
3.75
2.23
0.53
-1.23
-2.85
-4.10
-4.82
-5.01
-4.74
-4.15
-3.39
-2.54
-1.66
-0.83
-0.13
0.34
0.58
0.62
0.55
0.39
0.20
0.08
0.32
1.40
3.86
8.12
14.13
21.24
28.37
34.37
38.40
40.31
40.61
40.19
39.84
39.86
39.88
39.11
36.75
32.50
26.77
20.61
15.21
11.44
9.55
9.21
9.83
10.87
12.02
13.22
14.44
15.51
16.12
15.96
14.92
13.15
11.00
8.86
6.95
5.32
3.85
2.35
0.74
-1.03
-2.89
-4.71
-6.35
-7.74
-8.89
-9.88
-10.84
-11.83
-12.91
-14.01
-15.04
-15.92
-16.64
-17.24
-17.88
-18.69
-19.77
-21.10
-22.43
-23.38
-23.52
-22.48
-20.17
-16.88
-13.19
-9.81
-7.29
-5.83
-5.32
-5.41
-5.71
-5.97
-6.12
-6.21
-6.26
-6.31
-6.29
-6.15
-5.87
-5.48
-5.00
-4.46
-3.85
-3.13
-2.36
-1.58
-0.93
-0.59
-0.67
-1.24
-2.25
-3.57
-5.01
-6.37
-7.50
-8.34
-8.93
-9.38
-9.84
-10.39
-11.01
-11.60
-12.01
-12.14
-11.99
-11.69
-11.48
-11.65
-12.39
-13.73
-15.51
-17.36
-18.96
-20.04
-20.61
-20.82
-20.92
-21.07
-21.29
-21.42
-21.20
-20.36
-18.67
-16.00
-12.30
-7.76
-2.71
2.31
6.70
9.91
11.55
11.53
10.05
7.51
4.39
1.18
-1.75
-4.14
-5.83
-6.77
-6.94
-6.35
-5.07
-3.24
-1.08
1.14
3.13
4.64
5.55
5.83
5.57
4.91
4.05
3.17
2.43
1.93
1.70
1.67
1.73
1.74
1.56
1.11
0.37
-0.68
-1.96
-3.36
-4.72
-5.91
-6.83
-7.49
-8.00
-8.48
-9.03
-9.69
-10.43
-11.25
-12.23
-13.49
-15.10
-16.99
-18.80
-20.04
-20.21
-19.06
-16.70
-13.55
-10.14
-6.93
-4.14
-1.74
0.40
2.37
4.15
5.60
6.63
7.19
7.37
7.38
7.40
7.53
7.74
7.96
8.07
8.04
7.95
7.87
7.88
7.95
7.99
7.92
7.68
7.33
6.94
6.59
6.26
5.88
5.33
4.57
3.68
2.84
2.24
1.98
1.99
2.05
1.87
1.21
-0.01
-1.66
-3.47
-5.11
-6.34
-7.07
-7.41
-7.59
-7.90
-8.61
-9.86
-11.62
-13.64
-15.51
-16.74
-16.95
-15.94
-13.80
-10.90
-7.71
-4.75
-2.35
-0.65
0.51
1.49
2.59
3.85
4.84
4.83
3.09
-0.66
-6.00
-11.76
-16.48
-18.88
-18.33
-15.02
-9.70
-3.39
3.00
8.87
13.87
17.76
20.38
21.59
21.43
20.18
18.32
16.42
14.93
14.01
13.52
13.07
12.27
10.93
9.06
6.87
4.67
2.73
1.20
0.07
-0.75
-1.44
-2.18
-3.13
-4.36
-5.89
-7.66
-9.60
-11.61
-13.52
-15.07
-15.90
-15.64
-14.06
-11.18
-7.37
-3.21
0.66
3.74
5.81
6.91
7.26
7.09
6.65
6.14
5.73
5.58
5.82
6.47
7.45
8.57
9.64
10.51
11.11
11.47
11.64
11.72
11.73
11.72
11.69
11.62
11.51
11.35
11.20
11.14
11.23
11.52
11.89
12.14
12.02
11.37
10.16
8.62
7.13
6.06
5.65
5.85
6.36
6.73
6.54
5.51
3.55
0.82
-2.30
-5.25
-7.40
-8.29
-7.77
-6.26
-4.73
-4.46
-6.59
-11.63
-19.21
-28.11
-36.66
-43.30
-47.01
-47.52
-45.20
-40.78
-35.10
-28.87
-22.64
-16.87
-11.95
-8.24
-5.92
-4.93
-4.81
-4.87
-4.31
-2.59
0.37
4.14
7.94
11.00
12.76
13.07
12.03
9.93
7.09
3.80
0.40
-2.68
-4.89
-5.69
-4.64
-1.74
2.56
7.35
11.53
14.15
14.83
13.86
12.08
10.56
10.04
10.70
12.15
13.67
14.61
14.75
14.26
13.53
12.95
12.69
12.59
12.42
11.90
11.02
9.97
9.09
8.61
8.63
8.88
8.98
8.58
7.47
5.80
3.93
2.24
0.96
0.06
-0.73
-1.70
-2.97
-4.52
-6.17
-7.69
-8.96
-9.98
-10.84
-11.68
-12.57
-13.49
-14.39
-15.19
-15.90
-16.56
-17.27
-18.12
-19.13
-20.19
-21.05
-21.45
-21.19
-20.28
-18.86
-17.21
-15.61
-14.23
-13.09
-12.15
-11.33
-10.56
-9.83
-9.07
-8.20
-7.05
-5.50
-3.48
-1.12
1.33
3.53
5.20
6.21
6.66
6.73
6.62
6.42
6.04
5.34
4.16
2.51
0.51
-1.56
-3.43
-4.95
-6.11
-7.09
-8.04
-9.09
-10.23
-11.36
-12.35
-13.20
-14.01
-14.88
-15.83
-16.68
-17.05
-16.55
-14.92
-12.19
-8.80
-5.29
-2.21
0.17
1.92
3.29
4.56
5.82
6.99
7.87
8.37
8.52
8.51
8.59
8.92
9.56
10.49
11.60
12.74
13.71
14.25
14.17
13.44
12.23
10.92
9.88
9.30
9.13
9.09
8.87
8.19
7.05
5.57
3.97
2.43
1.06
-0.11
-1.11
-1.97
-2.80
-3.68
-4.76
-6.08
-7.58
-9.01
-10.06
-10.33
-9.53
-7.60
-4.68
-1.19
2.33
5.36
7.51
8.64
8.85
8.41
7.56
6.60
5.70
5.02
4.73
4.94
5.64
6.68
7.78
8.65
9.11
9.15
8.89
8.53
8.16
7.76
7.23
6.48
5.53
4.55
3.70
3.09
2.70
2.33
1.76
0.86
-0.35
-1.72
-3.00
-4.03
-4.78
-5.30
-5.76
-6.37
-7.26
-8.54
-10.17
-12.00
-13.75
-15.08
-15.60
-15.00
-13.19
-10.29
-6.71
-2.98
0.38
3.01
4.78
5.78
6.25
6.44
6.54
6.63
6.74
6.90
7.18
7.64
8.31
9.15
10.07
10.93
11.62
12.09
12.36
12.45
12.38
12.09
11.56
10.79
9.84
8.84
7.90
7.13
6.57
6.19
5.97
5.80
5.60
5.29
4.77
3.99
3.01
1.93
0.91
0.07
-0.53
-0.92
-1.19
-1.40
-1.63
-1.91
-2.25
-2.75
-3.48
-4.52
-5.89
-7.49
-9.10
-10.43
-11.15
-10.96
-9.71
-7.46
-4.45
-1.16
1.91
4.34
5.94
6.77
7.06
7.06
6.95
6.80
6.64
6.51
6.47
6.63
7.04
7.61
8.23
8.72
9.01
9.10
9.09
9.07
9.02
8.78
7.99
6.24
3.29
-0.83
-5.74
-10.82
-15.52
-19.62
-23.27
-26.85
-30.70
-34.78
-38.60
-41.31
-41.98
-39.89
-34.78
-26.93
-17.08
-6.30
4.28
13.58
20.84
25.65
27.98
28.03
26.24
23.19
19.54
15.96
12.99
11.01
10.15
10.34
11.25
12.39
13.16
12.88
11.01
7.34
2.15
-3.86
-9.75
-14.64
-17.90
-19.18
-18.36
-15.45
-10.61
-4.27
2.83
9.67
15.18
18.53
19.39
18.00
15.10
11.63
8.45
6.17
5.00
4.81
5.27
5.89
6.23
5.97
4.91
3.04
0.60
-1.98
-4.09
-5.14
-4.67
-2.66
0.27
2.89
3.55
0.76
-6.16
-16.73
-29.33
-41.74
-51.96
-58.76
-61.79
-61.34
-57.72
-51.08
-41.38
-28.84
-14.22
1.09
15.40
27.23
35.67
40.54
42.20
41.31
38.56
34.58
29.88
24.98
20.41
16.64
14.02
12.66
12.33
12.59
12.92
12.84
12.13
10.76
8.93
6.91
5.00
3.41
2.26
1.58
1.27
1.20
1.17
0.98
0.42
-0.64
-2.25
-4.29
-6.51
-8.57
-10.14
-11.07
-11.42
-11.49
-11.74
-12.57
-14.20
-16.51
-19.09
-21.29
-22.46
-22.16
-20.29
-17.17
-13.34
-9.44
-5.91
-2.93
-0.47
1.56
3.24
4.55
5.39
5.69
5.50
4.95
4.28
3.71
3.36
3.29
3.46
3.78
4.21
4.73
5.39
6.23
7.26
8.43
9.61
10.65
11.38
11.70
11.62
11.23
10.66
10.11
9.70
9.41
9.15
8.70
7.92
6.73
5.18
3.47
1.83
0.46
-0.54
-1.19
-1.57
-1.83
-2.05
-2.27
-2.49
-2.74
-3.10
-3.71
-4.71
-6.15
-7.95
-9.87
-11.67
-13.05
-13.84
-13.94
-13.37
-12.22
-10.66
-8.92
-7.21
-5.73
-4.57
-3.72
-3.14
-2.81
-2.73
-2.92
-3.35
-3.87
-4.30
-4.46
-4.26
-3.78
-3.14
-2.54
-2.08
-1.83
-1.72
-1.68
-1.63
-1.50
-1.20
-0.68
0.04
0.91
1.82
2.68
3.36
3.85
4.14
4.23
4.15
3.91
3.53
3.01
2.29
1.33
0.11
-1.32
-2.76
-3.91
-4.51
-4.42
-3.67
-2.53
-1.32
-0.32
0.27
0.40
0.11
-0.49
-1.29
-2.15
-2.95
-3.53
-3.79
-3.68
-3.22
-2.52
-1.68
-0.85
-0.15
0.36
0.64
0.70
0.61
0.45
0.27
0.12
-0.06
-0.31
-0.68
-1.18
-1.73
-2.23
-2.58
-2.77
-2.87
-3.03
-3.42
-4.14
-5.23
-6.61
-8.13
-9.63
-10.97
-12.05
-12.79
-13.10
-12.88
-12.03
-10.52
-8.44
-6.02
-3.60
-1.54
-0.11
0.60
0.70
0.43
0.01
-0.40
-0.78
-1.17
-1.60
-2.00
-2.21
-2.11
-1.65
-0.99
-0.42
-0.21
-0.47
-1.11
-1.80
-2.24
-2.26
-1.86
-1.30
-0.85
-0.70
-0.85
-1.12
-1.25
-1.06
-0.52
0.29
1.15
1.88
2.33
2.40
2.04
1.24
0.07
-1.31
-2.64
-3.62
-4.04
-3.80
-3.00
-1.78
-0.32
1.25
2.81
4.30
5.56
6.48
6.99
7.09
6.98
6.89
7.07
7.60
8.43
9.39
10.26
10.89
11.21
11.26
11.07
10.72
10.21
9.56
8.77
7.85
6.83
5.71
4.47
3.17
1.84
0.61
-0.47
-1.37
-2.13
-2.83
-3.50
-4.14
-4.68
-5.07
-5.30
-5.48
-5.78
-6.43
-7.61
-9.36
-11.59
-13.99
-16.13
-17.55
-17.92
-17.07
-15.11
-12.30
-9.02
-5.66
-2.59
-0.04
1.98
3.73
5.64
8.22
11.78
16.28
21.30
26.22
30.50
33.91
36.55
38.73
40.74
42.71
44.65
46.53
48.43
50.51
52.97
55.86
58.99
61.93
64.18
65.37
65.41
64.46
62.90
61.15
59.52
58.19
57.27
56.90
57.31
58.79
61.38
64.75
68.10
70.29
70.17
66.91
60.21
50.39
38.29
24.98
11.62
-0.80
-11.55
-20.18
-26.51
-30.60
-32.59
-32.70
-31.19
-28.41
-24.75
-20.72
-16.85
-13.67
-11.59
-10.88
-11.66
-13.83
-17.16
-21.28
-25.80
-30.43
-34.97
-39.44
-43.89
-48.40
-52.97
-57.43
-61.44
-64.50
-66.05
-65.73
-63.63
-60.44
-57.26
-55.18
-54.88
-56.27
-58.59
-60.73
-61.60
-60.55
-57.42
-52.44
-46.08
-38.89
-31.43
-24.20
-17.64
-12.02
-7.43
-3.73
-0.67
2.09
4.91
8.02
11.48
15.09
18.50
21.38
23.64
25.45
27.11
28.89
30.77
32.43
33.31
32.82
30.45
25.85
18.90
9.72
-1.08
-12.43
-23.01
-31.76
-38.36
-43.54
-48.72
-55.36
-64.17
-74.68
-85.34
-94.14
-99.36
-100.31
-97.29
-91.13
-82.78
-72.90
-62.19
-51.61
-42.65
-36.67
-34.14
-33.93
-33.38
-29.56
-20.83
-7.93
6.22
17.92
24.68
26.11
23.78
19.87
15.68
11.21
5.74
-0.85
-7.52
-12.57
-15.12
-16.40
-19.69
-28.71
-45.27
-67.91
-92.27
-113.02
-126.48
-132.21
-132.80
-132.35
-134.24
-139.80
-148.29
-157.84
-166.29
-171.80
-173.04
-169.22
-160.02
-146.05
-128.82
-110.80
-95.03
-84.12
-79.34
-79.62
-81.25
-78.53
-65.59
-38.45
3.35
56.20
113.20
165.99
207.14
231.99
239.77
233.54
219.15
203.39
192.23
188.87
193.02
201.37
209.02
211.21
204.78
188.86
164.86
135.93
106.26
80.22
61.39
51.95
52.03
60.06
73.16
87.59
99.49
105.32
102.51
90.10
69.22
43.03
16.04
-7.28
-23.76
-32.29
-33.74
-30.17
-23.78
-16.17
-8.19
-0.17
7.72
15.19
21.61
26.08
27.39
24.24
15.52
0.71
-19.53
-43.18
-67.04
-87.28
-100.54
-104.90
-100.60
-89.92
-76.33
-63.01
-51.60
-41.61
-30.99
-17.40
0.37
21.70
44.46
66.14
85.19
101.53
116.17
130.21
143.91
156.44
166.26
171.91
172.62
168.36
159.69
147.44
132.46
115.55
97.48
78.89
60.31
42.15
24.88
9.09
-4.50
-15.19
-22.64
-27.04
-29.08
-29.87
-30.55
-31.95
-34.23
-36.72
-38.26
-37.95
-35.79
-32.80
-30.55
-30.18
-31.67
-33.75
-34.65
-33.26
-29.78
-25.78
-23.39
-24.19
-28.37
-34.50
-40.13
-42.58
-40.00
-31.94
-19.45
-4.74
9.66
21.51
29.26
32.14
30.06
23.64
14.28
4.05
-4.75
-10.27
-11.75
-9.74
-5.71
-1.30
2.40
5.06
6.77
7.56
7.21
5.30
1.65
-3.55
-9.68
-15.93
-21.46
-25.51
-27.52
-26.98
-23.72
-18.11
-11.39
-5.70
-3.47
-6.36
-14.17
-24.26
-32.23
-33.71
-26.73
-13.09
1.96
11.93
12.27
2.64
-12.85
-27.63
-35.75
-34.29
-23.90
-7.67
10.78
28.72
44.52
57.14
65.47
68.27
64.70
55.04
40.86
24.64
9.01
-3.86
-12.93
-18.34
-21.35
-23.75
-27.17
-32.31
-38.46
-43.74
-45.90
-43.34
-35.89
-24.86
-12.36
-0.51
9.27
16.43
21.08
23.58
24.28
23.29
20.38
15.02
6.48
-5.64
-20.63
-36.42
-49.94
-58.29
-60.00
-55.90
-48.72
-41.65
-36.77
-34.30
-33.11
-32.02
-30.75
-29.71
-28.82
-26.76
-21.30
-11.26
1.57
12.15
14.53
5.52
-12.43
-31.50
-42.15
-38.24
-20.51
3.69
24.25
33.35
28.97
14.87
-2.12
-15.90
-23.59
-26.06
-26.17
-26.42
-27.08
-26.04
-20.41
-8.92
6.32
20.07
26.20
21.06
5.94
-13.15
-28.25
-33.65
-28.79
-18.14
-8.07
-2.84
-2.31
-2.81
-0.54
5.16
11.13
12.55
6.61
-5.00
-16.83
-22.62
-18.89
-6.55
10.34
27.18
40.80
49.58
52.15
46.35
30.05
3.32
-29.82
-61.56
-83.22
-88.94
-78.32
-56.20
-30.16
-7.20
8.46
15.89
16.56
13.01
7.94
3.76
2.17
3.81
8.25
14.04
19.30
22.45
22.53
19.38
13.32
4.92
-5.04
-15.38
-24.46
-30.46
-32.00
-28.83
-22.11
-14.02
-6.94
-2.43
-0.76
-0.94
-1.51
-1.29
-0.03
1.57
2.28
1.14
-2.08
-6.54
-10.75
-13.04
-12.26
-8.13
-1.25
7.15
15.81
23.95
31.45
38.78
46.55
55.03
63.83
71.92
77.96
80.76
79.62
74.40
65.38
53.14
38.45
22.33
6.18
-8.30
-19.40
-25.76
-26.90
-23.31
-16.39
-8.10
-0.45
4.91
7.00
5.63
1.29
-4.93
-11.65
-17.46
-21.30
-22.53
-20.91
-16.52
-9.73
-1.24
7.95
16.49
22.98
26.34
26.15
22.78
17.24
10.74
4.33
-1.39
-6.20
-9.95
-12.35
-12.92
-11.32
-7.71
-2.94
1.57
4.43
4.67
2.20
-2.30
-7.91
-14.03
-20.64
-27.94
-35.88
-43.72
-50.15
-53.62
-52.73
-46.47
-34.38
-17.03
3.65
24.28
40.78
49.85
50.54
44.78
36.70
30.48
28.29
29.47
31.58
32.46
31.94
31.58
32.89
35.56
37.33
35.49
29.26
20.88
14.44
13.24
17.27
22.79
24.36
18.02
3.60
-15.14
-32.57
-43.84
-46.81
-42.14
-32.27
-20.14
-8.35
1.16
7.30
9.86
9.60
8.09
7.16
8.25
11.78
16.81
21.27
22.65
18.91
9.35
-4.91
-21.07
-35.51
-44.95
-47.39
-42.63
-32.13
-18.52
-4.87
5.95
11.81
11.64
5.69
-4.50
-16.47
-27.45
-35.03
-37.82
-35.83
-30.36
-23.65
-18.16
-15.59
-16.23
-18.82
-20.99
-20.56
-16.66
-10.27
-3.71
0.61
1.37
-1.07
-4.91
-7.89
-8.28
-5.57
-0.54
5.14
9.65
11.51
10.14
5.89
-0.26
-7.19
-14.11
-20.77
-27.35
-34.07
-40.86
-47.26
-52.66
-56.71
-59.53
-61.54
-63.11
-64.32
-64.81
-63.92
-61.05
-55.83
-48.39
-39.14
-28.86
-18.49
-9.06
-1.31
4.42
8.63
12.53
17.61
24.92
34.49
45.25
55.46
63.54
68.56
70.50
69.82
67.11
63.01
58.16
53.40
49.49
47.00
45.91
45.90
46.59
48.10
51.34
57.83
69.03
85.41
105.74
126.91
144.66
154.90
155.25
146.11
130.50
113.01
97.90
87.63
82.33
80.55
80.66
82.08
85.59
92.57
103.96
119.39
137.10
154.41
168.40
176.49
176.68
167.75
149.17
121.16
84.73
41.54
-6.34
-56.86
-108.57
-160.91
-213.99
-267.80
-321.05
-370.35
-410.30
-434.64
-438.43
-420.02
-381.92
-330.15
-272.31
-215.36
-164.17
-121.10
-86.64
-60.29
-41.04
-27.55
-17.87
-9.64
-0.60
10.54
23.46
36.12
45.38
48.56
44.91
36.28
26.77
20.98
21.82
28.50
36.33
38.33
28.21
3.25
-34.42
-78.61
-121.55
-156.69
-180.31
-191.55
-191.38
-181.26
-162.74
-137.57
-108.01
-76.63
-45.57
-15.71
13.60
43.97
76.68
111.41
145.77
175.94
197.83
208.68
208.04
197.95
182.14
164.76
149.04
136.46
126.71
118.42
110.19
101.33
91.95
82.65
74.02
66.37
59.85
54.56
50.60
47.86
45.72
42.83
37.45
28.13
14.47
-2.44
-20.34
-36.46
-48.35
-54.60
-54.87
-49.80
-40.72
-29.43
-18.16
-9.36
-5.11
-6.55
-13.19
-22.82
-32.28
-38.69
-40.38
-37.55
-32.04
-26.46
-23.21
-23.53
-27.08
-32.03
-35.53
-34.50
-26.69
-11.65
8.57
29.72
46.41
53.91
49.95
35.81
16.15
-2.56
-14.07
-14.54
-3.87
14.07
32.48
43.70
42.02
25.92
-1.23
-32.31
-59.27
-76.23
-81.41
-77.14
-68.12
-58.94
-52.20
-48.17
-45.64
-43.19
-40.04
-35.95
-30.54
-22.96
-12.30
1.42
16.59
30.13
38.95
41.54
38.57
31.85
22.24
8.13
-13.75
-45.37
-84.15
-121.62
-145.48
-144.30
-112.61
-53.83
20.57
94.72
153.37
186.02
188.99
165.62
124.98
79.60
42.46
23.71
27.72
51.72
86.78
120.87
142.80
145.40
126.79
89.21
36.93
-25.48
-93.21
-160.46
-219.38
-261.07
-278.11
-267.28
-231.02
-176.27
-111.31
-43.20
23.09
83.31
132.13
162.40
166.63
140.29
84.79
8.72
-73.86
-147.17
-198.09
-219.09
-209.05
-171.85
-114.55
-45.55
25.96
90.19
137.42
159.42
151.14
112.09
46.84
-36.15
-126.18
-212.33
-285.14
-337.85
-367.42
-375.38
-367.26
-351.04
-334.57
-323.07
-318.10
-318.11
-320.33
-322.32
-322.63
-320.55
-315.30
-305.92
-291.44
-271.67
-247.52
-220.87
-194.09
-169.22
-147.43
-128.86
-112.81
-98.17
-83.96
-69.57
-54.88
-40.12
-25.67
-11.80
1.47
14.35
27.31
40.94
55.73
71.97
89.68
108.51
127.91
147.28
166.19
184.50
202.39
220.26
238.78
258.93
282.00
309.30
341.32
376.80
412.29
442.57
462.14
467.15
456.75
433.31
401.38
365.96
330.98
298.78
270.31
245.86
225.46
208.86
195.20
182.92
170.06
154.99
137.07
116.78
95.54
75.09
56.94
41.94
30.36
21.99
16.35
12.86
10.84
9.50
7.98
5.49
1.55
-3.96
-10.72
-18.13
-25.44
-32.05
-37.70
-42.47
-46.75
-50.97
-55.43
-60.28
-65.51
-70.96
-76.30
-81.05
-84.81
-87.28
-88.24
-87.14
-82.86
-73.79
-58.58
-37.12
-11.39
14.58
35.83
48.26
50.38
43.87
32.99
22.91
17.82
19.62
27.60
38.99
50.21
58.12
60.82
58.02
50.76
40.69
29.86
20.39
14.45
13.74
18.90
28.77
40.55
50.69
56.23
55.97
50.65
42.41
33.60
25.97
20.46
17.62
17.99
21.82
28.80
37.50
45.79
51.57
53.59
51.70
46.41
38.18
27.07
13.11
-3.10
-19.86
-34.60
-44.63
-48.12
-44.82
-35.99
-23.90
-11.00
0.65
9.49
14.60
15.63
12.93
7.41
0.40
-6.73
-12.92
-17.71
-21.23
-24.02
-26.71
-29.64
-32.66
-35.18
-36.40
-35.70
-33.03
-28.85
-23.96
-19.06
-14.54
-10.34
-6.17
-1.78
2.80
7.30
11.30
14.52
16.96
18.91
20.78
22.79
24.80
26.27
26.62
25.46
22.83
19.13
14.80
10.15
5.35
0.77
-2.82
-4.31
-2.79
1.75
8.04
13.89
17.01
15.99
10.94
3.37
-4.61
-11.14
-15.30
-17.17
-17.58
-17.52
-17.64
-17.94
-17.88
-16.96
-15.23
-13.58
-13.33
-15.37
-19.40
-23.76
-26.24
-25.54
-22.24
-18.75
-17.98
-21.57
-28.75
-36.75
-42.27
-43.31
-39.85
-33.37
-25.61
-17.61
-9.67
-1.82
5.61
12.00
16.89
20.58
24.09
28.46
33.90
39.23
42.25
40.88
34.28
23.32
10.23
-2.28
-11.99
-17.83
-19.92
-19.31
-17.51
-15.94
-15.44
-16.06
-17.04
-17.15
-15.25
-10.94
-4.72
2.24
8.78
14.28
18.73
22.28
24.58
24.69
21.52
14.96
6.34
-1.99
-7.75
-9.88
-8.76
-5.64
-1.69
2.38
6.02
8.27
7.71
3.30
-4.40
-12.61
-17.15
-14.49
-3.83
12.19
28.56
40.25
44.30
40.54
31.03
18.57
5.65
-6.16
-15.93
-22.89
-26.29
-25.56
-20.80
-13.10
-4.35
3.31
8.28
10.15
9.69
8.44
8.00
9.26
12.16
15.81
19.03
20.87
20.81
18.82
15.09
10.14
4.67
-0.42
-4.14
-5.71
-4.85
-1.87
2.43
7.12
11.47
15.03
17.63
19.26
20.00
19.94
19.08
17.30
14.44
10.44
5.41
-0.33
-6.40
-12.43
-18.14
-23.30
-27.74
-31.42
-34.47
-37.30
-40.60
-44.99
-50.62
-56.73
-61.70
-63.62
-61.13
-54.00
-43.33
-31.20
-20.03
-12.02
-8.58
-10.13
-15.92
-24.05
-31.81
-36.35
-35.70
-29.56
-19.58
-8.63
0.36
5.78
7.91
8.54
9.88
13.31
18.79
25.03
30.34
33.46
33.94
31.88
27.39
20.25
10.19
-2.36
-15.62
-26.55
-31.77
-29.08
-18.63
-3.26
12.34
23.16
25.69
19.11
5.56
-10.57
-24.19
-31.19
-29.72
-20.36
-5.65
10.94
25.91
36.37
40.50
37.69
28.88
16.67
4.92
-2.32
-2.56
3.79
13.19
20.53
21.67
15.83
6.21
-1.59
-2.43
5.70
20.70
37.57
51.03
57.94
58.14
53.65
46.69
38.37
28.48
16.68
3.68
-8.21
-16.07
-17.80
-13.53
-5.97
0.80
2.96
-1.47
-11.89
-25.50
-38.48
-47.45
-50.46
-47.39
-39.80
-30.19
-21.18
-14.67
-11.45
-11.15
-12.62
-14.54
-15.88
-16.14
-15.12
-12.86
-9.45
-5.22
-0.90
2.41
3.66
2.35
-0.97
-4.89
-7.80
-8.68
-7.61
-5.52
-3.50
-2.16
-1.29
-0.17
1.81
4.59
7.37
8.89
8.06
4.43
-1.62
-9.09
-16.78
-23.79
-29.55
-33.61
-35.40
-34.22
-29.57
-21.69
-11.91
-2.50
4.10
6.15
3.34
-3.16
-11.17
-18.20
-22.09
-21.36
-15.47
-5.06
7.99
20.73
30.10
34.11
32.66
27.64
21.97
18.22
17.49
19.22
21.71
23.30
23.17
21.54
19.28
17.27
15.91
15.10
14.50
13.87
13.12
12.15
10.61
7.96
3.59
-2.70
-10.36
-18.12
-24.41
-28.00
-28.64
-27.19
-25.27
-24.46
-25.55
-28.12
-30.72
-31.53
-29.22
-23.82
-16.86
-11.02
-9.22
-13.41
-23.53
-37.17
-50.30
-58.76
-60.13
-54.63
-44.84
-34.32
-25.95
-20.99
-19.15
-19.53
-21.41
-24.56
-28.72
-33.04
-35.96
-35.94
-32.53
-26.96
-21.68
-19.05
-19.90
-23.00
-25.74
-25.52
-21.26
-13.96
-6.30
-1.28
-0.87
-5.33
-13.37
-23.15
-33.32
-43.52
-54.24
-65.95
-78.46
-90.52
-100.02
-104.61
-102.69
-94.26
-81.08
-66.10
-52.12
-40.46
-30.22
-18.88
-3.87
15.55
37.47
57.96
73.01
80.38
80.51
75.84
69.33
63.10
58.07
54.51
52.59
52.49
53.95
55.94
56.81
55.22
50.97
45.38
40.65
38.46
38.80
39.73
38.17
30.98
16.17
-6.32
-34.45
-64.56
-92.16
-113.02
-124.36
-125.61
-118.57
-106.62
-93.30
-80.93
-70.07
-60.09
-50.46
-41.79
-35.92
-34.81
-38.87
-45.99
-51.96
-52.03
-43.05
-24.65
0.86
29.87
59.16
86.81
111.99
134.08
151.98
164.16
169.42
167.72
160.56
150.51
140.17
131.29
124.23
118.20
111.91
104.22
94.59
83.26
71.12
59.47
49.60
42.38
37.90
35.42
33.66
31.37
27.97
23.72
19.62
16.73
15.49
15.37
15.12
13.39
9.47
3.76
-2.32
-6.92
-8.60
-6.92
-2.66
2.55
6.88
8.91
8.02
4.57
-0.37
-5.28
-8.51
-8.63
-4.79
2.88
13.09
23.58
31.64
35.01
32.43
24.06
11.35
-3.42
-17.71
-29.25
-36.55
-39.09
-37.39
-32.65
-26.30
-19.50
-12.83
-6.36
-0.20
5.21
8.99
10.14
8.08
2.86
-4.97
-14.73
-25.79
-37.52
-49.00
-58.83
-65.45
-67.88
-66.53
-63.22
-60.54
-60.34
-62.70
-65.65
-66.29
-62.52
-54.45
-44.59
-36.62
-33.42
-35.47
-40.62
-45.10
-45.39
-39.79
-29.04
-15.84
-3.63
4.64
7.61
5.91
1.97
-0.63
1.68
11.34
28.73
51.84
76.81
98.99
114.11
119.30
113.42
97.21
72.95
44.05
14.38
-12.45
-33.80
-48.35
-55.97
-57.33
-53.32
-44.88
-33.22
-20.26
-8.69
-1.49
-0.78
-6.85
-17.94
-30.97
-42.89
-51.81
-57.50
-60.85
-62.94
-64.31
-64.76
-63.70
-60.73
-55.95
-49.88
-43.11
-36.16
-29.23
-22.29
-14.99
-6.80
2.95
14.62
27.89
41.55
53.67
62.26
66.00
64.80
59.84
53.24
47.37
43.97
43.68
45.96
49.48
52.80
54.95
55.68
55.20
53.78
51.42
47.85
42.90
36.93
30.90
26.13
23.64
23.75
25.85
28.78
31.32
32.69
32.74
31.91
30.91
30.38
30.64
31.57
32.66
33.22
32.68
30.82
27.87
24.35
20.84
17.72
15.09
12.82
10.76
8.92
7.41
6.38
5.88
5.78
5.89
6.13
6.64
7.75
9.81
12.93
16.87
21.03
24.68
27.29
28.66
29.04
28.84
28.43
27.96
27.31
26.30
24.84
23.09
21.48
20.52
20.62
21.90
24.21
27.28
30.87
34.84
39.09
43.13
45.88
45.70
41.06
31.56
18.79
6.24
-2.12
-3.76
0.87
8.24
13.31
11.98
3.06
-11.63
-28.85
-46.10
-62.35
-77.54
-90.96
-100.50
-103.42
-98.50
-87.84
-76.45
-69.78
-70.47
-76.64
-82.89
-83.47
-75.62
-60.79
-43.63
-29.01
-19.57
-14.98
-12.90
-10.63
-6.00
2.07
13.78
28.16
42.82
53.99
57.60
51.31
36.20
16.86
-0.48
-10.67
-11.86
-5.86
3.37
11.93
17.80
21.07
22.80
23.77
24.02
23.24
21.63
19.99
19.20
19.49
19.89
18.71
14.60
7.62
-0.36
-6.42
-7.91
-3.87
4.58
14.79
23.94
30.19
33.08
33.06
30.65
25.85
18.17
7.26
-6.49
-21.72
-36.41
-48.73
-57.74
-63.64
-67.37
-70.04
-72.34
-74.31
-75.48
-75.15
-72.80
-68.48
-62.85
-56.92
-51.67
-47.62
-44.71
-42.48
-40.35
-37.93
-35.19
-32.29
-29.42
-26.58
-23.55
-20.08
-16.08
-11.84
-7.93
-4.97
-3.25
-2.61
-2.66
-3.05
-3.69
-4.57
-5.54
-6.14
-5.86
-4.40
-2.07
0.36
2.11
3.02
3.78
5.42
8.67
13.34
18.45
22.79
25.56
26.74
26.89
26.68
26.47
26.27
25.92
25.36
24.86
24.93
26.08
28.46
31.63
34.58
36.18
35.66
33.01
29.13
25.38
23.08
22.83
24.32
26.49
28.02
27.93
25.93
22.41
18.16
13.99
10.47
7.82
5.97
4.81
4.30
4.49
5.34
6.54
7.48
7.43
5.83
2.60
-1.79
-6.59
-11.15
-15.16
-18.74
-22.14
-25.54
-28.83
-31.69
-33.73
-34.48
-33.52
-30.43
-24.94
-17.21
-8.12
0.72
7.36
10.15
8.40
2.71
-5.22
-13.17
-18.94
-21.06
-19.06
-13.59
-6.11
1.60
8.05
12.43
14.61
14.85
13.42
10.46
6.08
0.66
-4.99
-9.76
-12.60
-13.04
-11.38
-8.54
-5.67
-3.58
-2.56
-2.32
-2.23
-1.69
-0.45
1.32
3.16
4.71
5.92
7.15
9.01
12.01
16.34
21.76
27.71
33.47
38.39
42.02
44.15
44.83
44.37
43.18
41.68
40.17
38.75
37.40
36.08
34.81
33.77
33.13
32.93
32.95
32.76
31.80
29.63
26.09
21.35
15.77
9.72
3.41
-3.13
-9.91
-16.81
-23.52
-29.61
-34.67
-38.51
-41.32
-43.53
-45.64
-48.07
-50.96
-54.17
-57.45
-60.69
-64.08
-68.17
-73.59
-80.65
-89.01
-97.54
-104.74
-109.39
-111.15
-110.80
-110.05
-110.84
-114.60
-121.74
-131.47
-141.95
-150.61
-154.62
-151.48
-139.77
-119.60
-92.67
-61.68
-29.58
1.23
29.21
53.43
73.38
88.76
99.67
106.86
111.80
116.45
122.72
131.85
143.90
157.59
170.57
179.95
183.16
178.75
167.09
150.35
131.68
113.97
98.82
86.12
74.66
62.99
50.34
36.92
23.69
11.82
2.25
-4.46
-8.26
-9.46
-8.81
-7.37
-6.40
-7.06
-10.05
-15.40
-22.44
-30.09
-37.20
-42.93
-46.91
-49.26
-50.41
-50.83
-50.80
-50.41
-49.57
-48.18
-46.15
-43.45
-40.02
-35.87
-31.19
-26.48
-22.48
-19.92
-19.15
-19.92
-21.38
-22.34
-21.78
-19.19
-14.70
-9.14
-3.63
0.71
3.12
3.35
1.70
-1.11
-4.18
-6.71
-8.29
-8.93
-9.05
-9.30
-10.27
-12.25
-15.12
-18.35
-21.16
-22.90
-23.33
-22.87
-22.41
-22.89
-24.87
-28.18
-32.00
-35.31
-37.34
-37.87
-37.05
-35.16
-32.42
-29.25
-26.76
-26.68
-30.69
-39.23
-50.71
-61.73
-68.46
-68.47
-61.89
-51.25
-40.16
-31.51
-26.44
-24.43
-24.25
-24.90
-25.96
-27.27
-28.40
-28.48
-26.66
-22.68
-17.31
-12.09
-8.63
-7.82
-9.38
-11.97
-13.83
-13.50
-10.29
-4.12
4.77
16.11
29.58
44.55
59.96
74.44
86.93
96.99
104.82
110.83
115.20
117.62
117.57
114.88
110.08
104.40
99.38
96.23
95.55
97.22
100.52
104.41
107.60
108.66
106.40
100.08
89.61
75.89
60.47
45.12
31.41
20.27
11.67
5.10
-0.33
-5.65
-11.34
-17.39
-23.35
-28.62
-32.83
-36.68
-41.00
-46.71
-54.50
-63.92
-73.66
-82.04
-87.58
-89.33
-87.61
-82.25
-72.90
-59.34
-41.06
-17.69
10.83
44.48
83.02
124.84
168.38
211.39
246.05
264.90
263.16
240.75
202.40
161.14
121.79
84.21
46.07
5.58
-37.52
-79.72
-116.17
-143.00
-158.93
-166.60
-169.61
-171.49
-174.91
-180.51
-187.27
-193.46
-197.45
-198.34
-196.92
-193.95
-190.16
-185.74
-179.90
-171.04
-157.81
-140.06
-119.40
-99.25
-82.77
-71.54
-64.82
-59.54
-51.54
-37.25
-15.07
14.31
48.24
83.73
118.13
149.38
175.74
195.78
208.86
215.81
219.23
222.88
230.48
243.93
262.48
282.61
299.53
309.09
309.12
299.55
281.57
256.53
225.09
188.15
146.88
103.65
61.60
23.84
-7.95
-34.28
-57.72
-82.13
-110.48
-144.86
-185.58
-231.01
-277.47
-319.60
-351.32
-367.40
-365.77
-347.22
-316.32
-278.98
-239.97
-201.13
-161.33
-118.69
-70.70
-24.40
14.01
36.87
38.91
19.18
-18.63
-67.66
-120.33
-170.52
-215.55
-254.81
-289.75
-321.26
-347.93
-365.84
-370.05
-357.31
-328.22
-287.99
-243.95
-203.56
-171.18
-147.17
-129.23
-114.94
-103.69
-96.75
-95.47
-98.89
-102.97
-100.86
-84.81
-48.74
9.43
86.45
174.60
263.98
345.02
411.20
461.10
498.12
528.03
555.49
580.95
601.07
611.03
606.83
587.94
558.12
523.81
491.03
463.01
439.20
417.57
396.87
375.77
353.02
327.43
298.45
266.68
234.79
206.88
181.50
159.73
140.36
118.44
87.42
43.36
-11.89
-67.52
-117.14
-158.03
-191.01
-220.65
-252.26
-288.54
-326.36
-359.25
-380.55
-387.21
-380.61
-365.86
-350.52
-341.11
-340.04
-345.07
-351.11
-352.95
-348.43
-338.96
-328.76
-323.80
-328.72
-344.17
-366.15
-387.47
-400.62
-400.80
-386.48
-358.88
-320.84
-275.40
-224.91
-171.22
-116.41
-63.05
-13.95
28.76
64.36
93.65
118.17
139.44
158.27
174.46
187.35
196.26
201.34
203.42
203.59
202.70
200.95
198.02
193.28
186.09
175.89
162.18
144.65
123.62
100.40
77.47
57.82
43.87
36.38
33.98
33.74
32.51
28.36
21.28
12.95
5.52
0.37
-2.42
-3.80
-4.81
-5.87
-6.58
-6.10
-3.79
0.32
5.62
11.25
16.68
21.80
26.87
32.00
36.94
40.99
43.32
43.39
41.25
37.60
33.49
29.94
27.53
26.22
25.59
25.12
24.60
24.15
24.13
24.86
26.38
28.44
30.58
32.37
33.58
34.19
34.41
34.55
34.87
35.45
36.26
37.08
37.69
37.90
37.59
36.76
35.45
33.66
31.39
28.66
25.60
22.43
19.33
16.40
13.43
10.05
5.90
0.93
-4.40
-9.21
-12.54
-13.75
-12.87
-10.55
-7.78
-5.43
-3.92
-3.13
-2.63
-1.96
-0.93
0.30
1.33
1.77
1.48
0.67
-0.25
-0.89
-1.07
-0.96
-0.97
-1.50
-2.65
-4.16
-5.46
-6.04
-5.69
-4.69
-3.71
-3.42
-4.21
-6.06
-8.58
-11.28
-13.79
-16.02
-18.02
-19.91
-21.66
-23.17
-24.26
-24.81
-24.82
-24.40
-23.71
-22.80
-21.66
-20.10
-17.92
-14.95
-11.09
-6.33
-0.64
6.12
14.23
23.89
35.06
47.22
59.41
70.51
79.53
85.88
89.41
90.18
88.21
83.48
76.02
66.22
54.92
43.32
32.60
23.61
16.60
11.37
7.39
4.09
0.99
-2.21
-5.69
-9.51
-13.63
-17.95
-22.33
-26.65
-30.87
-35.01
-39.04
-42.87
-46.43
-49.72
-52.90
-56.11
-59.36
-62.50
-65.22
-67.24
-68.39
-68.60
-67.92
-66.37
-64.11
-61.49
-58.99
-57.18
-56.38
-56.54
-57.19
-57.63
-57.17
-55.33
-51.94
-46.90
-40.11
-31.34
-20.32
-6.91
8.79
26.41
45.30
64.67
83.61
101.19
116.48
128.57
136.64
139.99
138.25
131.66
121.12
107.92
93.28
77.84
61.56
43.91
24.42
3.15
-19.11
-40.95
-60.74
-77.00
-88.66
-95.19
-96.58
-93.32
-86.37
-77.15
-67.35
-58.65
-52.38
-49.15
-48.77
-50.32
-52.43
-53.75
-53.38
-51.14
-47.53
-43.41
-39.53
-36.23
-33.32
-30.34
-26.95
-23.19
-19.57
-16.76
-15.25
-14.97
-15.36
-15.48
-14.53
-12.12
-8.41
-3.98
0.53
4.55
7.79
10.06
11.35
11.76
11.53
11.09
10.83
10.98
11.33
11.30
10.22
7.64
3.69
-0.81
-4.67
-6.81
-6.62
-4.28
-0.57
3.46
6.88
9.17
10.25
10.45
10.24
10.17
10.62
11.77
13.40
14.83
14.97
12.51
6.30
-4.20
-18.54
-35.21
-51.88
-66.00
-75.61
-79.83
-79.15
-75.03
-69.28
-63.38
-58.06
-53.24
-48.27
-42.41
-35.10
-26.13
-15.61
-3.95
8.29
20.50
32.13
42.73
51.93
59.38
64.72
67.63
68.02
66.15
62.64
58.33
54.07
50.43
47.62
45.53
43.86
42.32
40.68
38.73
36.28
33.17
29.30
24.79
19.98
15.37
11.47
8.63
6.86
5.87
5.14
4.09
2.34
-0.22
-3.31
-6.44
-9.04
-10.75
-11.46
-11.38
-10.88
-10.26
-9.68
-9.09
-8.38
-7.46
-6.35
-5.12
-3.89
-2.71
-1.57
-0.48
0.51
1.28
1.68
1.60
1.02
0.03
-1.16
-2.21
-2.74
-2.38
-0.95
1.42
4.27
6.89
8.68
9.30
8.84
7.79
6.74
6.17
6.30
6.97
7.86
8.61
9.03
9.18
9.33
9.81
10.88
12.52
14.51
16.47
18.06
19.14
19.75
19.98
19.90
19.40
18.40
16.95
15.36
14.22
14.10
15.35
17.90
21.29
24.88
28.15
30.80
32.90
34.69
36.42
38.21
40.02
41.69
43.06
44.12
44.96
45.82
46.90
48.34
50.17
52.31
54.64
57.02
59.22
60.93
61.75
61.23
59.02
55.06
49.58
43.07
36.03
28.75
21.20
13.18
4.63
-4.10
-12.21
-18.83
-23.53
-26.68
-29.31
-32.67
-37.44
-43.31
-48.87
-52.25
-52.00
-47.80
-40.76
-33.06
-27.18
-24.90
-26.79
-31.94
-38.53
-44.57
-48.71
-50.42
-49.71
-46.84
-42.35
-37.73
-35.63
-39.33
-51.20
-71.01
-95.21
-118.08
-134.17
-140.66
-138.23
-129.63
-117.18
-100.75
-77.63
-44.66
-0.79
51.30
105.89
156.43
198.05
228.75
249.10
260.93
265.95
265.15
258.92
247.78
232.78
215.43
197.18
178.90
160.67
141.81
121.49
99.20
75.20
50.65
27.47
7.85
-6.53
-15.30
-19.87
-23.01
-27.94
-37.12
-51.37
-69.73
-90.14
-110.49
-129.31
-145.98
-160.21
-171.65
-179.69
-183.73
-183.60
-179.76
-173.19
-165.04
-156.34
-147.76
-139.77
-133.04
-128.91
-129.56
-137.53
-154.65
-180.98
-214.03
-248.75
-278.60
-297.28
-300.77
-288.67
-264.44
-234.18
-204.40
-179.67
-161.42
-147.97
-136.21
-123.50
-109.07
-94.00
-79.97
-67.83
-56.87
-45.39
-31.92
-16.22
0.93
18.55
36.54
56.06
78.96
106.54
138.47
172.47
204.91
231.82
250.05
258.03
256.08
246.18
231.11
213.67
195.98
179.10
163.37
148.80
135.46
123.63
113.55
105.11
97.84
91.00
84.00
76.71
69.45
62.80
57.12
52.36
47.97
43.18
37.31
30.08
21.81
13.29
5.48
-0.81
-5.24
-7.92
-9.29
-9.95
-10.49
-11.33
-12.80
-15.28
-19.08
-24.20
-30.05
-35.50
-39.30
-40.69
-39.68
-36.82
-32.59
-26.77
-18.50
-6.81
8.44
26.16
44.17
60.11
72.30
80.27
84.54
85.93
85.04
81.99
76.77
69.51
60.70
51.17
41.94
34.14
28.84
26.90
28.75
34.29
42.90
53.57
65.14
76.52
86.74
95.00
100.65
103.18
102.30
98.01
90.57
80.60
68.97
56.82
45.56
36.58
31.03
29.41
31.19
34.68
37.09
35.10
25.65
7.02
-20.38
-53.87
-89.18
-121.72
-147.88
-165.76
-175.39
-178.16
-176.20
-171.86
-167.27
-164.08
-163.17
-164.43
-166.83
-169.00
-169.85
-169.07
-167.02
-164.19
-160.78
-156.60
-151.38
-145.08
-137.99
-130.48
-122.54
-113.42
-101.58
-85.08
-62.25
-32.63
2.28
38.82
71.85
96.31
109.05
110.25
103.32
93.41
85.13
80.75
79.82
80.22
79.91
78.01
74.89
71.42
68.07
64.60
60.41
55.21
49.39
44.03
40.25
38.71
39.20
40.66
41.59
40.55
36.69
30.01
21.25
11.48
1.65
-7.73
-16.56
-24.82
-32.24
-38.21
-42.13
-43.70
-43.12
-40.87
-37.33
-32.57
-26.34
-18.44
-9.20
0.33
8.71
14.66
17.61
17.94
16.70
14.98
13.43
12.06
10.56
8.71
6.72
5.10
4.31
4.41
5.03
5.72
6.40
7.38
9.14
11.76
14.70
17.14
18.45
18.62
17.97
16.59
13.86
8.65
0.14
-11.19
-23.45
-34.31
-42.36
-48.11
-53.43
-60.10
-68.19
-75.51
-78.52
-74.06
-60.85
-39.99
-14.22
13.24
39.66
63.10
82.33
96.59
105.54
109.15
107.66
101.37
90.58
75.71
57.47
36.70
14.12
-9.83
-34.68
-59.30
-81.40
-97.93
-106.18
-105.08
-95.76
-80.87
-62.89
-42.75
-19.62
7.69
38.65
69.81
95.38
109.73
110.08
97.99
78.61
58.23
41.56
30.21
23.03
17.78
12.89
8.33
5.11
3.90
4.05
3.37
-0.92
-10.69
-25.83
-44.24
-62.77
-78.58
-89.93
-96.31
-97.87
-94.76
-86.84
-73.95
-56.46
-35.61
-13.47
7.53
25.35
38.68
47.20
51.30
51.81
49.81
46.62
43.77
42.71
44.54
49.62
57.53
67.15
76.98
85.30
90.53
91.36
87.07
77.73
64.25
47.99
30.04
10.77
-10.07
-32.39
-54.98
-75.32
-90.45
-98.21
-98.08
-90.67
-76.47
-55.08
-25.60
11.82
54.43
96.63
131.55
153.68
161.06
155.60
141.73
124.13
106.21
89.73
75.68
65.18
59.80
60.95
69.08
83.10
100.65
118.92
135.71
150.05
162.19
173.02
182.95
191.29
196.06
194.76
185.14
166.09
138.08
103.05
64.15
25.30
-9.37
-36.22
-53.22
-60.69
-61.31
-59.14
-58.25
-61.05
-67.99
-78.07
-90.02
-103.70
-120.48
-142.77
-172.43
-209.05
-248.93
-285.80
-312.82
-325.07
-321.75
-306.09
-283.30
-257.57
-229.98
-198.85
-162.42
-121.98
-83.16
-54.26
-42.27
-49.22
-71.08
-99.69
-126.68
-147.06
-160.26
-168.44
-173.82
-176.69
-175.81
-170.33
-161.54
-152.87
-147.55
-146.13
-145.09
-137.96
-118.49
-84.03
-37.10
15.96
67.70
112.17
145.90
167.33
175.81
171.38
155.65
132.68
108.81
90.91
83.78
88.43
102.03
119.65
136.87
151.77
165.29
180.24
199.39
223.74
251.88
280.39
305.11
322.43
330.24
327.99
316.27
296.39
270.03
239.00
205.01
169.30
132.57
95.03
56.73
18.03
-20.28
-57.19
-91.94
-124.42
-155.17
-184.83
-213.44
-240.04
-263.13
-281.20
-293.68
-301.37
-306.15
-310.49
-317.07
-328.51
-347.01
-373.47
-406.29
-440.66
-469.03
-483.24
-477.57
-451.14
-408.35
-357.16
-305.84
-260.19
-222.43
-192.13
-167.97
-149.29
-136.31
-129.34
-127.86
-130.12
-133.83
-137.22
-139.93
-143.07
-148.78
-158.95
-174.36
-194.20
-216.19
-237.28
-254.54
-266.00
-270.85
-269.23
-261.60
-248.13
-228.42
-201.55
-166.59
-123.29
-72.57
-16.75
40.93
97.06
148.91
195.03
235.43
271.24
304.30
336.67
370.23
406.14
444.17
482.17
516.12
540.98
552.29
547.99
529.24
500.05
465.74
430.89
398.14
367.96
339.56
312.03
285.21
259.66
236.14
214.93
195.69
177.69
160.24
143.01
126.13
109.97
94.96
81.42
69.50
59.16
50.10
41.75
33.24
23.70
12.69
0.52
-11.72
-22.44
-30.21
-34.32
-34.91
-32.77
-28.81
-23.72
-17.82
-11.14
-3.48
5.54
16.43
29.72
45.82
64.45
84.31
102.86
116.70
122.39
117.49
101.38
75.59
43.43
9.20
-22.86
-49.45
-68.68
-80.10
-84.47
-83.34
-78.61
-72.32
-66.23
-61.41
-57.94
-54.93
-50.99
-45.10
-37.35
-29.16
-22.76
-20.05
-21.53
-25.86
-30.49
-32.83
-31.43
-26.46
-19.29
-11.63
-4.80
0.46
3.63
4.04
0.84
-6.55
-17.86
-31.67
-45.71
-57.60
-65.61
-69.24
-69.19
-66.87
-63.69
-60.48
-57.34
-53.95
-50.03
-45.56
-40.72
-35.60
-29.97
-23.52
-16.38
-9.55
-4.66
-3.26
-5.69
-10.51
-14.80
-15.43
-10.74
-1.52
9.34
18.30
22.93
23.03
20.43
17.89
17.61
20.36
25.61
32.37
39.89
47.91
56.21
64.20
70.96
75.97
79.98
85.21
94.47
109.52
129.47
150.38
166.32
171.55
162.72
140.05
106.92
68.31
28.88
-8.15
-41.21
-69.71
-93.16
-110.61
-121.00
-124.01
-121.17
-115.82
-111.93
-112.14
-115.93
-119.42
-116.99
-103.98
-78.89
-43.80
-3.00
38.87
78.03
111.40
135.83
147.88
144.89
126.71
97.00
62.71
31.79
10.39
0.91
1.85
9.25
18.57
26.18
30.02
29.61
25.67
19.58
12.88
6.64
1.19
-3.61
-8.09
-12.41
-16.48
-20.21
-23.80
-27.64
-32.08
-36.94
-41.30
-43.82
-43.21
-38.71
-30.15
-17.80
-2.26
15.41
33.54
49.61
60.52
63.17
55.40
36.74
8.84
-24.75
-59.41
-90.43
-114.06
-128.19
-132.59
-128.64
-118.71
-105.33
-90.48
-75.39
-60.75
-47.09
-35.13
-25.70
-19.36
-16.02
-14.80
-14.30
-13.18
-10.74
-7.16
-3.31
-0.18
1.50
1.53
0.13
-2.36
-5.59
-9.24
-12.80
-15.53
-16.73
-16.19
-14.53
-13.20
-13.91
-17.75
-24.42
-32.15
-38.38
-41.10
-39.78
-35.68
-31.07
-27.99
-27.12
-27.53
-27.43
-25.34
-20.99
-15.23
-9.25
-3.61
2.37
10.30
21.71
37.03
55.08
73.35
88.89
99.30
103.53
102.02
96.37
88.64
80.67
73.59
67.65
62.46
57.38
51.94
46.08
40.01
33.95
27.89
21.65
15.13
8.63
3.03
-0.44
-0.68
2.64
8.82
16.31
23.32
28.49
31.40
32.68
33.69
35.91
40.39
47.16
55.14
62.38
66.73
66.69
62.09
54.24
45.39
37.74
32.44
29.12
26.17
21.59
13.88
2.58
-11.71
-27.64
-43.40
-57.01
-66.61
-70.80
-69.08
-62.27
-52.30
-41.69
-32.51
-25.46
-19.57
-12.75
-2.99
10.37
26.01
41.04
52.18
57.26
56.21
51.08
44.94
40.41
38.49
38.22
37.63
35.08
30.25
24.34
19.08
15.60
13.69
11.97
8.84
3.65
-2.74
-8.36
-11.17
-10.30
-6.57
-2.15
0.39
-0.77
-5.91
-13.80
-22.29
-29.35
-33.77
-35.65
-36.04
-36.36
-37.61
-40.00
-42.96
-45.54
-46.94
-46.83
-45.46
-43.47
-41.54
-40.03
-38.82
-37.39
-35.05
-31.26
-25.91
-19.39
-12.50
-6.23
-1.48
1.20
1.60
-0.23
-4.14
-9.85
-16.96
-24.82
-32.50
-39.11
-44.00
-47.05
-48.59
-49.14
-48.97
-47.82
-44.98
-39.61
-31.17
-19.68
-5.77
9.48
24.63
38.11
48.42
54.49
55.98
53.41
47.93
40.86
33.26
25.63
18.08
10.70
3.80
-1.95
-5.90
-7.75
-7.80
-6.84
-5.79
-5.33
-5.64
-6.38
-7.01
-7.09
-6.51
-5.60
-4.93
-5.08
-6.45
-9.20
-13.29
-18.65
-25.10
-32.31
-39.63
-46.09
-50.69
-52.74
-52.11
-49.27
-45.03
-40.18
-35.20
-30.25
-25.31
-20.37
-15.53
-10.81
-6.05
-0.74
5.77
14.01
23.99
35.10
46.15
55.78
62.84
66.67
67.26
65.04
60.64
54.69
47.70
40.06
32.09
24.13
16.45
9.31
2.80
-3.10
-8.62
-14.07
-19.81
-26.12
-33.04
-40.27
-47.20
-53.06
-57.19
-59.24
-59.30
-57.78
-55.19
-51.87
-47.86
-42.89
-36.55
-28.53
-18.83
-7.85
3.70
15.00
25.24
33.85
40.44
44.87
47.12
47.33
45.76
42.77
38.81
34.38
29.89
25.66
21.82
18.34
15.06
11.75
8.27
4.59
0.90
-2.45
-5.07
-6.61
-6.98
-6.42
-5.43
-4.65
-4.63
-5.66
-7.76
-10.71
-14.15
-17.68
-20.94
-23.67
-25.82
-27.55
-29.21
-31.16
-33.58
-36.20
-38.44
-39.50
-38.79
-36.11
-31.79
-26.48
-20.94
-15.73
-11.02
-6.59
-1.99
3.20
9.20
15.86
22.69
29.05
34.34
38.14
40.18
40.38
38.94
36.57
34.49
34.24
36.87
42.39
49.43
55.70
58.95
58.00
53.14
45.82
37.74
30.11
23.29
17.01
10.96
5.12
-0.16
-4.43
-7.49
-9.49
-10.82
-11.93
-13.10
-14.39
-15.60
-16.46
-16.81
-16.71
-16.48
-16.57
-17.34
-18.86
-20.85
-22.71
-23.87
-23.97
-23.06
-21.56
-20.08
-19.20
-19.24
-20.18
-21.65
-23.07
-23.91
-23.87
-22.98
-21.61
-20.28
-19.37
-19.06
-19.16
-19.29
-19.04
-18.20
-16.70
-14.66
-12.18
-9.39
-6.45
-3.67
-1.43
-0.09
0.16
-0.52
-1.70
-2.78
-3.24
-2.84
-1.63
0.14
2.11
3.95
5.49
6.70
7.67
8.58
9.54
10.55
11.47
12.05
11.99
11.16
9.57
7.44
5.05
2.66
0.38
-1.84
-4.17
-6.73
-9.48
-12.15
-14.29
-15.49
-15.51
-14.47
-12.75
-10.83
-9.01
-7.34
-5.69
-3.92
-2.10
-0.54
0.38
0.41
-0.32
-1.29
-1.73
-0.96
1.44
5.47
10.79
16.83
22.87
28.11
31.76
33.15
32.00
28.72
24.42
20.71
19.17
20.73
25.24
31.53
37.79
42.21
43.54
41.48
36.66
30.27
23.69
17.96
13.58
10.42
7.98
5.66
3.01
-0.09
-3.59
-7.47
-11.87
-17.11
-23.43
-30.77
-38.54
-45.80
-51.52
-54.94
-55.80
-54.41
-51.42
-47.55
-43.31
-38.89
-34.21
-29.12
-23.62
-17.98
-12.71
-8.34
-5.24
-3.40
-2.48
-1.94
-1.36
-0.59
0.18
0.62
0.51
-0.13
-1.00
-1.68
-1.89
-1.62
-1.10
-0.65
-0.43
-0.44
-0.50
-0.40
-0.09
0.26
0.33
-0.25
-1.68
-3.87
-6.44
-8.80
-10.31
-10.50
-9.20
-6.68
-3.46
-0.19
2.59
4.63
5.90
6.57
6.80
6.69
6.32
5.73
5.00
4.13
3.04
1.50
-0.76
-3.89
-7.68
-11.58
-14.79
-16.43
-15.86
-12.84
-7.60
-0.84
6.46
13.31
18.86
22.66
24.69
25.34
25.25
24.99
24.85
24.66
23.85
21.63
17.39
10.97
2.84
-5.91
-13.94
-20.03
-23.44
-23.98
-21.96
-17.96
-12.66
-6.75
-0.81
4.61
9.14
12.52
14.65
15.59
15.44
14.41
12.71
10.64
8.60
6.95
5.97
5.74
6.14
6.94
7.83
8.62
9.18
9.46
9.40
8.90
7.79
5.99
3.54
0.65
-2.28
-4.83
-6.71
-7.87
-8.54
-9.07
-9.85
-11.11
-12.86
-14.94
-17.10
-19.00
-20.33
-20.78
-20.07
-18.06
-14.81
-10.63
-6.02
-1.48
2.62
6.10
8.95
11.25
13.03
14.30
15.01
15.24
15.11
14.90
14.86
15.24
16.12
17.45
19.06
20.74
22.31
23.66
24.69
25.25
25.08
23.84
21.23
17.12
11.64
5.10
-2.07
-9.50
-16.87
-23.95
-30.56
-36.50
-41.60
-45.71
-48.65
-50.34
-50.70
-49.81
-47.88
-45.24
-42.23
-39.05
-35.63
-31.63
-26.59
-20.21
-12.56
-4.16
4.16
11.57
17.44
21.54
23.95
25.01
25.07
24.49
23.55
22.51
21.57
20.95
20.82
21.33
22.50
24.26
26.26
28.00
28.88
28.45
26.58
23.47
19.60
15.49
11.53
7.85
4.34
0.81
-2.90
-6.77
-10.59
-14.02
-16.72
-18.40
-18.93
-18.30
-16.62
-14.05
-10.75
-6.89
-2.74
1.41
5.24
8.47
10.91
12.49
13.31
13.59
13.62
13.68
13.91
14.25
14.52
14.50
14.05
13.25
12.33
11.57
11.20
11.18
11.31
11.30
10.92
10.08
8.82
7.27
5.60
3.91
2.26
0.69
-0.73
-1.92
-2.76
-3.21
-3.28
-3.05
-2.65
-2.19
-1.77
-1.45
-1.30
-1.47
-2.15
-3.42
-5.13
-6.61
-6.85
-4.85
-0.17
6.70
14.32
20.78
24.43
24.48
21.20
15.67
9.05
2.24
-4.35
-10.57
-16.24
-20.94
-24.10
-25.25
-24.17
-21.05
-16.34
-10.66
-4.71
0.85
5.49
8.93
11.14
12.34
12.79
12.63
11.77
9.99
7.14
3.40
-0.70
-4.41
-7.13
-8.64
-9.20
-9.37
-9.79
-10.80
-12.37
-14.14
-15.74
-16.94
-17.88
-18.88
-20.25
-22.02
-23.82
-24.99
-24.87
-23.10
-19.76
-15.37
-10.57
-5.93
-1.66
2.26
6.01
9.62
12.92
15.57
17.22
17.74
17.24
16.10
14.78
13.64
12.94
12.72
12.96
13.58
14.44
15.40
16.27
16.91
17.22
17.15
16.69
15.92
14.90
13.80
12.76
11.90
11.25
10.66
9.95
8.87
7.33
5.38
3.21
1.07
-0.88
-2.60
-4.12
-5.53
-6.91
-8.31
-9.78
-11.44
-13.38
-15.68
-18.33
-21.11
-23.66
-25.50
-26.16
-25.30
-22.83
-18.94
-14.11
-8.93
-4.00
0.30
3.83
6.70
9.08
11.11
12.77
13.96
14.57
14.62
14.28
13.78
13.32
12.91
12.51
11.99
11.28
10.46
9.72
9.30
9.36
9.92
10.79
11.63
12.05
11.77
10.74
9.15
7.37
5.78
4.55
3.62
2.83
1.98
1.08
0.27
-0.28
-0.48
-0.45
-0.41
-0.65
-1.35
-2.60
-4.35
-6.55
-9.14
-12.10
-15.35
-18.68
-21.69
-23.84
-24.54
-23.38
-20.29
-15.57
-9.79
-3.65
2.26
7.56
11.99
15.40
17.69
18.87
19.10
18.67
17.95
17.20
16.48
15.65
14.50
12.90
10.88
8.70
6.70
5.22
4.49
4.52
5.12
6.02
6.89
7.49
7.69
7.47
6.86
5.89
4.62
3.11
1.50
-0.06
-1.41
-2.44
-3.21
-3.83
-4.51
-5.44
-6.74
-8.45
-10.50
-12.80
-15.26
-17.82
-20.39
-22.79
-24.76
-25.91
-25.83
-24.31
-21.37
-17.33
-12.69
-7.99
-3.62
0.17
3.35
5.97
8.10
9.79
11.04
11.84
12.21
12.23
12.02
11.74
11.50
11.37
11.35
11.38
11.42
11.44
11.41
11.32
11.13
10.78
10.24
9.49
8.58
7.56
6.48
5.37
4.23
3.03
1.76
0.36
-1.15
-2.76
-4.44
-6.13
-7.80
-9.46
-11.23
-13.26
-15.74
-18.71
-22.02
-25.23
-27.72
-28.81
-28.03
-25.33
-20.99
-15.58
-9.73
-3.96
1.38
6.04
9.82
12.57
14.21
14.82
14.61
13.90
12.99
12.10
11.37
10.84
10.52
10.40
10.44
10.53
10.56
10.49
10.34
10.20
10.15
10.12
9.95
9.34
8.08
6.08
3.54
0.80
-1.70
-3.69
-5.09
-6.05
-6.90
-7.97
-9.51
-11.61
-14.17
-16.90
-19.34
-20.96
-21.25
-19.92
-16.98
-12.76
-7.85
-2.85
1.84
6.17
10.31
14.53
19.02
23.71
28.20
31.85
33.94
33.98
32.09
29.06
26.25
25.04
26.28
29.77
34.29
37.99
39.14
36.76
30.86
22.26
12.12
1.52
-8.85
-18.64
-27.76
-36.19
-43.90
-50.80
-56.75
-61.59
-65.11
-67.17
-67.57
-66.22
-63.16
-58.60
-53.01
-47.02
-41.32
-36.40
-32.41
-29.07
-25.88
-22.29
-18.00
-13.03
-7.67
-2.33
2.64
7.01
10.73
13.85
16.41
18.50
20.15
21.36
22.15
22.54
22.59
22.42
22.17
21.97
21.91
22.04
22.36
22.83
23.39
23.88
24.16
24.05
23.44
22.31
20.78
18.98
17.04
15.02
12.93
10.81
8.74
6.86
5.33
4.23
3.54
3.16
2.96
2.87
2.90
3.11
3.61
4.45
5.60
6.94
8.32
9.56
10.50
10.88
10.37
8.57
5.08
-0.29
-7.36
-15.57
-24.14
-32.20
-39.10
-44.42
-47.91
-49.34
-48.47
-45.15
-39.58
-32.43
-24.72
-17.44
-11.21
-5.93
-1.00
4.37
10.65
17.73
25.00
31.65
37.01
40.76
42.88
43.50
42.75
40.73
37.63
33.79
29.69
25.83
22.56
20.01
18.05
16.39
14.75
12.94
10.89
8.72
6.60
4.72
3.19
1.98
0.95
-0.08
-1.32
-2.93
-5.02
-7.60
-10.58
-13.63
-16.16
-17.43
-16.79
-13.97
-9.28
-3.67
1.66
5.59
7.60
7.90
7.34
7.00
7.68
9.63
12.47
15.40
17.55
18.26
17.20
14.35
9.94
4.41
-1.64
-7.44
-12.13
-15.00
-15.60
-13.90
-10.28
-5.39
0.01
5.19
9.59
12.88
14.97
16.03
16.34
16.29
16.18
16.20
16.35
16.49
16.31
15.41
13.44
10.20
5.83
0.77
-4.29
-8.72
-12.07
-14.32
-15.78
-16.98
-18.46
-20.64
-23.86
-28.31
-34.05
-40.83
-48.05
-54.66
-59.40
-61.03
-58.77
-52.59
-43.22
-31.95
-20.15
-8.97
0.92
9.20
15.78
20.64
23.80
25.44
25.91
25.71
25.34
25.05
24.88
24.61
24.04
23.08
21.85
20.54
19.36
18.43
17.82
17.49
17.37
17.31
17.17
16.85
16.31
15.62
14.94
14.45
14.26
14.37
14.66
14.94
15.02
14.74
14.02
12.86
11.30
9.34
6.95
4.05
0.62
-3.30
-7.59
-12.04
-16.47
-20.68
-24.49
-27.67
-29.98
-31.19
-31.15
-29.88
-27.59
-24.65
-21.49
-18.48
-15.83
-13.55
-11.54
-9.65
-7.80
-6.08
-4.63
-3.64
-3.18
-3.20
-3.53
-3.94
-4.25
-4.29
-3.97
-3.29
-2.30
-1.14
-0.07
0.70
1.01
0.88
0.46
-0.09
-0.65
-1.21
-1.85
-2.66
-3.62
-4.72
-5.89
-7.08
-8.29
-9.51
-10.73
-11.89
-13.01
-14.18
-15.60
-17.51
-19.94
-22.67
-25.11
-26.54
-26.37
-24.40
-20.89
-16.51
-12.07
-8.17
-5.13
-2.93
-1.37
-0.18
0.90
2.03
3.35
4.91
6.66
8.43
10.02
11.23
12.04
12.61
13.20
14.07
15.29
16.76
18.22
19.44
20.27
20.76
21.04
21.20
21.16
20.73
19.70
17.94
15.57
12.87
10.14
7.63
5.37
3.28
1.20
-1.03
-3.52
-6.27
-9.26
-12.39
-15.43
-18.07
-19.93
-20.66
-20.05
-18.13
-15.12
-11.44
-7.59
-4.05
-1.21
0.72
1.67
1.74
1.12
0.08
-1.12
-2.24
-3.10
-3.66
-3.94
-4.10
-4.32
-4.67
-5.10
-5.44
-5.45
-5.05
-4.33
-3.59
-3.15
-3.19
-3.65
-4.28
-4.78
-4.95
-4.80
-4.52
-4.40
-4.67
-5.45
-6.77
-8.54
-10.70
-13.14
-15.64
-17.89
-19.46
-19.93
-19.04
-16.78
-13.46
-9.56
-5.60
-1.98
1.09
3.57
5.49
6.94
7.97
8.65
9.10
9.42
9.79
10.28
10.96
11.82
12.77
13.69
14.45
14.95
15.09
14.85
14.22
13.22
11.87
10.19
8.20
5.98
3.66
1.41
-0.63
-2.41
-3.93
-5.32
-6.72
-8.25
-9.91
-11.62
-13.19
-14.38
-14.93
-14.66
-13.49
-11.53
-8.96
-6.05
-3.02
-0.03
2.83
5.46
7.72
9.44
10.50
10.91
10.83
10.52
10.19
9.94
9.73
9.45
9.07
8.67
8.40
8.37
8.53
8.65
8.40
7.54
6.03
4.05
1.88
-0.19
-2.01
-3.57
-4.93
-6.14
-7.21
-8.14
-9.00
-10.00
-11.45
-13.55
-16.27
-19.17
-21.57
-22.68
-22.01
-19.47
-15.50
-10.83
-6.21
-2.17
1.12
3.73
5.89
7.77
9.46
10.93
12.06
12.80
13.13
13.14
12.99
12.89
12.97
13.28
13.75
14.22
14.59
14.80
14.85
14.75
14.48
13.96
13.12
11.98
10.61
9.15
7.68
6.20
4.63
2.93
1.11
-0.71
-2.38
-3.81
-5.02
-6.17
-7.49
-9.16
-11.29
-13.81
-16.46
-18.86
-20.54
-21.10
-20.29
-18.14
-14.94
-11.10
-7.13
-3.41
-0.18
2.50
4.69
6.53
8.19
9.76
11.24
12.56
13.62
14.36
14.84
15.24
15.72
16.37
17.16
17.86
18.31
18.36
18.06
17.53
16.94
16.35
15.76
15.12
14.40
13.65
12.95
12.38
11.95
11.59
11.23
10.76
10.13
9.31
8.31
7.13
5.75
4.22
2.56
0.80
-0.97
-2.65
-4.15
-5.41
-6.45
-7.44
-8.58
-10.08
-11.99
-14.14
-16.10
-17.39
-17.59
-16.56
-14.42
-11.55
-8.38
-5.31
-2.59
-0.35
1.38
2.63
3.46
4.00
4.38
4.76
5.23
5.86
6.69
7.68
8.81
9.99
11.09
11.98
12.57
12.86
12.98
13.16
13.58
14.29
15.12
15.80
16.05
15.76
14.95
13.79
12.46
11.05
9.60
8.13
6.67
5.33
4.20
3.29
2.49
1.65
0.62
-0.63
-2.06
-3.56
-5.02
-6.42
-7.79
-9.22
-10.80
-12.57
-14.45
-16.23
-17.59
-18.21
-17.88
-16.64
-14.75
-12.60
-10.52
-8.72
-7.20
-5.87
-4.71
-3.79
-3.23
-3.11
-3.36
-3.78
-4.10
-4.10
-3.73
-3.05
-2.17
-1.21
-0.18
0.89
2.02
3.13
4.12
4.88
5.32
5.45
5.33
5.10
4.84
4.59
4.33
4.01
3.59
3.10
2.55
1.95
1.25
0.38
-0.68
-1.87
-3.06
-4.10
-4.92
-5.47
-5.85
-6.13
-6.42
-6.79
-7.32
-8.08
-9.16
-10.52
-12.01
-13.35
-14.19
-14.24
-13.36
-11.67
-9.45
-7.10
-4.97
-3.34
-2.27
-1.73
-1.56
-1.61
-1.75
-1.90
-2.04
-2.18
-2.34
-2.51
-2.65
-2.72
-2.64
-2.35
-1.79
-1.01
-0.09
0.79
1.48
1.87
1.94
1.78
1.49
1.16
0.82
0.42
-0.07
-0.62
-1.21
-1.79
-2.36
-3.01
-3.79
-4.73
-5.73
-6.67
-7.43
-8.01
-8.52
-9.09
-9.82
-10.65
-11.40
-11.79
-11.58
-10.66
-9.10
-7.08
-4.88
-2.78
-0.96
0.46
1.46
2.10
2.50
2.77
3.04
3.35
3.70
4.06
4.37
4.60
4.76
4.84
4.82
4.68
4.41
4.08
3.83
3.78
3.99
4.34
4.62
4.61
4.15
3.31
2.25
1.18
0.23
-0.59
-1.34
-2.12
-2.96
-3.81
-4.61
-5.28
-5.81
-6.26
-6.70
-7.26
-8.03
-9.08
-10.39
-11.80
-13.07
-13.89
-14.00
-13.28
-11.83
-9.86
-7.71
-5.65
-3.81
-2.26
-0.93
0.21
1.21
1.99
2.52
2.79
2.84
2.79
2.73
2.75
2.86
3.09
3.42
3.86
4.40
4.95
5.41
5.65
5.62
5.40
5.12
4.95
4.97
5.11
5.21
5.12
4.75
4.16
3.46
2.77
2.11
1.46
0.73
-0.12
-1.04
-1.91
-2.63
-3.16
-3.58
-4.05
-4.76
-5.83
-7.25
-8.89
-10.53
-11.87
-12.68
-12.77
-12.11
-10.75
-8.85
-6.63
-4.34
-2.21
-0.43
0.91
1.80
2.29
2.52
2.60
2.63
2.66
2.69
2.70
2.68
2.59
2.41
2.14
1.73
1.19
0.53
-0.20
-0.90
-1.46
-1.79
-1.86
-1.71
-1.47
-1.26
-1.18
-1.29
-1.64
-2.20
-2.97
-3.93
-5.06
-6.31
-7.57
-8.71
-9.63
-10.30
-10.77
-11.19
-11.70
-12.37
-13.09
-13.63
-13.66
-12.90
-11.23
-8.74
-5.75
-2.73
-0.11
1.82
2.98
3.50
3.60
3.51
3.35
3.18
2.97
2.71
2.46
2.23
2.03
1.83
1.56
1.21
0.84
0.56
0.50
0.70
1.10
1.58
2.01
2.26
2.28
2.03
1.55
0.84
-0.04
-1.03
-2.04
-3.00
-3.89
-4.74
-5.64
-6.65
-7.84
-9.17
-10.51
-11.63
-12.25
-12.13
-11.10
-9.18
-6.58
-3.67
-0.86
1.51
3.30
4.56
5.42
6.02
6.40
6.50
6.31
5.88
5.37
4.95
4.75
4.80
4.99
5.20
5.26
5.12
4.76
4.20
3.51
2.76
2.04
1.42
0.89
0.40
-0.20
-0.99
-2.04
-3.34
-4.87
-6.61
-8.51
-10.46
-12.21
-13.41
-13.70
-12.84
-10.85
-8.04
-4.91
-1.97
0.44
2.17
3.32
4.10
4.63
5.00
5.16
5.02
4.58
3.92
3.22
2.71
2.51
2.65
3.02
3.44
3.72
3.77
3.57
3.18
2.69
2.09
1.34
0.35
-0.88
-2.32
-3.82
-5.25
-6.56
-7.81
-9.12
-10.56
-12.01
-13.17
-13.69
-13.31
-12.01
-9.99
-7.58
-5.10
-2.72
-0.51
1.49
3.22
4.57
5.49
5.96
6.13
6.11
6.07
6.03
5.98
5.92
5.89
5.93
6.03
6.11
6.00
5.59
4.86
3.94
3.04
2.34
1.85
1.42
0.85
-0.01
-1.23
-2.74
-4.47
-6.37
-8.39
-10.45
-12.34
-13.76
-14.36
-13.89
-12.28
-9.74
-6.57
-3.21
-0.03
2.71
4.82
6.29
7.17
7.58
7.68
7.62
7.53
7.51
7.58
7.77
8.03
8.29
8.51
8.67
8.76
8.81
8.86
8.89
8.85
8.66
8.23
7.51
6.45
5.10
3.53
1.87
0.26
-1.25
-2.63
-3.89
-5.07
-6.22
-7.43
-8.79
-10.37
-12.10
-13.75
-14.86
-14.95
-13.68
-11.09
-7.57
-3.74
-0.18
2.79
5.14
7.04
8.63
9.99
11.06
11.79
12.20
12.41
12.57
12.76
12.94
13.05
13.04
12.93
12.83
12.84
12.96
13.14
13.23
13.13
12.78
12.19
11.43
10.60
9.78
9.06
8.46
7.98
7.58
7.15
6.61
5.90
5.01
4.01
2.97
1.94
0.95
-0.01
-0.93
-1.82
-2.64
-3.38
-4.06
-4.77
-5.63
-6.73
-8.09
-9.68
-11.33
-12.79
-13.80
-14.10
-13.49
-11.93
-9.50
-6.49
-3.25
-0.18
2.43
4.46
5.92
6.97
7.76
8.38
8.87
9.21
9.39
9.46
9.52
9.65
9.94
10.31
10.65
10.80
10.67
10.26
9.71
9.18
8.80
8.65
8.62
8.58
8.36
7.89
7.20
6.39
5.61
4.94
4.41
3.94
3.47
2.94
2.32
1.58
0.66
-0.52
-2.08
-4.00
-6.14
-8.13
-9.54
-10.01
-9.33
-7.62
-5.23
-2.65
-0.27
1.65
3.07
4.13
4.95
5.63
6.12
6.38
6.35
6.08
5.71
5.40
5.27
5.33
5.53
5.75
5.94
6.06
6.15
6.20
6.20
6.09
5.79
5.28
4.58
3.80
3.03
2.37
1.79
1.24
0.59
-0.26
-1.32
-2.57
-3.88
-5.12
-6.16
-6.94
-7.50
-7.95
-8.49
-9.24
-10.27
-11.43
-12.51
-13.20
-13.30
-12.71
-11.51
-9.86
-7.97
-6.04
-4.24
-2.67
-1.38
-0.38
0.35
0.85
1.17
1.36
1.46
1.52
1.56
1.63
1.71
1.84
2.09
2.48
3.05
3.77
4.56
5.27
5.76
5.91
5.67
5.06
4.19
3.21
2.28
1.51
0.95
0.57
0.26
-0.10
-0.64
-1.44
-2.46
-3.64
-4.82
-5.84
-6.59
-7.03
-7.23
-7.35
-7.57
-8.04
-8.85
-9.95
-11.17
-12.24
-12.83
-12.64
-11.50
-9.50
-6.93
-4.28
-2.01
-0.43
0.44
0.78
0.87
0.98
1.21
1.56
1.94
2.25
2.44
2.54
2.59
2.62
2.66
2.71
2.80
2.92
3.08
3.27
3.43
3.49
3.32
2.88
2.14
1.19
0.21
-0.61
-1.10
-1.25
-1.19
-1.13
-1.27
-1.73
-2.48
-3.38
-4.30
-5.08
-5.69
-6.15
-6.49
-6.78
-7.07
-7.45
-7.96
-8.66
-9.52
-10.43
-11.19
-11.57
-11.37
-10.50
-9.00
-7.05
-4.94
-2.94
-1.27
-0.04
0.80
1.33
1.71
2.06
2.43
2.79
3.10
3.34
3.54
3.80
4.18
4.67
5.21
5.70
6.07
6.31
6.48
6.59
6.66
6.63
6.47
6.16
5.75
5.32
4.89
4.46
3.94
3.28
2.48
1.60
0.74
0.02
-0.55
-1.00
-1.44
-1.98
-2.73
-3.72
-4.93
-6.22
-7.40
-8.31
-8.80
-8.76
-8.16
-7.04
-5.53
-3.79
-2.03
-0.43
0.88
1.87
2.63
3.24
3.78
4.25
4.59
4.73
4.65
4.42
4.16
3.99
3.95
4.06
4.27
4.52
4.81
5.14
5.52
5.93
6.26
6.36
6.15
5.61
4.81
3.90
3.01
2.19
1.42
0.58
-0.39
-1.51
-2.68
-3.78
-4.73
-5.52
-6.26
-7.09
-8.11
-9.37
-10.80
-12.25
-13.52
-14.35
-14.51
-13.90
-12.52
-10.53
-8.25
-6.00
-4.07
-2.57
-1.42
-0.47
0.45
1.39
2.29
3.03
3.52
3.78
3.91
4.06
4.29
4.59
4.87
5.06
5.18
5.29
5.44
5.61
5.74
5.73
5.55
5.22
4.80
4.28
3.63
2.77
1.73
0.59
-0.45
-1.24
-1.76
-2.12
-2.56
-3.21
-4.11
-5.15
-6.15
-7.04
-7.87
-8.79
-9.93
-11.30
-12.68
-13.76
-14.18
-13.69
-12.29
-10.15
-7.60
-4.98
-2.58
-0.58
0.98
2.12
2.94
3.50
3.87
4.14
4.37
4.61
4.87
5.10
5.24
5.25
5.17
5.09
5.15
5.38
5.72
6.05
6.18
6.03
5.61
5.03
4.43
3.87
3.33
2.75
2.08
1.27
0.39
-0.53
-1.43
-2.29
-3.17
-4.08
-5.00
-5.87
-6.66
-7.42
-8.25
-9.30
-10.65
-12.22
-13.81
-15.13
-15.84
-15.74
-14.74
-12.93
-10.46
-7.62
-4.72
-2.10
0.01
1.51
2.48
3.11
3.62
4.13
4.62
4.98
5.10
5.02
4.87
4.87
5.14
5.68
6.33
6.90
7.25
7.36
7.26
7.04
6.75
6.40
6.00
5.50
4.90
4.18
3.35
2.44
1.47
0.53
-0.33
-1.03
-1.57
-1.97
-2.29
-2.64
-3.17
-4.01
-5.24
-6.78
-8.42
-9.85
-10.72
-10.81
-10.07
-8.61
-6.68
-4.59
-2.55
-0.71
0.87
2.19
3.29
4.18
4.88
5.42
5.80
6.00
6.05
5.98
5.90
5.93
6.14
6.54
7.01
7.41
7.62
7.60
7.42
7.20
6.97
6.74
6.40
5.84
5.03
4.02
2.92
1.84
0.85
-0.05
-0.91
-1.80
-2.73
-3.68
-4.64
-5.58
-6.57
-7.70
-9.08
-10.74
-12.64
-14.60
-16.35
-17.54
-17.86
-17.14
-15.39
-12.86
-9.93
-7.01
-4.38
-2.17
-0.37
1.10
2.25
3.12
3.70
4.05
4.28
4.53
4.86
5.25
5.68
6.11
6.60
7.23
8.04
9.00
9.95
10.72
11.17
11.25
11.03
10.61
10.09
9.52
8.90
8.22
7.45
6.56
5.57
4.44
3.19
1.82
0.30
-1.30
-2.91
-4.42
-5.72
-6.73
-7.47
-8.03
-8.53
-9.15
-10.02
-11.26
-12.91
-14.86
-16.82
-18.37
-19.08
-18.62
-16.93
-14.25
-11.02
-7.73
-4.76
-2.27
-0.23
1.46
2.89
4.11
5.19
6.17
7.15
8.16
9.19
10.11
10.81
11.22
11.38
11.41
11.43
11.52
11.69
11.85
11.93
11.88
11.69
11.38
10.93
10.34
9.63
8.78
7.87
6.98
6.21
5.56
4.99
4.42
3.80
3.13
2.45
1.82
1.25
0.70
0.08
-0.68
-1.58
-2.59
-3.65
-4.74
-5.90
-7.18
-8.61
-10.19
-11.85
-13.51
-15.07
-16.36
-17.17
-17.27
-16.51
-14.88
-12.56
-9.85
-7.08
-4.53
-2.29
-0.36
1.32
2.80
4.12
5.30
6.35
7.29
8.12
8.83
9.39
9.80
10.10
10.34
10.59
10.89
11.22
11.53
11.79
11.94
11.99
11.95
11.79
11.47
10.94
10.13
9.01
7.65
6.19
4.79
3.63
2.81
2.30
1.96
1.61
1.03
0.11
-1.18
-2.70
-4.28
-5.71
-6.89
-7.86
-8.76
-9.80
-11.12
-12.71
-14.33
-15.61
-16.15
-15.66
-14.11
-11.74
-8.99
-6.34
-4.17
-2.64
-1.62
-0.86
-0.11
0.68
1.36
1.67
1.37
0.44
-0.93
-2.39
-3.61
-4.33
-4.51
-4.24
-3.79
-3.63
-4.36
-6.51
-10.23
-14.97
-19.45
-21.98
-21.07
-16.09
-7.56
3.10
14.01
23.56
30.71
35.00
36.31
34.56
29.74
22.01
11.97
0.67
-10.56
-20.45
-28.14
-33.29
-36.08
-37.02
-36.73
-35.77
-34.55
-33.39
-32.52
-32.15
-32.41
-33.30
-34.59
-35.89
-36.68
-36.55
-35.32
-33.10
-30.24
-27.14
-24.09
-21.19
-18.38
-15.50
-12.43
-9.13
-5.66
-2.16
1.25
4.43
7.34
9.98
12.45
14.75
16.89
18.82
20.56
22.17
23.78
25.50
27.34
29.11
30.45
31.01
30.54
29.05
26.85
24.42
22.26
20.69
19.74
19.19
18.68
17.89
16.68
15.16
13.63
12.43
11.80
11.77
12.11
12.42
12.19
10.95
8.46
4.83
0.49
-3.77
-7.15
-9.08
-9.46
-8.77
-7.95
-8.10
-10.01
-13.86
-18.97
-24.06
-27.58
-28.17
-25.11
-18.55
-9.48
0.49
9.65
16.67
20.95
22.68
22.61
21.68
20.69
20.14
20.27
21.07
22.33
23.57
24.17
23.58
21.83
19.75
18.73
20.02
23.83
29.00
33.37
34.79
32.20
26.04
17.92
9.74
2.86
-2.14
-5.22
-6.36
-5.25
-1.51
4.93
13.48
22.91
31.69
38.54
42.68
44.02
42.96
40.15
36.21
31.55
26.31
20.48
14.03
7.15
0.23
-6.22
-11.83
-16.45
-20.21
-23.31
-25.85
-27.69
-28.61
-28.45
-27.36
-25.76
-24.25
-23.32
-23.21
-23.85
-24.98
-26.27
-27.41
-28.17
-28.46
-28.32
-27.91
-27.50
-27.33
-27.61
-28.34
-29.34
-30.22
-30.51
-29.75
-27.63
-24.17
-19.67
-14.73
-10.01
-6.07
-3.21
-1.40
-0.43
-0.00
0.08
-0.10
-0.47
-0.99
-1.47
-1.65
-1.31
-0.33
1.20
3.06
4.95
6.61
7.90
8.77
9.25
9.36
9.11
8.49
7.49
6.13
4.49
2.74
1.09
-0.28
-1.27
-1.97
-2.68
-3.72
-5.41
-7.84
-10.86
-14.06
-16.87
-18.70
-19.05
-17.69
-14.67
-10.42
-5.56
-0.77
3.39
6.68
9.11
10.96
12.49
13.91
15.28
16.53
17.56
18.33
18.86
19.30
19.86
20.68
21.80
23.07
24.18
24.77
24.48
23.15
20.82
17.79
14.49
11.38
8.77
6.75
5.20
3.83
2.40
0.79
-0.94
-2.67
-4.30
-5.82
-7.31
-8.91
-10.72
-12.75
-14.99
-17.40
-19.95
-22.52
-24.85
-26.52
-27.05
-26.04
-23.39
-19.34
-14.42
-9.29
-4.48
-0.31
3.17
6.13
8.75
11.14
13.28
15.07
16.44
17.38
17.99
18.43
18.85
19.38
20.03
20.77
21.53
22.27
22.96
23.52
23.88
23.88
23.36
22.22
20.49
18.43
16.41
14.83
13.94
13.70
13.78
13.70
13.02
11.57
9.52
7.22
5.07
3.29
1.91
0.91
0.23
-0.09
-0.08
0.07
-0.08
-1.10
-3.49
-7.48
-12.89
-19.28
-26.04
-32.61
-38.47
-43.11
-45.95
-46.44
-44.23
-39.42
-32.68
-25.08
-17.76
-11.59
-6.75
-2.88
0.78
4.91
9.75
15.00
20.03
24.22
27.28
29.36
30.84
32.10
33.24
34.03
34.10
33.17
31.28
28.76
26.04
23.50
21.24
19.21
17.24
15.23
13.16
11.07
8.98
6.89
4.71
2.39
-0.01
-2.27
-4.12
-5.34
-5.96
-6.37
-7.26
-9.34
-12.98
-17.92
-23.29
-28.05
-31.51
-33.65
-35.14
-36.92
-39.62
-43.21
-47.03
-50.26
-52.27
-52.82
-51.83
-49.11
-44.28
-37.10
-27.91
-17.85
-8.60
-1.72
2.07
3.08
2.33
0.99
-0.16
-0.79
-0.78
0.07
2.09
5.44
9.80
14.25
17.61
18.96
18.28
16.91
17.55
23.84
39.24
65.69
102.56
146.48
192.24
234.54
269.61
295.96
313.87
324.20
327.22
322.53
309.83
290.06
266.04
241.96
222.10
209.35
204.34
205.27
208.51
209.65
204.57
190.34
165.93
132.13
90.99
44.89
-4.41
-56.19
-110.69
-168.23
-228.20
-288.15
-343.85
-389.88
-420.99
-433.59
-426.98
-403.93
-370.17
-332.85
-298.51
-270.98
-250.60
-234.94
-220.85
-206.47
-192.05
-179.16
-168.94
-160.64
-151.59
-138.67
-120.49
-98.78
-77.80
-62.20
-54.25
-52.35
-51.70
-46.70
-33.75
-13.13
11.30
34.02
50.35
58.27
58.77
54.94
50.09
46.18
43.06
38.78
30.27
14.32
-11.31
-46.54
-88.00
-128.89
-160.19
-173.36
-163.50
-131.54
-84.17
-31.51
16.55
53.54
77.81
91.72
99.54
105.22
111.19
118.36
126.77
136.17
146.04
155.35
162.53
165.64
163.02
154.06
139.49
121.30
102.17
84.67
70.67
60.82
54.59
50.61
47.30
43.45
38.68
33.52
28.99
26.14
25.43
26.58
28.64
30.45
31.02
29.79
26.69
22.01
16.25
9.90
3.42
-2.81
-8.40
-13.06
-16.48
-18.46
-18.89
-17.85
-15.66
-12.82
-9.99
-7.83
-6.91
-7.50
-9.53
-12.60
-16.07
-19.22
-21.48
-22.53
-22.29
-20.89
-18.56
-15.56
-12.23
-8.92
-6.02
-3.80
-2.36
-1.58
-1.21
-0.99
-0.80
-0.66
-0.64
-0.81
-1.09
-1.33
-1.37
-1.13
-0.62
0.03
0.69
1.27
1.71
1.93
1.86
1.46
0.71
-0.26
-1.29
-2.23
-2.99
-3.60
-4.20
-4.91
-5.78
-6.71
-7.54
-8.09
-8.27
-8.13
-7.84
-7.59
-7.49
-7.52
-7.46
-7.02
-5.93
-4.04
-1.45
1.57
4.63
7.40
9.61
11.12
11.86
11.78
10.87
9.15
6.73
3.83
0.76
-2.16
-4.66
-6.62
-8.08
-9.21
-10.26
-11.48
-12.99
-14.84
-16.98
-19.38
-22.03
-24.89
-27.86
-30.72
-33.13
-34.75
-35.36
-34.93
-33.60
-31.65
-29.32
-26.82
-24.29
-21.86
-19.69
-18.04
-17.10
-16.94
-17.35
-17.85
-17.86
-16.88
-14.68
-11.43
-7.61
-3.79
-0.46
2.12
3.99
5.30
6.28
7.07
7.72
8.24
8.66
9.00
9.33
9.73
10.22
10.76
11.30
11.78
12.18
12.51
12.82
13.11
13.34
13.42
13.30
12.93
12.33
11.59
10.72
9.76
8.70
7.58
6.44
5.37
4.41
3.55
2.70
1.73
0.53
-0.93
-2.58
-4.27
-5.87
-7.29
-8.55
-9.72
-10.96
-12.40
-14.12
-16.11
-18.22
-20.20
-21.71
-22.41
-22.07
-20.64
-18.24
-15.14
-11.65
-8.09
-4.72
-1.77
0.63
2.43
3.65
4.50
5.19
5.91
6.74
7.65
8.46
9.03
9.25
9.12
8.77
8.36
8.08
8.07
8.40
8.98
9.66
10.14
10.17
9.61
8.55
7.27
6.20
5.68
5.77
6.14
6.22
5.40
3.45
0.61
-2.39
-4.68
-5.64
-5.24
-4.02
-2.94
-2.95
-4.74
-8.54
-14.19
-21.14
-28.52
-35.22
-40.13
-42.55
-42.70
-41.79
-41.58
-43.31
-46.77
-49.94
-49.77
-43.80
-31.67
-15.58
0.55
12.91
19.54
21.02
19.81
18.80
20.22
25.27
34.54
48.41
67.06
89.83
114.79
138.96
159.30
173.98
183.03
188.02
190.92
192.96
194.01
193.03
188.95
181.59
171.94
161.72
152.60
145.40
139.84
134.60
127.83
117.86
103.73
85.61
64.83
43.56
24.16
8.50
-2.48
-9.14
-13.32
-18.16
-27.38
-44.14
-69.86
-103.41
-141.55
-180.16
-215.89
-247.19
-274.23
-297.86
-318.32
-334.64
-344.96
-347.93
-343.96
-335.66
-327.19
-322.82
-325.29
-334.89
-349.09
-362.88
-369.91
-363.92
-340.36
-297.70
-238.06
-166.97
-92.01
-21.00
39.84
87.03
120.00
140.51
151.54
156.28
157.51
157.31
157.03
157.26
157.87
158.08
156.82
153.02
146.24
136.95
126.38
116.10
107.50
101.23
97.12
94.36
91.82
88.46
83.71
77.57
70.58
63.65
57.76
53.57
51.29
50.51
50.42
50.14
48.99
46.73
43.56
39.94
36.29
32.86
29.65
26.62
23.82
21.51
20.13
20.07
21.55
24.45
28.32
32.53
36.38
39.25
40.63
40.22
37.94
33.97
28.81
23.13
17.55
12.44
7.81
3.39
-1.09
-5.55
-9.50
-12.17
-12.91
-11.54
-8.53
-4.74
-1.10
1.69
3.31
3.65
2.71
0.45
-3.05
-7.49
-12.27
-16.57
-19.60
-20.84
-20.12
-17.58
-13.55
-8.54
-3.25
1.38
4.36
5.01
3.26
-0.20
-4.20
-7.57
-9.57
-10.06
-9.29
-7.56
-5.12
-2.26
0.41
1.96
1.45
-1.48
-6.20
-11.19
-14.67
-15.42
-13.27
-9.12
-4.32
-0.01
3.20
5.33
6.70
7.69
8.62
9.77
11.38
13.58
16.26
18.94
20.85
21.11
19.13
14.87
8.95
2.35
-3.83
-8.88
-12.59
-15.30
-17.60
-20.00
-22.74
-25.66
-28.38
-30.46
-31.60
-31.73
-30.98
-29.60
-27.88
-26.03
-24.19
-22.45
-20.79
-19.18
-17.60
-15.99
-14.26
-12.28
-9.91
-7.11
-4.03
-0.96
1.74
3.83
5.36
6.57
7.74
9.02
10.28
11.13
11.13
10.03
7.92
5.22
2.51
0.30
-1.09
-1.58
-1.33
-0.55
0.50
1.53
2.28
2.53
2.16
1.19
-0.18
-1.67
-2.92
-3.65
-3.77
-3.31
-2.50
-1.59
-0.79
-0.18
0.26
0.68
1.18
1.79
2.48
3.13
3.66
4.01
4.16
4.09
3.79
3.29
2.65
2.03
1.56
1.30
1.22
1.18
1.01
0.58
-0.09
-0.88
-1.66
-2.32
-2.89
-3.50
-4.43
-5.95
-8.23
-11.11
-14.09
-16.44
-17.47
-16.86
-14.91
-12.51
-10.87
-11.10
-13.76
-18.66
-24.68
-30.03
-32.69
-31.11
-24.96
-15.37
-4.66
4.56
10.34
12.18
10.86
7.81
4.36
1.25
-1.41
-3.83
-6.32
-9.16
-12.49
-16.13
-19.31
-20.46
-17.54
-8.97
5.41
23.65
42.14
56.79
64.64
64.92
59.19
50.44
41.70
34.84
29.90
25.37
19.21
9.95
-2.58
-17.28
-32.30
-45.48
-54.57
-57.26
-51.48
-36.25
-12.60
15.80
43.29
63.83
73.01
69.44
54.63
31.85
4.56
-24.34
-52.40
-77.10
-95.76
-106.24
-108.00
-102.65
-93.41
-83.77
-75.97
-70.40
-65.94
-61.15
-55.37
-49.19
-43.91
-40.42
-38.38
-35.91
-30.31
-19.23
-1.78
21.11
47.03
73.23
97.65
119.26
137.77
153.09
165.36
175.42
185.42
198.42
217.03
241.57
269.16
294.51
311.98
317.98
312.17
296.78
274.90
248.91
220.06
189.22
158.14
129.87
107.95
94.92
90.71
92.03
92.99
86.74
67.78
34.02
-12.47
-66.07
-119.40
-165.59
-200.08
-221.11
-229.73
-229.17
-224.26
-220.70
-223.40
-234.14
-249.68
-261.80
-260.41
-238.71
-197.56
-146.67
-101.39
-76.72
-81.31
-114.55
-167.28
-225.64
-275.99
-308.61
-319.56
-310.31
-285.95
-253.11
-218.19
-186.33
-161.07
-144.39
-136.31
-134.71
-135.65
-134.48
-128.04
-116.23
-101.99
-89.38
-80.64
-74.32
-65.63
-49.06
-21.30
16.85
60.77
103.77
139.02
160.43
162.79
142.15
97.27
31.49
-46.27
-122.48
-182.47
-214.82
-214.76
-185.08
-134.22
-72.26
-7.36
55.71
114.67
167.40
210.39
239.55
252.73
252.25
244.91
239.04
239.69
245.23
247.39
235.20
201.14
145.61
77.55
10.81
-41.55
-71.86
-79.22
-67.85
-43.92
-13.23
19.48
49.76
72.69
83.08
77.14
54.68
20.40
-16.62
-45.29
-56.15
-44.67
-12.94
31.15
76.80
114.19
137.68
146.91
145.61
138.84
130.24
120.70
108.83
92.60
71.07
45.14
17.12
-10.24
-34.58
-54.13
-67.59
-74.00
-72.87
-64.73
-51.50
-36.44
-23.36
-15.55
-14.68
-20.32
-30.19
-41.01
-49.69
-54.26
-54.39
-51.28
-47.03
-43.76
-42.74
-43.97
-46.25
-47.88
-47.53
-44.97
-41.08
-37.27
-34.60
-33.16
-32.15
-30.61
-28.14
-25.28
-23.20
-22.92
-24.56
-27.19
-29.34
-29.83
-28.48
-26.14
-24.16
-23.65
-24.93
-27.47
-30.24
-32.27
-32.96
-32.28
-30.70
-29.06
-28.48
-30.07
-34.37
-40.68
-46.55
-48.07
-41.02
-22.51
7.77
47.36
92.22
138.20
181.99
220.74
251.09
268.84
270.06
253.22
220.96
179.89
138.29
103.08
77.38
60.35
48.72
38.81
27.68
13.13
-6.93
-34.83
-72.36
-119.50
-173.29
-227.64
-274.80
-307.32
-319.95
-310.90
-281.89
-237.01
-180.99
-117.96
-51.39
14.74
74.38
119.21
140.59
133.42
99.69
49.65
-0.87
-36.08
-46.19
-30.78
1.82
38.76
68.13
83.05
82.95
72.04
56.40
41.24
29.57
22.20
18.69
18.44
20.99
25.65
30.74
33.19
29.00
14.90
-9.72
-41.61
-73.98
-98.38
-107.57
-98.06
-71.37
-33.58
6.37
39.20
57.74
58.76
43.62
17.59
-12.06
-38.44
-56.97
-66.11
-66.76
-60.99
-51.06
-38.92
-26.26
-14.52
-4.21
5.82
18.80
38.97
69.04
107.32
146.56
175.96
185.92
173.06
142.32
104.91
73.08
54.75
50.88
56.85
66.16
74.10
78.97
81.06
80.47
76.04
65.80
48.50
24.69
-3.34
-32.41
-59.25
-81.01
-95.37
-100.92
-97.80
-88.01
-75.00
-62.25
-51.87
-43.88
-36.78
-29.17
-21.35
-15.67
-15.17
-21.40
-32.55
-43.45
-47.59
-40.20
-20.79
6.52
34.90
58.10
72.99
80.26
83.11
84.95
87.74
91.86
97.29
104.76
115.69
130.71
147.91
162.61
169.27
164.54
149.40
128.90
109.24
93.95
81.75
67.18
43.57
6.40
-44.71
-106.00
-170.91
-231.79
-281.13
-312.44
-321.30
-306.22
-269.02
-214.00
-146.46
-71.73
4.64
75.83
133.41
168.70
176.15
156.56
118.15
73.87
36.21
12.25
2.04
0.69
2.33
3.63
4.44
6.26
9.88
14.36
17.79
18.96
18.16
16.50
14.40
10.42
1.72
-14.08
-37.10
-64.62
-92.32
-116.43
-135.35
-149.76
-161.44
-171.69
-180.83
-188.81
-196.61
-207.02
-223.81
-249.28
-281.87
-315.33
-340.52
-349.01
-336.73
-305.68
-262.65
-215.98
-172.02
-133.15
-98.26
-64.55
-29.60
7.74
47.43
88.91
131.40
173.67
213.62
248.25
274.25
289.07
291.94
284.19
268.70
248.78
227.20
205.56
184.46
164.10
144.80
127.28
112.52
101.37
94.19
90.64
89.86
90.82
92.81
95.68
99.74
105.45
112.93
121.61
130.29
137.56
142.33
144.34
144.06
142.33
139.86
136.82
132.88
127.37
119.21
106.75
87.59
59.26
20.51
-27.11
-78.71
-127.07
-165.01
-187.97
-195.38
-190.31
-177.54
-161.59
-145.53
-130.94
-118.65
-109.08
-102.11
-96.55
-90.14
-80.24
-64.91
-43.87
-18.56
8.62
35.47
60.77
84.52
107.38
129.91
151.90
172.29
189.78
203.56
213.79
221.35
226.94
230.24
229.82
224.13
212.80
197.55
181.70
168.36
158.37
149.45
136.98
116.29
84.82
43.00
-6.67
-61.27
-118.34
-175.19
-227.54
-268.91
-292.24
-293.10
-272.66
-238.31
-201.02
-170.77
-152.43
-144.43
-140.71
-134.63
-122.44
-104.56
-84.38
-65.71
-50.62
-38.81
-28.36
-17.31
-5.02
7.17
16.40
19.71
15.73
6.01
-5.08
-11.81
-9.67
2.42
21.41
41.57
57.26
65.38
66.22
62.37
57.00
52.68
51.49
55.64
67.36
87.46
112.89
136.01
146.69
137.19
107.33
66.74
32.16
20.55
41.59
93.00
161.33
227.55
274.23
290.92
275.91
234.85
177.61
115.14
57.14
10.66
-20.93
-38.25
-45.70
-50.35
-60.06
-81.50
-117.97
-167.79
-223.80
-274.56
-307.19
-311.22
-282.65
-226.03
-153.81
-82.65
-28.08
0.26
0.92
-20.30
-53.45
-88.29
-117.21
-136.48
-145.84
-147.33
-143.95
-138.65
-133.73
-130.81
-130.85
-134.19
-140.69
-149.67
-160.01
-170.23
-178.55
-183.19
-182.80
-177.14
-167.47
-156.36
-146.91
-141.59
-141.63
-146.68
-155.21
-164.89
-172.86
-175.67
-169.48
-151.08
-119.41
-77.19
-30.98
10.42
39.03
50.76
46.82
32.94
16.89
5.69
3.79
12.89
32.86
62.61
100.52
143.84
188.34
228.44
258.68
275.36
277.90
269.02
253.61
237.09
223.48
214.23
208.15
202.46
194.29
182.28
167.16
151.00
135.73
121.53
106.51
87.70
63.12
33.41
2.09
-25.83
-46.13
-57.13
-60.32
-59.47
-58.97
-62.33
-71.18
-85.09
-101.81
-117.95
-129.71
-133.84
-128.28
-112.61
-87.95
-56.54
-21.44
13.67
44.66
67.63
80.05
82.00
76.49
68.54
63.38
64.43
72.25
84.89
99.03
111.21
118.57
119.03
111.36
95.48
72.83
46.42
20.21
-2.08
-17.98
-26.70
-28.83
-25.84
-19.69
-12.86
-7.97
-7.03
-10.36
-16.17
-21.25
-22.78
-20.10
-15.28
-11.81
-12.40
-17.08
-23.12
-26.62
-24.80
-17.52
-7.14
3.04
10.65
15.27
18.09
20.73
24.06
27.80
30.88
32.36
32.02
30.55
29.20
29.22
31.38
35.73
41.67
48.21
54.20
58.78
61.73
63.79
66.55
71.90
81.07
93.88
108.30
120.89
127.76
125.81
113.80
93.09
67.84
44.15
28.29
24.52
33.03
49.33
65.65
73.71
67.75
46.25
11.87
-29.89
-72.30
-108.91
-134.82
-148.01
-150.42
-147.91
-148.08
-156.65
-173.96
-193.66
-204.86
-197.05
-165.14
-112.41
-49.86
7.44
45.37
55.19
35.86
-5.87
-57.34
-103.37
-130.49
-130.66
-103.67
-56.95
-2.90
45.01
76.10
84.93
71.97
42.82
6.58
-26.42
-47.01
-49.43
-33.00
-2.64
32.35
61.10
74.72
69.71
49.08
20.77
-5.87
-23.93
-31.08
-29.19
-22.01
-12.68
-2.32
9.32
22.21
34.57
42.83
43.25
34.17
17.37
-2.39
-19.50
-30.27
-34.51
-35.35
-37.24
-43.36
-53.65
-64.65
-71.06
-68.36
-55.25
-34.59
-12.21
5.60
15.08
16.59
14.35
14.20
20.63
34.65
53.50
72.33
86.82
95.05
98.03
98.41
98.58
99.51
100.74
101.59
102.14
103.44
106.63
111.94
118.28
124.03
128.28
131.59
135.35
140.10
144.04
142.88
131.65
107.35
70.76
26.46
-19.23
-60.90
-95.98
-124.80
-149.28
-171.18
-191.19
-209.05
-224.28
-236.83
-247.04
-255.23
-261.39
-265.23
-266.46
-265.00
-260.83
-253.70
-242.89
-227.38
-206.19
-178.97
-146.61
-111.61
-77.84
-49.78
-31.24
-24.19
-27.97
-38.98
-51.51
-59.06
-55.99
-39.09
-8.47
32.44
77.80
120.99
156.40
180.62
192.77
193.72
185.27
169.47
148.69
126.20
106.17
92.91
89.27
95.39
108.51
124.27
138.53
148.87
154.52
155.34
150.43
137.89
115.99
84.98
48.14
11.46
-18.55
-37.48
-44.78
-43.59
-38.94
-35.21
-34.37
-35.79
-37.45
-37.58
-35.84
-33.23
-31.20
-30.59
-31.11
-31.68
-31.28
-29.62
-27.36
-25.48
-24.51
-24.02
-22.85
-19.95
-15.21
-9.79
-5.62
-4.37
-6.57
-11.26
-16.53
-20.40
-21.65
-20.21
-16.94
-13.08
-9.68
-7.43
-6.52
-6.89
-8.27
-10.25
-12.34
-14.06
-15.06
-15.23
-14.75
-13.96
-13.19
-12.59
-12.09
-11.46
-10.48
-9.03
-7.09
-4.84
-2.45
-0.03
2.39
4.90
7.61
10.52
13.42
15.84
17.21
17.05
15.25
12.19
8.65
5.50
3.29
2.01
1.01
-0.66
-3.86
-8.87
-15.19
-21.78
-27.42
-31.37
-33.77
-35.72
-38.85
-44.61
-53.49
-64.69
-76.19
-85.31
-89.46
-87.00
-77.83
-63.89
-49.00
-38.04
-35.25
-42.22
-56.70
-72.72
-82.34
-78.39
-57.06
-19.10
30.55
84.53
135.14
176.25
204.55
219.84
224.40
221.61
214.40
204.39
192.01
177.54
162.38
149.28
141.14
139.01
140.65
140.73
133.14
113.87
83.18
45.32
6.37
-28.69
-57.73
-81.25
-100.83
-117.41
-130.61
-139.20
-142.34
-140.67
-136.39
-132.27
-130.21
-130.25
-130.52
-127.94
-119.20
-101.72
-74.27
-37.61
5.08
48.31
85.28
109.72
117.82
109.65
89.11
62.64
37.16
18.10
8.15
7.05
12.17
19.51
24.88
25.02
18.54
6.48
-8.13
-21.35
-29.90
-32.27
-29.00
-22.06
-13.83
-6.25
-0.45
3.06
4.10
2.52
-1.69
-8.20
-16.30
-24.81
-32.39
-37.77
-40.06
-38.89
-34.50
-27.69
-19.67
-11.83
-5.46
-1.44
0.02
-0.58
-2.13
-3.30
-2.94
-0.63
3.16
7.26
10.28
11.19
9.82
6.77
3.14
-0.08
-2.37
-3.84
-5.02
-6.47
-8.56
-11.46
-15.36
-20.43
-26.37
-31.89
-34.50
-31.20
-19.96
-1.39
20.61
39.80
49.85
46.83
30.63
4.51
-26.57
-57.82
-85.33
-105.79
-115.82
-112.16
-92.90
-59.28
-16.49
27.12
62.61
83.42
87.65
78.46
62.63
47.85
39.99
41.32
50.30
62.50
72.54
75.89
70.29
56.21
36.49
15.29
-3.19
-15.90
-21.81
-22.08
-19.63
-17.88
-19.35
-24.62
-32.02
-38.55
-41.31
-38.98
-32.48
-24.62
-18.86
-17.76
-21.83
-29.23
-36.30
-38.56
-32.06
-14.55
13.62
49.15
86.29
118.18
138.68
144.29
135.56
117.00
95.45
77.36
66.10
60.27
54.27
41.05
15.71
-21.18
-62.69
-97.41
-113.55
-103.71
-67.86
-13.61
46.85
101.37
141.90
165.99
175.49
173.37
161.09
138.27
104.97
64.79
26.39
1.40
-0.56
22.85
64.38
109.26
141.33
149.44
131.18
92.43
43.78
-4.06
-43.53
-71.07
-86.83
-93.54
-95.64
-98.36
-106.36
-122.30
-146.22
-175.85
-207.67
-237.92
-262.65
-277.10
-275.43
-251.87
-203.70
-134.53
-55.59
16.54
65.45
81.41
65.79
30.73
-5.73
-27.04
-24.62
-0.76
33.13
61.54
71.10
55.23
15.68
-38.89
-96.66
-146.86
-182.89
-203.18
-210.01
-207.01
-197.44
-183.86
-168.92
-156.06
-148.95
-149.72
-157.26
-167.33
-174.80
-177.00
-175.86
-177.14
-186.80
-206.78
-232.89
-256.13
-266.69
-258.12
-229.16
-182.77
-123.46
-55.23
18.66
94.21
165.47
224.84
265.62
285.14
286.74
278.72
270.82
269.83
276.77
287.12
293.88
291.40
278.16
257.07
233.57
212.99
198.54
190.67
187.56
186.08
182.63
174.03
158.35
135.62
108.12
79.74
54.62
35.51
22.91
15.21
9.98
5.23
0.20
-4.91
-9.82
-14.89
-21.15
-29.53
-39.86
-50.58
-59.28
-63.94
-63.97
-60.52
-55.93
-52.73
-52.49
-55.30
-59.86
-64.10
-66.00
-64.44
-59.57
-52.80
-46.18
-41.48
-39.48
-39.69
-40.81
-41.54
-41.32
-40.55
-40.15
-40.85
-42.54
-44.24
-44.76
-43.34
-40.23
-36.62
-34.07
-33.80
-36.20
-40.69
-45.96
-50.50
-52.99
-52.69
-49.77
-45.26
-40.79
-38.07
-38.22
-41.59
-48.02
-57.04
-67.76
-78.45
-86.25
-87.77
-80.49
-64.34
-42.40
-19.88
-1.77
9.64
15.82
21.07
29.97
45.01
65.68
89.29
112.82
134.26
152.79
167.94
178.64
182.95
178.94
165.85
144.94
119.59
94.24
72.84
57.49
48.06
42.61
38.59
34.06
28.41
22.30
17.02
13.65
12.53
13.21
14.83
16.56
17.90
18.80
19.45
20.09
20.82
21.54
22.11
22.36
22.20
21.67
20.84
19.90
19.02
18.35
17.95
17.77
17.66
17.34
16.47
14.71
11.93
8.20
3.81
-0.86
-5.47
-9.88
-14.07
-18.11
-21.99
-25.57
-28.61
-30.94
-32.51
-33.37
-33.66
-33.48
-32.85
-31.73
-30.11
-28.06
-25.67
-23.02
-20.14
-16.96
-13.44
-9.58
-5.53
-1.54
2.05
4.98
7.09
8.32
8.78
8.62
8.04
7.15
6.00
4.57
2.86
0.90
-1.22
-3.37
-5.42
-7.30
-9.03
-10.66
-12.23
-13.74
-15.08
-16.08
-16.52
-16.22
-15.09
-13.18
-10.64
-7.77
-4.86
-2.14
0.23
2.28
4.05
5.58
6.88
7.89
8.54
8.77
8.54
7.83
6.65
5.04
3.11
1.05
-0.94
-2.69
-4.19
-5.53
-6.90
-8.46
-10.32
-12.59
-15.38
-18.80
-22.88
-27.45
-32.04
-36.02
-38.71
-39.67
-38.80
-36.35
-32.82
-28.83
-24.90
-21.47
-18.86
-17.25
-16.73
-17.22
-18.43
-19.95
-21.23
-21.73
-21.10
-19.22
-16.25
-12.58
-8.67
-4.95
-1.70
1.00
3.23
5.09
6.64
7.90
8.75
9.14
9.06
8.66
8.17
7.80
7.68
7.76
7.93
8.07
8.09
8.05
8.01
8.05
8.10
8.03
7.67
6.92
5.77
4.31
2.75
1.25
-0.05
-1.12
-2.00
-2.76
-3.51
-4.34
-5.34
-6.55
-7.95
-9.46
-10.97
-12.33
-13.47
-14.44
-15.47
-16.88
-18.92
-21.53
-24.29
-26.37
-26.87
-25.06
-20.66
-13.98
-5.82
2.74
10.58
16.81
20.90
22.75
22.65
21.24
19.29
17.50
16.29
15.78
15.79
15.98
16.01
15.67
14.89
13.79
12.54
11.35
10.42
9.88
9.77
10.04
10.58
11.21
11.71
11.86
11.50
10.60
9.27
7.72
6.22
4.96
3.98
3.14
2.24
1.09
-0.32
-1.84
-3.25
-4.38
-5.20
-5.89
-6.70
-7.86
-9.43
-11.33
-13.34
-15.28
-17.08
-18.80
-20.63
-22.71
-25.00
-27.24
-29.00
-29.75
-29.13
-27.09
-23.91
-20.22
-16.78
-14.26
-13.03
-13.04
-13.82
-14.67
-14.96
-14.38
-13.07
-11.56
-10.53
-10.43
-11.24
-12.36
-12.79
-11.33
-6.99
0.73
11.65
24.96
39.34
53.29
65.52
75.40
83.19
89.98
97.08
105.29
114.16
121.87
125.78
123.52
114.07
98.25
78.37
57.31
37.48
20.23
5.95
-5.38
-13.67
-18.54
-19.55
-16.62
-10.36
-2.01
6.89
14.96
21.30
25.60
27.94
28.57
27.61
25.01
20.61
14.38
6.61
-2.00
-10.46
-17.84
-23.54
-27.45
-29.93
-31.52
-32.67
-33.52
-33.90
-33.41
-31.71
-28.61
-24.14
-18.58
-12.37
-6.00
0.07
5.51
10.16
14.15
17.71
21.06
24.11
26.35
27.00
25.15
20.11
11.70
0.29
-13.37
-28.34
-43.91
-59.87
-76.71
-95.71
-118.59
-146.80
-180.60
-218.31
-256.21
-289.55
-314.07
-327.43
-329.98
-324.41
-314.77
-305.09
-298.15
-294.76
-293.71
-292.24
-286.70
-273.59
-250.77
-218.23
-178.31
-134.82
-91.69
-51.69
-15.70
16.96
47.79
78.14
108.66
139.02
168.14
194.57
216.99
234.63
247.42
255.76
260.39
262.13
261.72
259.86
257.12
254.04
250.92
247.51
243.07
236.63
227.52
215.81
202.38
188.56
175.66
164.48
155.09
147.04
139.47
131.27
121.43
109.30
95.01
79.66
65.16
53.53
45.98
42.22
40.22
37.07
30.07
17.92
1.20
-18.06
-37.26
-54.26
-67.95
-78.27
-85.71
-90.88
-94.09
-95.46
-95.06
-93.20
-90.46
-87.51
-84.80
-82.41
-80.03
-77.24
-73.64
-69.18
-64.09
-58.76
-53.61
-48.91
-44.83
-41.50
-38.98
-37.30
-36.41
-36.17
-36.30
-36.38
-35.84
-34.06
-30.57
-25.24
-18.49
-11.22
-4.60
0.41
3.35
4.36
4.06
3.17
2.36
2.03
2.37
3.40
5.01
6.96
8.94
10.65
11.97
13.03
14.17
15.76
18.02
20.95
24.35
27.91
31.34
34.34
36.62
37.92
38.05
36.94
34.69
31.56
27.81
23.71
19.38
14.94
10.51
6.28
2.51
-0.62
-3.07
-4.99
-6.66
-8.44
-10.62
-13.32
-16.40
-19.52
-22.16
-23.83
-24.19
-23.16
-20.96
-17.99
-14.75
-11.67
-9.06
-7.06
-5.68
-4.87
-4.56
-4.64
-4.96
-5.36
-5.70
-5.92
-6.07
-6.32
-6.82
-7.62
-8.61
-9.46
-9.86
-9.62
-8.82
-7.78
-6.93
-6.57
-6.75
-7.23
-7.61
-7.58
-7.04
-6.15
-5.24
-4.70
-4.80
-5.59
-6.99
-8.69
-10.36
-11.61
-12.12
-11.65
-10.12
-7.67
-4.61
-1.40
1.52
3.78
5.25
6.00
6.22
6.14
5.96
5.73
5.44
5.06
4.55
3.94
3.30
2.66
2.09
1.59
1.18
0.84
0.56
0.27
-0.14
-0.77
-1.74
-3.01
-4.49
-6.03
-7.55
-9.04
-10.58
-12.34
-14.46
-17.05
-20.06
-23.29
-26.33
-28.63
-29.60
-28.79
-26.09
-21.77
-16.41
-10.75
-5.39
-0.71
3.18
6.34
8.84
10.68
11.88
12.45
12.55
12.42
12.37
12.65
13.37
14.49
15.86
17.22
18.31
18.95
19.08
18.76
18.10
17.26
16.36
15.43
14.48
13.42
12.24
10.91
9.52
8.17
6.99
6.01
5.24
4.59
3.95
3.23
2.36
1.21
-0.36
-2.46
-5.17
-8.36
-11.78
-15.03
-17.78
-19.71
-20.65
-20.61
-19.75
-18.47
-17.25
-16.56
-16.63
-17.31
-18.09
-18.30
-17.45
-15.37
-12.31
-8.66
-4.80
-0.88
3.08
7.04
10.83
14.09
16.47
17.76
18.03
17.56
16.73
15.78
14.74
13.50
11.92
9.94
7.68
5.37
3.22
1.41
-0.01
-1.08
-1.88
-2.52
-3.19
-4.10
-5.42
-7.18
-9.20
-11.03
-12.09
-11.85
-10.04
-6.78
-2.54
2.07
6.47
10.22
13.14
15.12
16.13
16.22
15.47
14.06
12.26
10.35
8.57
7.10
6.11
5.78
6.28
7.66
9.77
12.25
14.69
16.76
18.34
19.47
20.23
20.67
20.76
20.47
19.85
19.09
18.39
17.88
17.54
17.14
16.48
15.45
14.08
12.55
11.04
9.63
8.28
6.90
5.33
3.55
1.58
-0.42
-2.29
-3.91
-5.29
-6.55
-7.90
-9.57
-11.64
-14.04
-16.43
-18.37
-19.39
-19.17
-17.67
-15.17
-12.11
-8.99
-6.14
-3.70
-1.67
0.05
1.50
2.67
3.56
4.22
4.74
5.24
5.76
6.24
6.59
6.76
6.78
6.77
6.91
7.29
7.90
8.62
9.25
9.63
9.60
9.11
8.22
7.08
5.89
4.86
4.09
3.55
3.14
2.70
2.13
1.44
0.67
-0.12
-0.86
-1.56
-2.27
-2.95
-3.61
-4.24
-4.90
-5.69
-6.76
-8.15
-9.72
-11.19
-12.13
-12.16
-11.13
-9.13
-6.52
-3.70
-1.05
1.22
3.00
4.29
5.11
5.50
5.53
5.31
4.99
4.70
4.57
4.70
5.16
5.92
6.88
7.85
8.58
8.91
8.82
8.44
8.04
7.80
7.74
7.71
7.47
6.83
5.76
4.43
3.09
2.00
1.29
0.90
0.74
0.63
0.46
0.19
-0.19
-0.71
-1.41
-2.34
-3.42
-4.55
-5.55
-6.34
-6.94
-7.51
-8.27
-9.36
-10.72
-12.06
-13.02
-13.24
-12.54
-10.94
-8.65
-6.03
-3.44
-1.20
0.49
1.59
2.21
2.55
2.87
3.33
3.95
4.67
5.36
5.90
6.23
6.36
6.32
6.15
5.93
5.73
5.69
5.84
6.15
6.46
6.58
6.33
5.72
4.89
4.07
3.48
3.15
2.99
2.87
2.72
2.57
2.54
2.66
2.87
2.96
2.72
2.07
1.07
-0.07
-1.17
-2.12
-2.93
-3.61
-4.18
-4.61
-4.94
-5.31
-6.02
-7.35
-9.38
-11.85
-14.21
-15.75
-15.95
-14.69
-12.23
-9.14
-5.99
-3.14
-0.71
1.36
3.17
4.71
5.85
6.44
6.39
5.76
4.76
3.61
2.55
1.69
1.09
0.74
0.66
0.90
1.47
2.31
3.24
3.99
4.24
3.75
2.48
0.60
-1.54
-3.53
-4.96
-5.59
-5.32
-4.25
-2.58
-0.63
1.23
2.65
3.39
3.37
2.72
1.69
0.56
-0.49
-1.42
-2.35
-3.39
-4.50
-5.49
-6.02
-5.84
-4.87
-3.30
-1.54
-0.07
0.73
0.69
-0.09
-1.29
-2.43
-3.02
-2.71
-1.41
0.68
3.11
5.32
6.86
7.46
7.15
6.14
4.72
3.17
1.74
0.61
-0.05
-0.17
0.23
1.01
1.90
2.66
3.15
3.36
3.40
3.42
3.50
3.62
3.71
3.67
3.46
3.07
2.55
1.91
1.22
0.57
0.03
-0.29
-0.37
-0.30
-0.23
-0.36
-0.78
-1.48
-2.37
-3.28
-4.09
-4.74
-5.23
-5.62
-6.03
-6.58
-7.40
-8.55
-10.02
-11.70
-13.46
-15.10
-16.48
-17.42
-17.76
-17.36
-16.15
-14.15
-11.49
-8.43
-5.24
-2.17
0.59
2.88
4.62
5.73
6.21
6.14
5.67
5.01
4.45
4.29
4.80
6.11
8.15
10.63
13.08
14.88
15.52
14.61
12.08
8.10
3.20
-1.95
-6.56
-9.92
-11.53
-11.18
-8.97
-5.21
-0.36
5.09
10.65
15.85
20.36
23.89
26.24
27.25
26.77
24.69
21.04
16.02
10.04
3.60
-2.85
-8.99
-14.69
-19.98
-24.86
-29.24
-32.96
-35.78
-37.55
-38.23
-37.91
-36.79
-35.10
-33.03
-30.70
-28.18
-25.51
-22.70
-19.81
-16.94
-14.23
-11.83
-9.83
-8.26
-7.03
-5.93
-4.70
-3.11
-1.05
1.48
4.35
7.40
10.39
13.08
15.12
16.17
15.93
14.29
11.45
7.88
4.21
1.03
-1.26
-2.57
-3.09
-3.21
-3.37
-4.01
-5.38
-7.54
-10.28
-13.17
-15.66
-17.23
-17.51
-16.42
-14.13
-11.05
-7.78
-4.98
-3.24
-2.92
-4.01
-6.13
-8.56
-10.47
-11.15
-10.28
-7.99
-4.80
-1.42
1.52
3.63
4.85
5.31
5.24
4.89
4.47
4.16
4.11
4.40
5.01
5.79
6.51
6.96
7.03
6.80
6.46
6.28
6.50
7.18
8.25
9.48
10.47
10.76
9.95
7.84
4.60
0.79
-2.85
-5.65
-7.33
-8.11
-8.52
-9.21
-10.57
-12.58
-14.89
-17.05
-18.59
-19.27
-19.05
-18.09
-16.69
-15.15
-13.66
-12.22
-10.61
-8.52
-5.73
-2.30
1.45
5.01
7.92
9.88
10.80
10.88
10.44
9.87
9.53
9.70
10.49
11.77
13.25
14.54
15.30
15.36
14.73
13.61
12.30
11.09
10.19
9.70
9.58
9.75
10.09
10.51
10.92
11.22
11.23
10.69
9.40
7.26
4.42
1.24
-1.82
-4.35
-6.19
-7.53
-8.80
-10.53
-13.01
-16.10
-19.25
-21.59
-22.33
-20.98
-17.55
-12.51
-6.56
-0.51
4.95
9.26
12.03
13.07
12.43
10.53
8.07
5.93
4.85
5.28
7.18
10.14
13.57
16.90
19.76
21.99
23.60
24.59
24.91
24.45
23.14
20.98
18.10
14.73
11.12
7.46
3.92
0.57
-2.50
-5.22
-7.50
-9.25
-10.47
-11.20
-11.56
-11.71
-11.82
-12.07
-12.63
-13.61
-15.04
-16.78
-18.52
-19.83
-20.29
-19.64
-17.86
-15.16
-11.94
-8.58
-5.38
-2.48
0.13
2.44
4.34
5.66
6.21
5.90
4.88
3.57
2.51
2.21
2.92
4.56
6.73
8.90
10.55
11.39
11.43
11.03
10.77
11.34
13.24
16.81
22.06
28.68
36.13
43.54
49.88
54.05
55.14
52.62
46.62
37.81
27.27
16.13
5.29
-4.67
-13.40
-20.76
-26.64
-31.04
-34.15
-36.33
-38.11
-39.99
-42.29
-45.03
-47.88
-50.25
-51.49
-51.04
-48.71
-44.65
-39.35
-33.51
-27.75
-22.49
-17.82
-13.57
-9.53
-5.49
-1.46
2.44
6.04
9.25
12.13
14.83
17.46
20.05
22.49
24.58
26.15
27.17
27.76
28.17
28.66
29.42
30.50
31.81
33.22
34.56
35.67
36.46
36.91
36.98
36.67
35.95
34.74
32.95
30.49
27.35
23.68
19.76
15.88
12.37
9.39
6.99
5.09
3.56
2.22
0.91
-0.53
-2.22
-4.19
-6.42
-8.70
-10.73
-12.15
-12.66
-12.15
-10.70
-8.57
-6.13
-3.77
-1.79
-0.32
0.65
1.24
1.58
1.75
1.78
1.67
1.41
1.05
0.67
0.43
0.47
0.88
1.68
2.77
3.99
5.19
6.21
6.95
7.36
7.45
7.26
6.87
6.31
5.61
4.81
4.00
3.27
2.71
2.34
2.05
1.70
1.19
0.53
-0.14
-0.64
-0.87
-0.93
-1.03
-1.41
-2.16
-3.22
-4.41
-5.56
-6.63
-7.72
-9.02
-10.62
-12.48
-14.45
-16.25
-17.65
-18.42
-18.47
-17.73
-16.21
-14.02
-11.33
-8.38
-5.45
-2.78
-0.51
1.28
2.62
3.57
4.19
4.57
4.77
4.86
4.92
5.01
5.14
5.32
5.51
5.67
5.77
5.83
5.91
6.06
6.35
6.75
7.19
7.54
7.67
7.53
7.14
6.61
6.06
5.56
5.09
4.54
3.85
2.99
2.03
1.08
0.24
-0.47
-1.08
-1.65
-2.18
-2.69
-3.15
-3.58
-4.01
-4.55
-5.26
-6.13
-7.11
-8.13
-9.15
-10.14
-11.18
-12.34
-13.69
-15.19
-16.69
-17.96
-18.76
-18.88
-18.23
-16.86
-14.93
-12.65
-10.29
-8.03
-5.98
-4.16
-2.56
-1.11
0.22
1.44
2.50
3.36
3.98
4.34
4.45
4.39
4.26
4.21
4.33
4.64
5.03
5.29
5.29
5.00
4.54
4.13
3.94
3.99
4.10
4.01
3.48
2.48
1.13
-0.34
-1.71
-2.88
-3.89
-4.88
-5.99
-7.33
-8.97
-10.88
-12.96
-15.00
-16.65
-17.42
-16.82
-14.54
-10.61
-5.53
-0.29
3.96
6.28
6.23
4.10
0.62
-3.31
-7.05
-10.29
-12.97
-15.04
-16.31
-16.47
-15.24
-12.66
-9.08
-5.11
-1.28
2.02
4.67
6.67
8.11
9.05
9.60
9.87
10.00
10.06
10.07
10.05
9.98
9.92
9.90
9.90
9.87
9.70
9.35
8.88
8.41
8.07
7.85
7.63
7.21
6.46
5.41
4.20
3.04
2.06
1.31
0.79
0.43
0.21
0.11
0.09
0.07
-0.02
-0.26
-0.70
-1.30
-2.02
-2.79
-3.56
-4.31
-5.07
-5.88
-6.81
-7.89
-9.13
-10.46
-11.83
-13.20
-14.55
-15.86
-17.01
-17.76
-17.81
-16.89
-14.91
-12.08
-8.85
-5.72
-3.14
-1.29
-0.14
0.49
0.84
1.08
1.35
1.72
2.23
2.91
3.72
4.56
5.35
6.02
6.56
7.01
7.46
7.93
8.40
8.79
9.03
9.04
8.83
8.42
7.83
7.12
6.33
5.58
4.98
4.60
4.42
4.34
4.19
3.86
3.36
2.77
2.20
1.67
1.11
0.42
-0.47
-1.51
-2.56
-3.51
-4.32
-5.06
-5.90
-6.93
-8.15
-9.48
-10.83
-12.17
-13.49
-14.82
-16.03
-16.92
-17.16
-16.47
-14.78
-12.23
-9.21
-6.18
-3.55
-1.56
-0.22
0.68
1.36
2.05
2.83
3.68
4.50
5.22
5.82
6.32
6.67
6.76
6.47
5.74
4.76
3.87
3.54
4.07
5.54
7.69
10.08
12.24
13.82
14.66
14.72
14.04
12.67
10.63
7.94
4.64
0.82
-3.39
-7.80
-12.10
-15.97
-19.10
-21.28
-22.48
-22.85
-22.65
-22.16
-21.62
-21.12
-20.67
-20.10
-19.20
-17.78
-15.69
-12.92
-9.58
-5.82
-1.79
2.34
6.50
10.51
14.16
17.20
19.42
20.71
21.10
20.65
19.39
17.33
14.46
10.86
6.77
2.55
-1.40
-4.78
-7.45
-9.43
-10.85
-11.88
-12.66
-13.27
-13.79
-14.26
-14.66
-14.98
-15.11
-14.91
-14.26
-13.07
-11.37
-9.35
-7.28
-5.46
-4.08
-3.20
-2.73
-2.52
-2.48
-2.58
-2.90
-3.52
-4.48
-5.65
-6.78
-7.56
-7.74
-7.25
-6.27
-5.15
-4.32
-4.13
-4.65
-5.61
-6.52
-6.81
-6.07
-4.21
-1.50
1.61
4.59
7.11
9.01
10.37
11.32
11.96
12.33
12.43
12.29
11.97
11.58
11.22
10.95
10.75
10.56
10.33
10.07
9.82
9.66
9.65
9.78
9.92
9.91
9.57
8.80
7.63
6.22
4.77
3.48
2.40
1.53
0.80
0.10
-0.66
-1.59
-2.77
-4.24
-5.96
-7.81
-9.62
-11.22
-12.53
-13.62
-14.75
-16.27
-18.46
-21.34
-24.60
-27.57
-29.50
-29.77
-28.17
-24.95
-20.71
-16.16
-11.83
-8.01
-4.72
-1.90
0.50
2.50
4.13
5.49
6.69
7.85
9.00
10.07
10.94
11.53
11.90
12.13
12.34
12.58
12.78
12.88
12.81
12.56
12.19
11.74
11.20
10.58
9.84
9.02
8.17
7.32
6.46
5.53
4.44
3.10
1.49
-0.33
-2.27
-4.16
-5.88
-7.35
-8.52
-9.48
-10.33
-11.22
-12.28
-13.65
-15.39
-17.52
-19.98
-22.52
-24.76
-26.19
-26.32
-24.87
-21.88
-17.74
-13.05
-8.44
-4.40
-1.16
1.27
3.07
4.51
5.86
7.38
9.27
11.54
14.08
16.60
18.82
20.55
21.77
22.63
23.35
24.05
24.75
25.36
25.83
26.14
26.37
26.54
26.66
26.58
26.15
25.25
23.94
22.41
20.95
19.76
18.90
18.27
17.70
17.00
16.11
15.07
13.99
12.98
12.08
11.24
10.36
9.38
8.25
6.98
5.54
3.92
2.06
-0.05
-2.29
-4.52
-6.53
-8.21
-9.60
-10.90
-12.38
-14.29
-16.76
-19.71
-22.89
-25.85
-28.05
-28.95
-28.20
-25.72
-21.76
-16.86
-11.68
-6.87
-2.84
0.26
2.52
4.19
5.62
7.05
8.61
10.30
11.96
13.43
14.63
15.59
16.45
17.32
18.26
19.20
20.04
20.66
21.07
21.29
21.39
21.33
21.03
20.45
19.56
18.46
17.28
16.08
14.89
13.63
12.32
11.00
9.80
8.84
8.15
7.60
7.02
6.23
5.15
3.85
2.43
1.00
-0.42
-1.91
-3.52
-5.28
-7.19
-9.24
-11.41
-13.70
-16.02
-18.12
-19.67
-20.26
-19.60
-17.61
-14.52
-10.78
-6.88
-3.24
-0.11
2.42
4.42
5.97
7.18
8.13
8.86
9.40
9.78
10.04
10.28
10.58
11.00
11.55
12.12
12.61
12.94
13.15
13.36
13.68
14.15
14.60
14.74
14.32
13.26
11.70
9.98
8.49
7.45
6.89
6.58
6.24
5.61
4.62
3.40
2.19
1.22
0.58
0.14
-0.33
-1.09
-2.29
-3.89
-5.70
-7.49
-9.11
-10.52
-11.82
-13.09
-14.43
-15.90
-17.55
-19.43
-21.50
-23.58
-25.28
-26.11
-25.64
-23.68
-20.41
-16.35
-12.14
-8.34
-5.25
-2.85
-0.90
0.86
2.64
4.47
6.28
7.95
9.35
10.47
11.34
12.07
12.75
13.46
14.20
14.94
15.62
16.15
16.46
16.52
16.32
15.91
15.36
14.75
14.14
13.54
12.94
12.32
11.72
11.11
10.51
9.83
8.96
7.84
6.45
4.91
3.46
2.30
1.54
1.11
0.82
0.40
-0.34
-1.48
-2.98
-4.74
-6.58
-8.34
-9.84
-10.95
-11.66
-12.08
-12.49
-13.19
-14.41
-16.19
-18.28
-20.24
-21.55
-21.74
-20.55
-17.98
-14.36
-10.21
-6.10
-2.53
0.24
2.21
3.55
4.56
5.45
6.34
7.24
8.09
8.88
9.57
10.18
10.68
11.05
11.31
11.52
11.78
12.16
12.67
13.16
13.40
13.14
12.32
10.99
9.43
7.95
6.76
5.95
5.39
4.90
4.33
3.61
2.81
2.04
1.38
0.81
0.22
-0.54
-1.60
-2.93
-4.43
-5.91
-7.22
-8.29
-9.18
-9.99
-10.86
-11.88
-13.08
-14.53
-16.23
-18.16
-20.17
-21.95
-23.06
-23.08
-21.72
-18.99
-15.14
-10.67
-6.11
-1.93
1.55
4.19
6.01
7.20
8.03
8.78
9.62
10.58
11.55
12.42
13.08
13.53
13.75
13.71
13.23
12.19
10.60
8.69
6.85
5.40
4.42
3.69
2.78
1.29
-0.90
-3.71
-6.93
-10.49
-14.46
-18.99
-24.08
-29.37
-34.07
-37.20
-37.84
-35.55
-30.49
-23.40
-15.41
-7.68
-1.17
3.59
6.48
7.69
7.58
6.53
4.91
3.01
1.07
-0.79
-2.53
-4.24
-6.11
-8.31
-10.89
-13.76
-16.68
-19.37
-21.59
-23.19
-24.11
-24.38
-24.03
-23.17
-21.90
-20.32
-18.55
-16.64
-14.56
-12.25
-9.63
-6.70
-3.53
-0.28
2.87
5.72
8.11
9.91
11.01
11.39
11.09
10.29
9.21
8.14
7.27
6.69
6.29
5.87
5.19
4.13
2.71
1.11
-0.41
-1.70
-2.76
-3.75
-4.97
-6.67
-8.97
-11.86
-15.08
-18.26
-20.89
-22.48
-22.64
-21.21
-18.31
-14.42
-10.19
-6.26
-3.06
-0.70
0.99
2.36
3.74
5.30
7.01
8.74
10.35
11.72
12.80
13.61
14.18
14.55
14.77
14.89
14.99
15.10
15.22
15.27
15.16
14.83
14.24
13.44
12.49
11.46
10.36
9.17
7.81
6.27
4.60
2.92
1.34
-0.08
-1.37
-2.63
-3.94
-5.31
-6.65
-7.93
-9.17
-10.52
-12.23
-14.45
-17.12
-19.92
-22.30
-23.70
-23.68
-22.06
-18.99
-14.89
-10.34
-5.88
-1.93
1.35
3.94
5.97
7.55
8.77
9.69
10.42
11.10
11.91
12.92
14.05
15.06
15.70
15.88
15.78
15.73
16.06
16.89
18.03
19.12
19.80
19.86
19.34
18.44
17.40
16.38
15.47
14.67
13.92
13.14
12.20
11.01
9.56
7.95
6.41
5.24
4.58
4.42
4.48
4.36
3.65
2.06
-0.47
-3.78
-7.47
-11.08
-14.18
-16.54
-18.17
-19.25
-20.02
-20.60
-20.91
-20.70
-19.69
-17.69
-14.74
-11.10
-7.15
-3.29
0.17
3.06
5.37
7.16
8.53
9.57
10.31
10.77
11.00
11.11
11.25
11.60
12.28
13.26
14.38
15.41
16.10
16.35
16.16
15.69
15.12
14.59
14.19
13.91
13.69
13.39
12.74
11.36
8.85
4.98
-0.08
-5.75
-11.09
-15.19
-17.44
-17.78
-16.64
-14.80
-13.14
-12.42
-13.25
-15.99
-20.64
-26.78
-33.42
-39.14
-42.30
-41.48
-35.95
-25.99
-12.90
1.31
14.50
25.05
32.15
35.92
37.08
36.55
35.04
32.97
30.51
27.71
24.71
21.74
19.06
16.86
15.11
13.67
12.29
10.74
8.94
6.97
5.04
3.38
2.10
1.17
0.40
-0.49
-1.68
-3.17
-4.77
-6.17
-7.09
-7.44
-7.34
-7.14
-7.20
-7.77
-8.88
-10.35
-11.94
-13.48
-14.88
-16.21
-17.58
-19.10
-20.80
-22.69
-24.64
-26.45
-27.74
-28.12
-27.24
-24.99
-21.54
-17.29
-12.71
-8.19
-3.92
0.06
3.78
7.31
10.65
13.76
16.63
19.23
21.54
23.53
25.18
26.52
27.59
28.47
29.18
29.67
29.81
29.42
28.36
26.52
23.91
20.62
16.87
12.96
9.22
5.94
3.28
1.25
-0.27
-1.48
-2.55
-3.56
-4.58
-5.60
-6.68
-7.81
-8.97
-10.05
-10.96
-11.64
-12.19
-12.83
-13.86
-15.54
-17.94
-20.93
-24.15
-27.13
-29.36
-30.46
-30.23
-28.74
-26.23
-23.11
-19.81
-16.70
-14.03
-11.91
-10.43
-9.62
-9.49
-9.98
-10.97
-12.22
-13.40
-14.14
-14.06
-12.84
-10.25
-6.21
-0.79
5.79
13.23
21.17
29.28
37.27
44.75
51.24
56.09
58.67
58.55
55.69
50.51
43.76
36.29
28.77
21.59
14.85
8.52
2.62
-2.75
-7.38
-11.12
-13.99
-16.16
-17.97
-19.74
-21.67
-23.79
-25.97
-28.06
-30.02
-31.98
-34.20
-36.84
-39.80
-42.61
-44.53
-44.84
-43.06
-39.13
-33.45
-26.67
-19.47
-12.50
-6.27
-1.14
2.66
5.13
6.57
7.48
8.51
10.17
12.69
15.96
19.57
23.01
25.80
27.63
28.37
28.13
27.18
25.88
24.62
23.71
23.28
23.31
23.59
23.80
23.61
22.73
20.96
18.33
15.08
11.65
8.51
6.02
4.29
3.16
2.29
1.36
0.22
-1.15
-2.67
-4.28
-6.00
-7.93
-10.16
-12.65
-15.26
-17.76
-19.95
-21.74
-23.14
-24.22
-24.96
-25.21
-24.66
-23.05
-20.31
-16.65
-12.54
-8.51
-5.02
-2.25
-0.24
1.14
1.91
2.00
1.34
-0.08
-1.97
-3.83
-4.98
-4.85
-3.20
-0.21
3.54
7.24
10.15
11.88
12.39
12.05
11.29
10.51
9.81
9.13
8.29
7.20
5.88
4.49
3.21
2.11
1.11
-0.01
-1.49
-3.44
-5.90
-8.71
-11.67
-14.57
-17.20
-19.36
-20.83
-21.39
-20.82
-19.10
-16.40
-13.16
-10.00
-7.51
-6.05
-5.59
-5.64
-5.46
-4.22
-1.37
3.26
9.40
16.47
23.74
30.49
36.08
40.00
41.91
41.67
39.30
35.10
29.46
22.87
15.83
8.81
2.18
-3.81
-9.11
-13.78
-17.94
-21.69
-24.97
-27.61
-29.44
-30.40
-30.71
-30.71
-30.84
-31.38
-32.40
-33.72
-34.97
-35.77
-35.68
-34.44
-31.93
-28.26
-23.71
-18.66
-13.53
-8.60
-4.10
-0.10
3.30
6.04
8.05
9.37
10.16
10.66
11.12
11.62
12.12
12.45
12.48
12.18
11.63
11.00
10.43
9.98
9.57
9.09
8.43
7.51
6.30
4.77
2.87
0.65
-1.75
-4.01
-5.70
-6.40
-5.77
-3.64
-0.10
4.51
9.59
14.38
18.13
20.24
20.39
18.68
15.47
11.31
6.76
2.43
-1.09
-3.23
-3.54
-1.91
1.35
5.52
9.67
13.07
15.42
16.84
17.76
18.58
19.43
20.17
20.54
20.31
19.52
18.43
17.41
16.72
16.45
16.42
16.30
15.80
14.79
13.40
11.95
10.74
9.95
9.51
9.15
8.52
7.43
5.92
4.31
2.98
2.20
1.94
1.95
1.80
1.08
-0.48
-3.02
-6.50
-10.72
-15.31
-19.72
-23.38
-25.90
-27.24
-27.79
-28.19
-28.95
-30.26
-31.83
-33.09
-33.53
-32.92
-31.38
-29.29
-26.98
-24.60
-22.11
-19.35
-16.23
-12.75
-9.03
-5.25
-1.51
2.06
5.39
8.38
10.95
13.02
14.60
15.74
16.58
17.27
17.93
18.67
19.49
20.34
21.09
21.58
21.66
21.25
20.39
19.17
17.78
16.36
14.97
13.58
12.06
10.34
8.39
6.33
4.38
2.72
1.50
0.66
0.05
-0.53
-1.25
-2.18
-3.33
-4.66
-6.21
-8.02
-10.12
-12.39
-14.50
-15.95
-16.18
-14.84
-11.87
-7.64
-2.83
1.81
5.69
8.53
10.37
11.47
12.11
12.51
12.73
12.79
12.66
12.36
11.98
11.62
11.42
11.46
11.77
12.26
12.78
13.13
13.15
12.76
12.01
11.05
10.01
8.97
7.91
6.72
5.35
3.78
2.04
0.18
-1.73
-3.65
-5.54
-7.33
-8.97
-10.45
-11.85
-13.30
-14.93
-16.83
-19.01
-21.37
-23.75
-25.91
-27.59
-28.57
-28.68
-27.89
-26.36
-24.35
-22.20
-20.17
-18.43
-17.00
-15.83
-14.90
-14.21
-13.77
-13.53
-13.21
-12.31
-10.15
-6.10
0.19
8.52
18.17
28.00
36.79
43.63
48.06
50.10
50.09
48.39
45.25
40.74
34.89
27.82
19.87
11.59
3.63
-3.42
-9.21
-13.72
-17.24
-20.23
-23.12
-26.12
-29.16
-31.91
-34.05
-35.40
-36.03
-36.16
-35.99
-35.57
-34.69
-33.04
-30.38
-26.56
-21.58
-15.50
-8.42
-0.56
7.53
15.04
20.97
24.50
25.39
24.11
21.63
18.99
16.80
15.09
13.50
11.71
9.80
8.27
7.74
8.50
10.30
12.41
14.05
14.77
14.64
14.10
13.59
13.24
12.86
12.06
10.54
8.32
5.68
3.06
0.82
-0.88
-2.12
-3.13
-4.21
-5.54
-7.19
-9.09
-11.08
-12.93
-14.44
-15.39
-15.55
-14.71
-12.75
-9.73
-5.90
-1.74
2.18
5.41
7.71
9.16
10.06
10.77
11.54
12.44
13.34
14.08
14.53
14.61
14.27
13.44
12.01
10.02
7.64
5.29
3.45
2.53
2.59
3.35
4.28
4.84
4.70
3.83
2.43
0.74
-1.15
-3.34
-6.04
-9.35
-13.09
-16.75
-19.62
-21.07
-20.76
-18.75
-15.47
-11.56
-7.62
-4.18
-1.54
0.10
0.66
0.19
-1.14
-3.04
-5.17
-7.25
-9.20
-11.09
-13.10
-15.36
-17.86
-20.39
-22.63
-24.23
-24.98
-24.83
-23.85
-22.20
-20.07
-17.63
-15.07
-12.51
-10.01
-7.49
-4.86
-2.02
1.03
4.13
7.06
9.58
11.59
13.10
14.23
15.10
15.75
16.14
16.17
15.75
14.89
13.65
12.24
10.86
9.76
9.13
9.02
9.35
9.88
10.23
10.03
9.01
7.04
4.16
0.64
-3.18
-6.88
-10.02
-12.20
-13.12
-12.67
-10.94
-8.27
-5.13
-2.00
0.71
2.76
4.10
4.82
5.11
5.19
5.26
5.46
5.82
6.24
6.59
6.73
6.70
6.62
6.70
7.07
7.75
8.60
9.43
10.10
10.47
10.38
9.63
7.99
5.36
1.94
-1.72
-4.95
-7.20
-8.28
-8.42
-8.11
-7.80
-7.79
-8.13
-8.79
-9.83
-11.48
-13.96
-17.41
-21.63
-26.04
-29.85
-32.22
-32.52
-30.54
-26.54
-21.14
-15.16
-9.35
-4.25
-0.10
3.07
5.36
6.93
7.94
8.53
8.86
9.06
9.28
9.59
10.04
10.65
11.37
12.16
12.96
13.71
14.35
14.84
15.12
15.11
14.80
14.17
13.29
12.26
11.18
10.10
9.03
7.93
6.75
5.47
4.08
2.61
1.05
-0.60
-2.30
-4.01
-5.69
-7.33
-8.98
-10.76
-12.76
-14.96
-17.13
-18.88
-19.72
-19.28
-17.47
-14.53
-10.96
-7.30
-3.99
-1.18
1.16
3.19
5.07
6.80
8.31
9.44
10.10
10.28
10.08
9.65
9.17
8.80
8.67
8.81
9.20
9.74
10.33
10.84
11.21
11.37
11.29
10.94
10.32
9.48
8.47
7.40
6.36
5.39
4.47
3.54
2.50
1.30
-0.09
-1.62
-3.22
-4.82
-6.41
-8.03
-9.73
-11.60
-13.68
-15.94
-18.24
-20.29
-21.74
-22.23
-21.50
-19.45
-16.22
-12.22
-7.98
-4.07
-0.90
1.33
2.69
3.45
3.98
4.58
5.43
6.49
7.66
8.78
9.80
10.73
11.63
12.51
13.31
13.93
14.27
14.35
14.30
14.23
14.24
14.28
14.23
13.95
13.41
12.63
11.69
10.63
9.42
8.04
6.50
4.86
3.26
1.82
0.58
-0.52
-1.59
-2.76
-4.12
-5.76
-7.67
-9.81
-11.99
-13.92
-15.20
-15.43
-14.41
-12.21
-9.18
-5.86
-2.78
-0.33
1.35
2.31
2.72
2.77
2.56
2.16
1.61
0.94
0.24
-0.43
-1.00
-1.45
-1.80
-2.09
-2.39
-2.77
-3.28
-3.92
-4.67
-5.44
-6.22
-7.00
-7.87
-8.94
-10.25
-11.71
-13.08
-14.09
-14.50
-14.23
-13.32
-11.90
-10.05
-7.86
-5.44
-3.13
-1.41
-0.85
-1.76
-4.01
-6.95
-9.57
-10.90
-10.37
-8.00
-4.28
0.03
4.21
7.79
10.65
12.86
14.65
16.18
17.50
18.52
19.00
18.69
17.51
15.64
13.52
11.73
10.79
10.91
11.99
13.63
15.23
16.15
15.84
13.94
10.44
5.80
0.82
-3.50
-6.35
-7.44
-7.11
-6.18
-5.48
-5.58
-6.58
-8.32
-10.56
-13.22
-16.39
-20.10
-24.23
-28.35
-31.88
-34.25
-35.11
-34.38
-32.22
-28.89
-24.69
-19.89
-14.75
-9.45
-4.22
0.67
4.93
8.30
10.57
11.77
12.11
11.98
11.77
11.78
12.09
12.55
12.86
12.68
11.70
9.76
6.94
3.56
0.11
-2.86
-4.95
-5.97
-5.97
-5.21
-3.97
-2.54
-1.17
-0.15
0.28
-0.03
-0.99
-2.16
-2.91
-2.61
-0.91
2.08
5.76
9.34
12.04
13.39
13.22
11.64
8.91
5.41
1.57
-2.09
-5.07
-6.97
-7.57
-6.84
-4.94
-2.12
1.29
4.92
8.35
11.18
13.10
13.94
13.72
12.63
10.96
8.97
6.91
4.91
3.09
1.56
0.39
-0.35
-0.69
-0.75
-0.74
-0.90
-1.37
-2.14
-3.07
-3.93
-4.56
-4.90
-4.98
-4.87
-4.60
-4.17
-3.62
-3.03
-2.57
-2.39
-2.61
-3.20
-4.09
-5.17
-6.43
