1543325062.00
64.000000
-0.00
-0.00
-0.00
-0.00
-0.00
-0.00
-0.00
-0.00
-0.00
-0.00
0.00
0.01
0.01
-0.00
-0.03
-0.05
-0.05
0.00
0.13
0.36
0.66
1.01
1.37
1.72
2.06
2.40
2.79
3.24
3.80
4.42
5.06
5.66
6.20
6.68
7.15
7.68
8.31
9.14
10.09
11.04
11.88
12.56
13.14
13.76
14.65
15.96
17.91
20.32
22.90
25.38
27.58
29.57
31.68
34.32
37.81
42.54
48.15
54.10
59.83
64.97
69.58
74.14
79.34
85.71
93.76
103.00
112.62
121.73
129.77
136.75
143.30
150.75
157.77
166.64
177.95
191.79
206.97
220.57
228.25
225.36
208.53
176.87
132.76
80.05
23.07
-34.94
-92.44
-149.16
-205.23
-260.37
-313.74
-363.87
-409.83
-450.90
-486.48
-515.70
-537.17
-549.14
-549.85
-538.22
-514.01
-478.43
-433.58
-382.10
-326.61
-269.36
-212.09
-156.05
-102.27
-51.62
-5.08
36.49
72.42
102.44
126.69
145.67
160.11
170.70
178.06
182.61
184.61
184.32
181.99
177.97
172.68
166.53
159.85
152.90
145.83
138.69
131.54
124.43
117.40
110.54
103.91
97.57
91.54
85.86
80.52
75.54
70.93
66.69
62.85
59.39
56.31
53.62
51.31
49.40
47.86
46.69
45.86
45.32
44.98
44.72
44.39
43.82
42.81
41.21
38.87
35.69
31.68
26.89
21.41
15.43
9.20
3.01
-2.89
-8.23
-12.82
-16.53
-19.27
-21.05
-21.94
-22.03
-21.47
-20.39
-18.96
-17.31
-15.55
-13.76
-12.02
-10.37
-8.85
-7.51
-6.35
-5.42
-4.70
-4.19
-3.84
-3.62
-3.44
-3.27
-3.02
-2.62
-1.97
-1.01
0.33
2.08
4.29
7.00
10.12
13.61
17.39
21.40
25.57
29.85
34.23
38.75
43.53
48.68
54.40
60.99
68.77
78.05
89.08
101.99
116.78
133.26
150.87
168.87
186.42
202.58
216.44
227.10
233.76
235.63
233.21
226.72
216.58
203.34
187.66
170.32
152.09
133.65
115.59
98.40
82.25
67.29
53.60
41.27
30.40
21.03
13.17
6.78
1.80
-2.00
-4.85
-6.90
-8.22
-8.83
-8.69
-7.75
-6.07
-3.87
-1.52
0.56
2.06
2.87
3.09
2.91
2.46
1.66
0.15
-2.68
-7.37
-14.21
-23.03
-33.26
-44.15
-55.06
-65.76
-76.54
-88.04
-100.93
-115.55
-131.65
-148.47
-165.00
-180.35
-194.13
-206.49
-218.13
-230.15
-243.95
-261.01
-282.37
-307.67
-334.39
-357.88
-372.43
-373.34
-358.96
-331.51
-296.24
-259.12
-224.37
-193.31
-165.05
-138.44
-113.86
-93.75
-81.54
-79.68
-88.57
-106.72
-131.90
-162.15
-195.58
-229.37
-259.00
-278.72
-283.79
-273.06
-250.00
-221.33
-193.72
-170.47
-150.25
-128.59
-100.87
-64.82
-21.26
27.15
77.42
126.90
172.75
211.06
237.25
247.96
243.23
227.30
207.32
190.07
179.00
173.27
169.16
162.81
152.62
139.59
125.93
113.13
100.84
87.32
70.88
51.01
28.50
4.57
-20.31
-46.48
-74.46
-103.78
-132.38
-157.24
-176.03
-188.79
-198.47
-209.69
-226.33
-249.13
-274.95
-298.06
-312.84
-316.34
-309.36
-295.45
-278.75
-262.03
-245.99
-230.04
-213.73
-197.77
-183.86
-173.60
-167.26
-163.53
-160.05
-154.74
-146.55
-135.71
-123.00
-108.81
-92.55
-72.63
-47.21
-15.01
24.08
68.94
117.57
167.84
217.98
267.02
315.04
363.12
412.70
464.47
517.06
566.45
606.59
631.09
635.36
617.97
580.97
528.73
466.42
398.85
329.96
263.01
200.72
145.13
97.36
57.45
24.72
-1.56
-21.68
-35.40
-42.46
-43.12
-38.43
-30.30
-21.31
-14.33
-12.06
-16.05
-25.60
-37.00
-43.89
-39.19
-17.94
20.28
70.57
124.08
170.97
203.44
217.53
213.27
193.45
162.08
123.43
81.63
40.73
4.41
-24.50
-44.70
-56.60
-62.00
-63.40
-63.03
-62.30
-61.69
-60.86
-59.24
-56.44
-52.59
-48.39
-44.80
-42.64
-42.23
-43.27
-44.94
-46.33
-46.73
-45.92
-44.20
-42.23
-40.82
-40.55
-41.66
-43.90
-46.60
-48.96
-50.28
-50.16
-48.64
-46.01
-42.66
-38.91
-34.88
-30.53
-25.80
-20.61
-15.04
-9.30
-3.65
1.58
6.07
9.57
11.95
13.24
13.60
13.27
12.52
11.54
10.52
9.54
8.65
7.90
7.30
6.84
6.43
5.96
5.35
4.62
3.82
3.05
2.31
1.51
0.46
-1.08
-3.30
-6.30
-10.02
-14.18
-18.32
-21.77
-23.87
-24.15
-22.51
-19.29
-15.14
-10.75
-6.63
-3.01
0.14
2.89
5.25
7.08
8.19
8.52
8.17
7.49
6.92
6.79
7.17
7.87
8.45
8.52
7.83
6.47
4.80
3.22
2.06
1.40
1.08
0.84
0.47
-0.16
-1.05
-2.14
-3.41
-4.79
-6.27
-7.82
-9.43
-11.08
-12.76
-14.41
-15.86
-16.86
-17.08
-16.24
-14.30
-11.48
-8.20
-4.95
-2.04
0.43
2.58
4.53
6.35
7.95
9.12
9.77
9.95
9.88
9.83
9.97
10.29
10.64
10.78
10.51
9.73
8.47
6.87
5.12
3.46
2.05
1.01
0.31
-0.19
-0.66
-1.29
-2.15
-3.20
-4.33
-5.45
-6.48
-7.45
-8.41
-9.37
-10.37
-11.39
-12.41
-13.25
-13.60
-13.08
-11.36
-8.43
-4.66
-0.70
2.72
5.13
6.47
6.99
7.10
7.05
6.89
6.49
5.71
4.56
3.26
2.08
1.27
0.96
1.07
1.36
1.51
1.34
0.77
-0.04
-0.82
-1.27
-1.27
-0.84
-0.23
0.26
0.43
0.18
-0.40
-1.12
-1.79
-2.31
-2.66
-2.92
-3.24
-3.75
-4.57
-5.70
-7.02
-8.37
-9.46
-10.05
-9.91
-8.89
-7.01
-4.44
-1.54
1.29
3.66
5.35
6.32
6.68
6.59
6.23
5.64
4.88
4.06
3.29
2.79
2.65
2.86
3.27
3.64
3.77
3.59
3.13
2.52
1.89
1.26
0.64
-0.00
-0.66
-1.28
-1.76
-2.08
-2.27
-2.42
-2.59
-2.82
-3.04
-3.18
-3.15
-2.93
-2.55
-2.15
-1.86
-1.85
-2.22
-2.99
-3.99
-4.87
-5.18
-4.48
-2.62
0.18
3.34
6.12
7.99
8.75
8.66
8.24
7.99
8.13
8.57
9.04
9.29
9.31
9.29
9.48
10.02
10.84
11.70
12.32
12.50
12.24
11.67
10.95
10.21
9.51
8.95
8.62
8.70
9.17
9.78
9.92
8.80
5.71
0.35
-6.95
-15.36
-23.68
-30.70
-35.51
-37.56
-36.67
-33.08
-27.27
-20.04
-12.34
-5.13
0.78
4.84
6.88
7.04
5.67
3.31
0.54
-2.16
-4.51
-6.53
-8.39
-10.30
-12.21
-13.79
-14.48
-13.75
-11.31
-7.33
-2.35
2.82
7.34
10.55
12.04
11.70
9.67
6.27
2.00
-2.61
-7.03
-10.84
-13.84
-16.06
-17.71
-19.09
-20.45
-21.85
-23.15
-24.09
-24.41
-24.05
-23.15
-22.07
-21.21
-20.94
-21.37
-22.37
-23.62
-24.89
-26.12
-27.38
-28.96
-31.20
-34.33
-38.44
-43.41
-49.12
-55.64
-63.18
-71.88
-81.67
-92.14
-102.49
-111.70
-118.75
-123.17
-125.45
-126.74
-128.51
-132.17
-138.71
-148.57
-161.90
-178.29
-196.91
-216.69
-235.16
-248.13
-250.91
-239.60
-212.17
-168.97
-111.78
-43.85
29.26
101.67
168.06
223.65
265.31
292.57
308.19
318.57
330.94
349.06
373.63
402.70
431.35
453.65
464.97
463.64
452.74
437.72
422.02
408.44
399.63
396.68
399.94
409.62
417.43
416.79
417.98
426.01
436.22
445.38
450.75
450.41
443.19
428.41
406.87
379.27
343.73
299.15
246.79
189.02
128.99
70.20
15.78
-30.98
-67.94
-96.27
-117.71
-133.32
-144.16
-151.16
-155.06
-156.60
-155.89
-153.22
-150.20
-148.24
-147.73
-148.72
-150.94
-153.87
-156.89
-159.02
-159.38
-157.84
-154.33
-148.53
-140.29
-129.67
-117.01
-102.90
-88.02
-73.13
-59.21
-47.00
-36.94
-29.32
-24.26
-21.85
-22.18
-25.27
-30.95
-38.82
-48.08
-57.67
-66.42
-73.31
-77.84
-79.98
-80.15
-78.88
-76.50
-72.89
-67.66
-60.36
-51.05
-40.64
-30.94
-24.22
-22.48
-26.61
-36.00
-48.68
-62.06
-74.07
-84.09
-93.17
-103.51
-117.24
-135.13
-155.92
-176.64
-193.71
-204.55
-208.81
-208.56
-207.58
-210.27
-220.39
-240.09
-268.89
-302.75
-333.84
-351.67
-346.19
-311.90
-251.23
-175.16
-99.91
-41.18
-8.64
-3.20
-18.51
-45.24
-75.66
-106.10
-136.76
-169.72
-206.71
-247.59
-289.95
-329.35
-360.14
-376.81
-375.40
-354.61
-316.17
-263.59
-200.65
-130.55
-56.42
17.12
83.20
133.43
160.81
162.89
143.37
110.77
74.32
39.79
7.60
-25.27
-61.51
-99.50
-132.37
-150.46
-145.70
-115.36
-62.93
3.80
75.93
145.73
207.33
256.06
287.53
298.30
287.13
256.17
210.65
157.08
100.41
42.52
-17.33
-80.36
-145.19
-206.55
-255.99
-285.01
-288.47
-266.65
-225.00
-172.00
-115.75
-61.24
-9.53
40.90
91.37
140.50
183.44
213.10
222.68
208.13
169.62
111.59
42.16
-28.52
-90.06
-133.47
-152.90
-146.59
-116.75
-68.32
-7.31
60.23
128.26
189.96
237.62
263.72
263.45
237.11
190.23
131.24
67.35
1.70
-66.39
-138.05
-211.01
-277.39
-325.36
-344.23
-329.46
-285.73
-225.82
-166.11
-120.87
-98.17
-98.50
-116.82
-145.76
-178.35
-209.34
-234.95
-252.14
-258.30
-251.59
-231.77
-200.71
-162.43
-121.92
-83.79
-51.11
-24.70
-3.40
15.41
34.88
57.60
84.91
116.60
151.22
186.65
221.02
252.67
280.09
301.60
315.36
319.86
314.53
299.93
277.23
247.39
210.59
166.76
116.95
64.71
16.51
-19.77
-37.54
-34.62
-14.87
12.57
36.37
47.26
41.39
21.72
-3.65
-25.20
-35.81
-33.33
-20.42
-2.35
16.05
32.45
47.19
61.77
76.81
91.02
101.60
105.79
102.44
92.64
79.20
65.34
53.43
44.45
38.02
32.83
27.20
19.43
8.33
-6.35
-23.59
-41.40
-57.32
-69.21
-75.80
-76.52
-71.16
-59.39
-40.99
-16.60
11.39
38.77
60.47
72.47
73.44
65.40
52.62
39.70
29.66
23.23
19.37
16.46
13.35
9.57
4.82
-1.65
-11.24
-25.49
-45.00
-68.57
-92.94
-113.33
-124.75
-123.48
-108.52
-82.17
-49.59
-17.28
9.15
26.85
36.68
42.49
49.22
60.68
77.88
98.77
119.13
134.29
140.66
136.67
122.85
101.28
74.85
46.79
20.39
-1.15
-14.96
-19.26
-14.02
-1.31
15.27
31.76
45.37
55.43
63.13
70.43
78.51
86.99
94.04
97.59
96.50
91.34
84.07
77.07
72.07
69.42
68.10
66.44
62.97
57.25
50.03
42.97
37.73
35.14
34.59
34.33
32.30
27.27
19.33
9.85
0.56
-7.40
-13.85
-19.34
-24.34
-28.57
-30.90
-29.97
-25.11
-16.93
-7.25
1.71
8.27
11.87
13.04
12.73
11.70
10.11
7.75
4.44
0.53
-2.93
-4.56
-3.29
1.00
7.23
13.29
16.65
15.17
7.90
-4.60
-20.29
-36.28
-49.73
-58.72
-62.68
-62.33
-59.25
-55.40
-52.51
-51.77
-53.52
-57.17
-61.13
-63.32
-61.80
-55.66
-45.57
-33.48
-21.91
-12.88
-7.19
-4.57
-4.25
-5.64
-8.62
-13.29
-19.33
-25.66
-30.44
-31.50
-27.14
-16.81
-1.32
17.24
36.29
53.56
67.75
78.80
87.52
94.69
100.47
104.28
105.29
103.39
99.56
95.70
93.52
93.58
94.78
94.87
91.73
84.40
73.67
61.58
50.47
41.90
36.15
32.30
28.92
24.83
19.70
14.10
9.18
6.01
4.93
5.25
5.44
3.67
-1.30
-9.59
-20.04
-30.78
-39.98
-46.69
-51.02
-53.81
-55.95
-57.70
-58.63
-58.06
-55.72
-52.40
-49.88
-50.05
-53.84
-60.45
-67.44
-71.74
-71.07
-65.00
-55.13
-44.21
-34.79
-28.09
-23.79
-20.62
-17.30
-13.46
-9.64
-6.84
-5.89
-6.91
-9.31
-12.11
-14.25
-14.89
-13.58
-10.25
-5.25
0.71
6.73
11.92
15.84
18.61
20.85
23.10
25.42
27.11
27.05
24.40
19.30
13.06
7.64
4.69
4.72
6.78
9.05
9.75
8.17
4.99
1.83
0.26
0.87
3.01
5.24
6.34
6.09
5.46
6.07
9.21
14.96
22.19
29.03
33.84
35.83
35.17
32.61
28.97
24.81
20.44
16.15
12.33
9.41
7.69
7.23
7.77
8.96
10.45
11.91
12.90
12.91
11.46
8.31
3.73
-1.55
-6.47
-10.14
-12.30
-13.53
-15.28
-19.31
-27.01
-38.76
-53.57
-69.22
-82.91
-92.26
-96.19
-95.23
-91.08
-85.68
-80.10
-74.13
-66.65
-56.58
-43.86
-29.74
-16.26
-5.12
3.17
9.60
16.04
24.15
34.59
46.70
58.96
69.72
77.91
83.17
85.71
85.94
84.16
80.56
75.29
68.65
61.24
53.92
47.66
43.27
41.13
40.96
41.95
43.03
43.39
42.79
41.62
40.75
40.95
42.45
44.70
46.73
47.55
46.66
44.11
40.23
35.17
28.75
20.58
10.53
-0.92
-12.57
-22.91
-30.71
-35.52
-37.82
-38.59
-38.80
-38.88
-38.57
-37.11
-33.70
-27.89
-19.87
-10.44
-0.81
7.80
14.43
18.62
20.47
20.60
19.90
19.28
19.25
19.69
19.81
18.46
14.81
8.89
1.80
-4.66
-8.80
-9.90
-8.63
-6.77
-6.48
-9.29
-15.66
-25.03
-36.10
-47.22
-56.46
-61.94
-62.48
-58.77
-53.95
-53.06
-60.82
-78.67
-102.80
-124.47
-132.79
-118.98
-80.13
-20.82
48.11
112.91
161.03
184.34
180.82
154.21
112.15
63.48
15.82
-25.95
-59.86
-85.99
-105.32
-118.94
-127.87
-133.15
-135.83
-136.66
-135.59
-131.76
-123.90
-110.89
-92.57
-70.09
-45.82
-22.99
-4.92
5.74
7.91
2.61
-7.14
-17.29
-24.15
-25.61
-21.74
-14.25
-5.42
3.06
10.62
17.66
24.78
32.09
38.91
43.95
46.05
44.76
40.59
34.79
28.71
23.20
18.40
13.88
9.28
4.80
1.34
0.12
1.90
6.31
11.68
15.60
15.81
11.18
2.11
-9.89
-22.66
-34.16
-42.88
-48.19
-50.73
-52.95
-59.26
-75.21
-105.17
-149.58
-203.13
-255.46
-294.55
-311.34
-303.33
-275.21
-236.27
-196.19
-161.51
-134.59
-114.86
-101.26
-93.83
-93.73
-102.04
-118.55
-141.41
-168.04
-196.48
-226.22
-258.16
-293.75
-333.49
-375.91
-417.47
-453.27
-478.49
-489.83
-486.19
-468.63
-439.41
-400.88
-354.66
-301.48
-241.82
-176.74
-108.53
-40.63
23.08
79.57
127.71
168.56
204.82
239.55
274.68
310.25
344.53
375.05
400.07
419.67
435.78
451.79
471.47
497.91
532.71
574.98
620.81
663.18
693.25
702.83
687.55
649.01
594.83
536.12
483.45
443.21
416.08
398.24
384.24
370.10
354.79
339.69
326.99
317.67
310.63
303.00
291.48
273.95
250.85
225.12
201.05
182.38
170.35
162.99
156.02
144.90
127.07
103.25
77.06
53.15
34.99
23.41
16.46
10.68
2.81
-8.80
-23.74
-40.15
-55.70
-68.46
-77.36
-82.08
-82.82
-80.19
-75.23
-69.33
-64.08
-60.88
-60.38
-62.32
-65.59
-68.69
-70.24
-69.36
-65.81
-59.98
-52.64
-44.73
-37.23
-30.82
-25.75
-21.84
-18.76
-16.39
-15.00
-15.28
-18.08
-24.02
-33.36
-45.98
-61.69
-80.43
-102.40
-128.00
-157.91
-193.19
-235.33
-285.61
-343.88
-407.23
-469.27
-521.16
-554.13
-562.62
-546.35
-510.38
-462.84
-411.81
-362.70
-317.45
-275.45
-235.25
-195.90
-157.19
-118.99
-80.56
-40.49
2.29
47.29
91.75
130.91
159.65
174.54
175.25
164.69
147.69
128.91
111.23
95.05
79.06
61.51
41.42
18.92
-5.21
-30.27
-56.33
-83.99
-113.65
-144.58
-174.33
-199.08
-214.63
-218.12
-209.16
-190.10
-165.21
-139.18
-115.60
-96.26
-81.33
-70.08
-61.78
-56.08
-52.98
-52.55
-54.61
-58.78
-64.61
-71.72
-79.96
-89.27
-99.52
-110.38
-121.29
-131.56
-140.48
-147.43
-151.77
-152.82
-149.82
-142.00
-128.82
-110.21
-86.75
-59.47
-29.73
1.39
33.27
65.97
100.20
137.14
178.07
223.63
273.06
323.49
370.34
408.32
433.08
442.48
436.96
419.12
392.40
360.16
325.06
289.19
254.14
220.99
190.25
161.67
134.40
107.31
79.39
50.21
20.23
-9.29
-36.76
-60.87
-81.47
-99.61
-117.34
-136.71
-159.23
-185.43
-214.65
-245.11
-273.67
-295.63
-305.29
-297.84
-272.23
-233.27
-191.16
-157.62
-140.53
-139.95
-148.13
-153.56
-146.77
-124.53
-90.36
-51.41
-14.09
18.96
49.04
79.35
112.37
148.44
185.82
221.93
254.34
281.39
302.26
317.06
326.52
331.57
333.17
332.34
330.69
330.89
336.43
350.37
373.45
402.78
432.10
453.77
461.71
453.64
431.62
400.73
366.88
334.99
308.19
288.02
275.06
269.23
269.79
275.35
283.93
293.32
301.39
306.26
306.41
300.75
288.75
270.52
246.80
218.93
188.48
157.03
125.74
95.27
65.72
36.86
8.40
-19.78
-47.51
-74.46
-100.33
-125.07
-149.03
-172.81
-197.25
-223.17
-251.25
-281.59
-313.40
-344.74
-372.64
-393.70
-404.94
-404.70
-393.25
-372.87
-347.24
-320.35
-295.31
-273.62
-255.19
-239.03
-224.12
-209.88
-196.21
-182.96
-169.64
-155.41
-139.52
-121.92
-103.73
-87.03
-74.08
-66.24
-63.22
-63.03
-62.81
-60.05
-53.77
-45.04
-36.47
-31.02
-30.53
-34.85
-41.99
-49.16
-54.06
-55.62
-54.11
-50.47
-45.64
-40.19
-34.37
-28.25
-21.95
-15.62
-9.51
-3.82
1.29
5.76
9.67
13.15
16.26
18.71
19.87
18.93
15.46
9.83
3.31
-2.32
-5.58
-5.93
-4.05
-1.53
-0.18
-1.25
-5.09
-11.07
-17.99
-24.45
-29.26
-31.68
-31.63
-29.61
-26.51
-23.34
-20.87
-19.40
-18.87
-19.15
-20.21
-22.20
-25.11
-28.58
-31.80
-33.96
-34.67
-34.24
-33.40
-32.76
-32.45
-32.15
-31.56
-30.75
-30.08
-29.65
-28.78
-26.15
-20.82
-13.23
-5.59
-0.96
-1.47
-6.88
-14.55
-20.95
-23.83
-23.65
-23.21
-25.67
-32.51
-42.44
-52.27
-58.85
-60.74
-58.71
-54.65
-50.14
-45.53
-40.23
-33.68
-26.15
-18.78
-12.69
-8.17
-4.42
-0.18
5.23
11.30
16.61
19.80
20.48
19.81
19.92
22.95
29.85
39.68
49.79
56.90
58.57
54.33
45.85
35.85
26.44
18.00
9.46
-0.28
-10.80
-19.67
-23.62
-20.60
-11.40
0.45
10.44
15.43
15.10
11.69
8.16
6.41
6.42
6.75
5.96
3.69
0.67
-2.01
-3.77
-4.76
-5.33
-5.42
-4.31
-1.33
3.13
7.12
7.90
3.71
-4.66
-13.67
-18.57
-16.07
-6.19
7.46
19.50
25.35
23.29
14.82
3.65
-6.25
-12.20
-13.52
-11.16
-6.91
-2.27
2.03
5.98
9.85
13.31
15.21
14.00
8.80
0.37
-8.70
-14.99
-15.80
-10.53
-0.74
10.73
21.37
29.88
36.21
40.72
43.30
43.35
40.45
35.33
30.29
28.46
32.28
42.23
56.51
71.87
85.22
95.03
101.61
106.42
110.92
115.55
119.77
122.66
123.62
122.75
120.53
117.41
113.67
109.86
107.29
108.14
114.75
128.27
147.69
169.77
190.16
205.14
212.98
214.05
209.95
202.18
191.34
177.45
160.82
142.82
125.86
112.60
104.81
102.81
105.57
111.54
119.46
128.89
140.03
153.13
167.86
183.05
196.84
207.22
212.68
212.56
207.12
197.20
183.71
167.17
147.50
124.38
97.61
67.61
35.62
3.47
-27.06
-54.75
-79.46
-102.14
-124.24
-147.27
-172.10
-198.75
-226.49
-254.10
-280.46
-304.91
-327.55
-349.21
-371.40
-395.80
-424.12
-457.78
-497.33
-541.59
-587.20
-629.21
-662.86
-685.46
-697.38
-701.24
-699.93
-694.26
-682.43
-661.21
-628.52
-585.38
-536.13
-486.47
-440.86
-400.96
-365.67
-332.85
-300.96
-269.87
-240.38
-213.21
-188.43
-165.48
-143.57
-122.12
-101.11
-80.80
-61.42
-42.97
-25.12
-7.51
10.04
27.32
43.80
58.85
72.03
83.40
93.49
103.39
114.63
128.73
146.39
166.38
184.89
196.16
194.55
177.33
146.80
110.22
77.25
56.01
49.88
56.60
70.25
84.65
96.38
105.67
115.16
127.85
145.34
167.27
191.95
216.97
239.57
256.66
264.84
260.86
242.70
210.76
168.39
121.43
76.76
40.30
15.29
1.66
-3.33
-3.50
-1.94
0.16
3.59
10.25
21.89
39.24
61.84
88.55
118.47
151.36
187.52
227.06
268.68
309.13
343.36
365.54
370.76
356.41
322.66
271.82
207.05
131.43
48.09
-38.70
-122.50
-194.68
-246.33
-271.10
-267.70
-240.61
-198.26
-149.86
-102.28
-58.31
-16.75
25.84
72.90
125.64
181.65
234.67
276.04
297.40
293.70
265.56
219.20
164.28
110.22
63.27
25.41
-4.55
-28.60
-47.55
-60.92
-68.00
-69.36
-67.25
-64.41
-61.93
-57.96
-48.45
-30.07
-3.72
24.02
43.13
44.92
27.40
-2.52
-31.34
-44.51
-32.40
6.77
67.58
140.69
216.11
284.86
339.18
372.57
380.55
362.31
321.62
265.93
203.81
141.91
82.97
26.00
-31.57
-90.96
-150.11
-203.86
-245.97
-271.73
-279.55
-271.11
-249.78
-218.67
-179.25
-131.65
-75.66
-11.81
58.16
131.27
203.51
269.75
323.92
359.79
372.60
360.88
327.38
278.01
219.31
156.23
91.71
27.93
-31.74
-82.01
-117.37
-134.85
-136.40
-128.99
-122.09
-124.18
-140.33
-171.91
-217.65
-274.95
-340.06
-407.30
-468.49
-513.85
-534.68
-526.28
-489.65
-431.12
-360.55
-289.07
-227.05
-182.25
-158.26
-153.37
-160.52
-169.24
-169.05
-153.38
-121.41
-77.62
-28.79
19.52
64.61
106.68
147.58
189.42
233.73
281.12
330.66
379.01
420.29
447.01
451.96
430.39
381.69
310.04
224.06
135.68
58.20
3.90
-18.55
-6.01
38.31
105.65
183.68
259.16
320.41
359.10
371.21
357.14
321.30
270.51
212.03
151.50
91.66
32.63
-26.41
-85.12
-140.94
-189.32
-225.49
-246.39
-251.99
-245.20
-230.69
-213.31
-196.68
-182.93
-173.17
-168.27
-169.25
-176.98
-191.44
-210.97
-232.02
-249.70
-259.02
-255.98
-238.80
-208.22
-167.07
-119.12
-67.65
-14.20
41.84
102.23
167.84
236.48
301.86
354.50
384.93
387.25
361.67
314.61
255.84
194.51
135.24
77.50
17.92
-45.64
-110.61
-169.05
-210.20
-224.87
-208.91
-164.66
-99.15
-21.69
58.26
132.01
191.39
228.93
239.11
220.80
178.16
121.29
63.34
16.58
-11.34
-19.24
-11.62
3.83
19.89
30.23
32.34
26.68
15.44
1.00
-15.34
-33.70
-54.72
-76.48
-97.16
-110.62
-109.70
-89.60
-51.23
-2.42
44.00
74.50
81.66
60.30
14.24
-47.98
-115.69
-178.09
-225.46
-250.07
-247.29
-214.06
-157.87
-86.91
-10.50
63.98
133.30
198.79
264.56
316.20
375.54
434.61
484.21
513.76
515.42
487.48
435.26
368.88
299.17
236.76
181.34
131.35
83.37
34.56
-16.27
-68.83
-121.79
-172.83
-216.20
-249.81
-270.15
-276.78
-273.63
-268.13
-267.87
-276.30
-289.97
-297.73
-289.23
-256.49
-199.90
-129.08
-59.69
-7.89
15.10
6.11
-29.20
-80.58
-134.58
-178.66
-204.02
-206.94
-189.15
-156.62
-117.43
-79.02
-47.00
-23.22
-6.18
7.83
23.13
42.87
67.84
95.98
122.71
141.99
147.99
136.53
106.04
57.97
-3.71
-72.87
-141.83
-201.99
-244.92
-263.84
-255.14
-219.71
-163.18
-95.15
-27.19
29.85
68.32
85.54
83.89
69.42
49.49
30.56
16.70
9.52
8.87
13.70
22.41
32.54
40.49
41.75
32.01
8.80
-27.32
-72.48
-120.29
-163.28
-194.45
-208.60
-203.16
-178.41
-137.28
-84.55
-25.90
33.04
87.27
132.58
165.33
182.41
181.73
163.04
128.86
84.74
38.35
-2.36
-31.46
-46.65
-49.44
-43.79
-33.98
-22.75
-10.86
2.09
16.01
29.27
38.75
41.22
35.11
21.47
3.50
-15.06
-31.66
-45.82
-58.54
-70.69
-81.56
-88.58
-88.48
-79.27
-61.77
-39.80
-18.68
-2.83
6.28
10.50
13.70
19.19
27.39
35.06
36.62
26.79
3.41
-31.07
-70.14
-105.53
-130.11
-140.15
-136.01
-121.26
-100.81
-79.25
-59.74
-44.14
-33.32
-27.57
-26.36
-27.91
-29.15
-26.42
-17.00
-0.38
21.04
42.78
59.99
69.35
70.28
64.82
56.46
48.58
43.24
40.96
41.38
44.05
48.79
55.32
62.53
68.19
69.41
64.06
52.15
36.81
23.62
18.69
26.08
45.92
73.99
103.00
125.15
134.57
128.98
110.02
82.34
52.05
25.04
5.84
-3.00
-0.86
11.08
30.09
52.03
71.85
84.64
86.98
78.22
61.00
40.59
23.13
13.35
12.96
20.16
30.70
39.68
43.41
40.29
30.73
16.18
-1.81
-21.98
-43.29
-64.44
-83.63
-98.56
-106.87
-106.81
-97.86
-81.20
-59.62
-36.94
-17.10
-3.00
4.42
6.42
5.83
5.98
9.31
16.40
25.80
34.81
40.54
40.95
35.44
24.75
10.54
-5.17
-20.41
-33.56
-43.49
-49.72
-52.59
-53.45
-54.66
-59.02
-68.67
-83.73
-101.52
-116.96
-124.32
-119.68
-102.97
-78.39
-53.07
-34.34
-26.90
-31.21
-43.73
-58.87
-71.36
-78.14
-78.96
-75.61
-70.67
-66.25
-63.51
-62.65
-63.60
-66.42
-71.31
-78.30
-86.74
-95.28
-102.27
-106.51
-107.88
-107.22
-105.81
-104.70
-104.31
-104.81
-106.60
-110.82
-119.10
-132.85
-152.40
-176.65
-203.33
-229.71
-253.16
-271.51
-282.87
-285.70
-278.97
-262.73
-238.58
-209.50
-179.18
-150.95
-126.89
-107.56
-92.42
-80.53
-71.15
-64.09
-59.58
-58.00
-59.68
-64.72
-73.00
-84.22
-97.88
-113.39
-130.13
-147.40
-164.57
-181.06
-196.25
-209.46
-219.87
-226.56
-228.61
-225.38
-216.62
-202.70
-184.52
-163.30
-140.19
-115.90
-90.59
-63.95
-35.63
-5.69
25.12
55.31
83.21
107.55
128.15
146.12
163.42
182.07
203.18
226.40
250.07
271.95
290.41
305.27
318.07
331.50
348.64
371.89
402.25
438.76
478.21
515.34
543.69
557.16
551.86
527.52
487.76
439.04
388.48
341.52
300.52
264.67
231.36
198.13
164.28
131.35
102.21
79.09
62.11
48.90
35.92
20.88
4.95
-7.05
-8.57
5.06
33.10
68.22
98.65
112.72
104.09
74.75
34.00
-5.60
-33.82
-46.66
-47.01
-42.33
-40.76
-48.12
-66.64
-95.72
-133.02
-175.24
-218.05
-256.17
-284.19
-298.38
-298.18
-286.41
-267.74
-246.20
-223.22
-197.28
-165.42
-125.73
-79.11
-29.57
17.25
56.23
84.54
102.09
110.71
112.97
111.18
107.16
102.59
99.33
99.44
104.73
115.98
132.41
151.68
170.72
186.84
198.75
206.97
213.43
220.53
229.73
240.55
250.52
255.93
253.40
241.32
220.60
194.32
166.53
140.92
119.73
103.57
91.87
83.59
78.00
74.72
73.57
74.06
75.15
75.26
72.64
65.94
54.54
38.81
20.06
0.31
-18.05
-32.80
-42.33
-45.99
-44.07
-37.53
-27.56
-15.35
-2.06
10.97
22.07
29.37
31.26
27.07
17.39
3.91
-11.33
-26.78
-41.79
-56.37
-70.37
-82.88
-91.95
-95.29
-91.27
-79.84
-62.80
-43.24
-24.81
-10.65
-3.17
-3.78
-12.99
-30.33
-54.13
-81.78
-109.88
-134.73
-153.10
-162.60
-161.92
-150.82
-130.03
-101.40
-67.96
-33.70
-2.83
21.39
37.69
47.11
52.41
56.59
61.49
67.12
72.17
75.22
75.85
75.04
74.57
76.00
79.69
84.82
89.64
92.46
91.92
87.13
77.62
63.18
43.95
20.88
-4.22
-28.50
-48.40
-60.55
-62.88
-55.81
-42.67
-28.94
-20.30
-20.35
-29.19
-43.64
-59.10
-71.92
-81.17
-88.70
-97.73
-110.80
-128.34
-148.69
-169.18
-187.55
-202.59
-213.78
-220.53
-221.62
-215.56
-201.54
-180.34
-154.48
-127.56
-102.88
-82.39
-66.14
-52.76
-40.34
-27.33
-12.96
2.96
20.41
39.47
60.17
82.19
104.55
125.71
143.95
157.80
166.48
169.77
167.67
159.86
145.68
124.93
98.87
70.83
45.55
27.47
18.86
18.82
23.85
29.65
33.21
33.88
33.02
32.65
33.90
36.33
38.46
38.77
36.71
32.85
28.19
23.29
17.86
10.84
1.22
-11.09
-24.74
-37.33
-46.35
-50.30
-49.34
-45.06
-39.70
-35.15
-32.36
-31.38
-31.75
-32.95
-34.47
-35.66
-35.56
-33.07
-27.33
-18.28
-6.79
5.57
17.19
26.95
34.46
39.80
43.12
44.24
42.67
37.91
29.98
19.67
8.58
-1.29
-8.14
-10.88
-9.47
-4.82
1.54
8.00
13.26
16.59
17.75
16.79
13.92
9.41
3.69
-2.75
-9.31
-15.47
-20.87
-25.28
-28.63
-30.74
-31.44
-30.50
-27.91
-23.93
-19.07
-14.00
-9.34
-5.52
-2.67
-0.75
0.46
1.13
1.29
0.87
-0.21
-1.84
-3.69
-5.17
-5.80
-5.40
-4.19
-2.72
-1.55
-1.08
-1.42
-2.53
-4.30
-6.61
-9.11
-11.17
-11.97
-10.80
-7.56
-2.93
1.67
4.65
4.91
2.25
-2.61
-8.28
-13.30
-16.63
-17.77
-16.83
-14.26
-10.63
-6.52
-2.33
1.62
5.12
8.02
10.18
11.51
11.97
11.57
10.39
8.58
6.39
4.21
2.48
1.63
1.93
3.28
5.21
6.87
7.50
6.68
4.66
2.25
0.47
-0.02
0.75
2.07
2.93
2.61
1.03
-1.28
-3.49
-4.98
-5.63
-5.83
-6.20
-7.28
-9.33
-12.27
-15.76
-19.35
-22.46
-24.51
-25.01
-23.64
-20.44
-15.80
-10.42
-5.12
-0.58
2.78
4.90
6.03
6.65
7.26
8.32
10.12
12.74
15.99
19.40
22.36
24.21
24.48
23.08
20.35
16.99
13.75
11.20
9.59
8.83
8.67
8.85
9.19
9.56
9.76
9.52
8.54
6.67
4.00
0.81
-2.58
-5.92
-9.08
-12.05
-14.68
-16.71
-17.74
-17.56
-16.19
-14.03
-11.63
-9.41
-7.43
-5.41
-2.89
0.41
4.38
8.49
12.03
14.45
15.66
16.05
16.37
17.38
19.56
22.82
26.44
29.32
30.40
29.25
26.38
23.26
21.76
23.31
28.15
34.99
41.48
45.17
44.82
40.96
35.85
32.40
32.97
38.37
47.67
58.77
69.24
77.10
80.92
79.71
73.14
62.10
49.58
40.33
39.04
47.18
61.01
72.09
71.18
53.69
23.52
-7.07
-22.68
-12.00
26.18
81.82
137.89
177.49
190.07
173.52
132.68
76.16
13.97
-43.39
-85.04
-100.94
-84.62
-36.24
34.95
112.11
175.91
211.28
212.84
186.43
146.13
109.15
90.48
97.49
128.64
175.21
225.08
266.98
293.91
303.86
299.67
287.78
274.00
261.93
252.91
246.87
243.21
241.24
239.17
235.55
230.46
223.86
216.18
208.68
203.16
201.61
205.43
214.09
215.64
201.62
167.19
113.54
47.79
-19.83
-79.86
-120.72
-143.96
-154.76
-156.91
-153.65
-147.35
-139.78
-132.77
-126.93
-122.30
-119.53
-117.99
-115.63
-111.20
-104.57
-96.91
-90.43
-87.70
-91.29
-103.73
-125.55
-155.09
-189.88
-227.04
-263.67
-297.07
-324.82
-345.01
-356.54
-358.26
-349.31
-329.90
-301.44
-266.31
-227.60
-188.40
-151.42
-118.77
-91.27
-68.93
-51.57
-39.18
-32.07
-30.68
-35.14
-44.98
-58.92
-74.97
-91.10
-105.78
-118.58
-130.19
-142.07
-155.71
-171.99
-190.77
-211.23
-232.34
-253.56
-275.16
-298.19
-324.29
-355.38
-393.58
-440.70
-497.24
-561.13
-626.78
-685.70
-728.76
-749.27
-745.40
-720.80
-682.71
-638.82
-594.48
-551.59
-509.53
-467.05
-423.63
-379.89
-336.71
-294.19
-251.31
-206.55
-158.85
-108.53
-57.26
-7.70
37.56
76.71
109.11
135.20
155.91
172.07
183.98
191.45
194.13
192.00
185.63
176.38
165.97
155.99
147.61
141.23
136.54
132.76
129.06
124.90
120.17
115.21
110.57
106.85
104.46
103.52
103.81
104.92
106.31
107.57
108.45
109.01
109.38
109.68
109.92
109.85
109.03
107.06
103.89
100.00
96.46
94.71
96.12
101.54
111.07
123.97
139.11
155.31
171.80
188.35
205.23
222.99
242.39
264.34
289.63
318.35
349.15
378.93
403.27
417.78
419.76
409.23
388.85
362.53
333.74
304.30
274.52
244.28
214.17
185.77
161.01
140.94
124.92
110.82
95.96
78.41
57.72
34.84
11.63
-10.04
-28.75
-43.66
-54.41
-60.93
-63.45
-62.54
-59.16
-54.53
-49.91
-46.32
-44.36
-44.15
-45.31
-47.18
-48.93
-49.75
-48.96
-46.15
-41.16
-34.14
-25.49
-15.78
-5.71
3.96
12.33
18.48
21.57
21.09
17.10
10.38
2.22
-5.94
-12.97
-18.31
-21.89
-23.94
-24.86
-25.24
-25.96
-28.22
-33.15
-41.23
-51.82
-63.32
-73.82
-81.95
-87.40
-90.77
-92.93
-94.26
-94.53
-93.12
-89.52
-83.71
-75.92
-66.40
-55.12
-42.01
-27.26
-11.59
3.75
17.46
28.62
37.00
43.02
47.38
50.76
53.61
56.14
58.47
60.66
62.71
64.50
65.62
65.51
63.63
59.76
54.14
47.44
40.58
34.32
29.02
24.64
20.91
17.57
14.61
12.25
10.78
10.36
10.90
12.00
13.21
14.14
14.67
14.88
14.90
14.70
14.09
12.72
10.32
6.83
2.44
-2.46
-7.46
-12.16
-16.10
-18.73
-19.42
-17.71
-13.56
-7.51
-0.53
6.26
11.96
16.15
18.76
19.87
19.49
17.54
13.90
8.66
2.24
-4.67
-11.17
-16.43
-19.86
-21.25
-20.78
-18.94
-16.43
-13.92
-11.84
-10.32
-9.18
-8.05
-6.56
-4.53
-2.07
0.39
2.23
2.87
2.06
-0.06
-2.95
-6.01
-8.81
-11.18
-13.17
-14.81
-15.97
-16.42
-16.03
-14.99
-13.68
-12.58
-11.90
-11.55
-11.35
-11.32
-11.79
-13.24
-15.88
-19.28
-22.49
-24.39
-24.35
-22.56
-19.83
-17.16
-15.19
-14.02
-13.42
-13.24
-13.51
-14.42
-15.89
-17.34
-17.88
-16.73
-13.80
-9.76
-5.81
-3.02
-1.85
-1.91
-2.22
-1.85
-0.28
2.34
5.39
8.13
9.98
10.77
10.72
10.29
9.90
9.79
9.92
10.01
9.77
8.98
7.66
6.01
4.21
2.35
0.48
-1.45
-3.36
-5.07
-6.31
-6.99
-7.25
-7.48
-8.21
-9.80
-12.32
-15.50
-18.79
-21.61
-23.52
-24.26
-23.87
-22.53
-20.44
-17.81
-14.87
-11.80
-8.92
-6.53
-4.85
-3.93
-3.56
-3.36
-2.93
-2.02
-0.66
0.89
2.35
3.46
4.18
4.58
4.77
4.81
4.70
4.38
3.79
2.94
1.91
0.85
-0.02
-0.51
-0.56
-0.24
0.22
0.54
0.51
0.12
-0.53
-1.23
-1.80
-2.18
-2.42
-2.64
-2.92
-3.20
-3.29
-2.93
-1.97
-0.44
1.41
3.16
4.46
5.07
5.07
4.64
4.05
3.56
3.31
3.42
3.94
4.88
6.11
7.39
8.38
8.79
8.44
7.36
5.68
3.64
1.59
-0.10
-1.06
-1.06
-0.22
1.02
1.98
2.05
1.02
-0.85
-3.04
-5.00
-6.46
-7.47
-8.20
-8.73
-8.95
-8.68
-7.88
-6.81
-5.92
-5.54
-5.69
-6.00
-5.97
-5.31
-4.09
-2.71
-1.56
-0.72
0.05
1.22
3.10
5.63
8.33
10.58
11.90
12.16
11.59
10.57
9.40
8.24
7.12
6.09
5.26
4.77
4.69
4.95
5.34
5.60
5.56
5.22
4.70
4.13
3.54
2.92
2.27
1.63
1.13
0.88
0.86
0.89
0.67
-0.02
-1.24
-2.84
-4.55
-6.08
-7.21
-7.84
-7.95
-7.58
-6.79
-5.68
-4.32
-2.74
-0.92
1.22
3.67
6.33
8.96
11.21
12.80
13.61
13.69
13.28
12.71
12.27
12.09
12.20
12.44
12.62
12.52
11.99
11.00
9.62
8.05
6.56
5.40
4.76
4.66
4.86
5.01
4.75
3.87
2.46
0.85
-0.53
-1.41
-1.74
-1.73
-1.70
-1.91
-2.49
-3.36
-4.34
-5.24
-5.86
-6.06
-5.72
-4.79
-3.30
-1.35
0.91
3.29
5.63
7.74
9.47
10.70
11.37
11.53
11.29
10.79
10.26
9.85
9.71
9.89
10.32
10.87
11.34
11.57
11.51
11.22
10.80
10.41
10.12
9.90
9.66
9.30
8.80
8.18
7.54
6.96
6.48
6.12
5.84
5.55
5.19
4.72
4.17
3.59
3.00
2.39
1.72
0.86
-0.25
-1.60
-3.04
-4.34
-5.25
-5.59
-5.33
-4.54
-3.41
-2.05
-0.60
0.87
2.22
3.36
4.23
4.86
5.38
5.92
6.52
7.10
7.54
7.73
7.74
7.72
7.79
7.99
8.15
8.05
7.57
6.79
5.97
5.42
5.26
5.35
5.39
5.06
4.23
3.03
1.76
0.72
0.04
-0.38
-0.77
-1.30
-2.01
-2.77
-3.43
-3.97
-4.52
-5.27
-6.35
-7.67
-8.93
-9.77
-9.93
-9.36
-8.22
-6.74
-5.22
-3.84
-2.73
-1.92
-1.41
-1.11
-0.87
-0.51
0.07
0.85
1.73
2.53
3.18
3.68
4.10
4.56
5.06
5.56
5.97
6.19
6.19
6.00
5.67
5.22
4.69
4.13
3.62
3.27
3.11
3.10
3.08
2.86
2.28
1.37
0.24
-0.89
-1.83
-2.56
-3.17
-3.79
-4.50
-5.27
-5.97
-6.47
-6.68
-6.57
-6.10
-5.23
-3.98
-2.39
-0.66
0.93
2.13
2.71
2.69
2.22
1.57
1.01
0.71
0.70
0.89
1.12
1.25
1.24
1.14
1.05
1.05
1.09
1.04
0.75
0.19
-0.53
-1.17
-1.50
-1.38
-0.87
-0.14
0.54
0.92
0.90
0.47
-0.26
-1.12
-2.00
-2.83
-3.62
-4.43
-5.34
-6.29
-7.19
-7.84
-8.09
-7.83
-7.08
-5.94
-4.56
-3.09
-1.60
-0.14
1.25
2.49
3.43
3.95
3.95
3.49
2.70
1.83
1.07
0.60
0.48
0.65
0.97
1.22
1.21
0.82
0.14
-0.66
-1.31
-1.58
-1.45
-1.06
-0.67
-0.51
-0.67
-1.07
-1.57
-1.99
-2.29
-2.51
-2.79
-3.25
-3.98
-4.97
-6.10
-7.19
-7.99
-8.33
-8.19
-7.62
-6.79
-5.85
-4.87
-3.87
-2.84
-1.77
-0.73
0.21
0.99
1.61
2.14
2.64
3.18
3.74
4.29
4.78
5.14
5.34
5.31
5.05
4.61
4.10
3.63
3.22
2.81
2.29
1.56
0.63
-0.39
-1.33
-2.05
-2.49
-2.74
-2.93
-3.17
-3.51
-3.90
-4.27
-4.55
-4.70
-4.72
-4.64
-4.46
-4.18
-3.77
-3.21
-2.52
-1.76
-1.00
-0.33
0.17
0.42
0.40
0.10
-0.41
-1.01
-1.54
-1.89
-1.98
-1.81
-1.47
-1.09
-0.84
-0.84
-1.13
-1.61
-2.12
-2.48
-2.57
-2.42
-2.19
-2.12
-2.37
-3.00
-3.90
-4.84
-5.56
-5.91
-5.84
-5.46
-5.01
-4.70
-4.67
-4.84
-5.03
-5.05
-4.76
-4.15
-3.38
-2.68
-2.26
-2.24
-2.58
-3.10
-3.57
-3.80
-3.71
-3.35
-2.90
-2.51
-2.29
-2.23
-2.29
-2.40
-2.52
-2.62
-2.69
-2.73
-2.76
-2.83
-2.98
-3.22
-3.49
-3.71
-3.90
-4.16
-4.65
-5.54
-6.79
-8.17
-9.31
-9.92
-9.92
-9.48
-8.88
-8.37
-7.98
-7.58
-6.94
-5.91
-4.51
-2.88
-1.25
0.21
1.37
2.16
2.56
2.57
2.28
1.80
1.32
1.02
1.00
1.23
1.58
1.88
2.01
1.94
1.75
1.54
1.38
1.29
1.20
1.04
0.70
0.16
-0.56
-1.40
-2.24
-2.99
-3.57
-3.95
-4.14
-4.18
-4.08
-3.83
-3.39
-2.74
-1.85
-0.77
0.45
1.69
2.84
3.85
4.69
5.40
6.02
6.50
6.81
6.85
6.64
6.23
5.78
5.44
5.28
5.28
5.34
5.38
5.41
5.48
5.65
5.85
5.89
5.55
4.68
3.33
1.75
0.31
-0.70
-1.21
-1.39
-1.59
-2.10
-3.03
-4.20
-5.29
-5.99
-6.21
-6.07
-5.76
-5.40
-4.88
-4.02
-2.68
-1.02
0.54
1.51
1.59
0.77
-0.62
-2.12
-3.33
-4.06
-4.31
-4.19
-3.89
-3.56
-3.34
-3.34
-3.59
-4.01
-4.44
-4.70
-4.74
-4.66
-4.67
-4.90
-5.35
-5.75
-5.73
-5.07
-3.78
-2.18
-0.78
0.02
0.11
-0.34
-1.00
-1.57
-1.93
-2.09
-2.11
-2.00
-1.69
-1.12
-0.32
0.61
1.51
2.30
3.01
3.76
4.65
5.63
6.48
6.96
6.94
6.52
6.05
5.95
6.45
7.54
8.92
10.17
10.97
11.26
11.22
11.15
11.31
11.74
12.32
12.76
12.80
12.25
11.07
9.42
7.52
5.62
3.91
2.46
1.19
-0.02
-1.28
-2.61
-3.88
-4.95
-5.71
-6.22
-6.65
-7.22
-8.05
-9.03
-9.95
-10.60
-10.91
-10.93
-10.80
-10.56
-10.09
-9.21
-7.78
-5.87
-3.73
-1.66
0.10
1.57
2.86
4.11
5.33
6.41
7.18
7.60
7.73
7.71
7.65
7.55
7.29
6.72
5.79
4.60
3.33
2.18
1.21
0.43
-0.23
-0.82
-1.39
-1.98
-2.66
-3.50
-4.49
-5.52
-6.40
-6.92
-6.97
-6.67
-6.23
-5.87
-5.63
-5.33
-4.72
-3.65
-2.16
-0.51
1.03
2.34
3.48
4.66
6.03
7.59
9.16
10.54
11.64
12.56
13.51
14.67
16.08
17.58
18.91
19.86
20.32
20.32
19.94
19.25
18.30
17.14
15.88
14.70
13.75
13.12
12.69
12.20
11.23
9.46
6.77
3.31
-0.48
-4.10
-7.11
-9.29
-10.64
-11.32
-11.54
-11.44
-11.09
-10.52
-9.77
-8.97
-8.25
-7.71
-7.40
-7.21
-7.04
-6.78
-6.41
-5.98
-5.57
-5.27
-5.13
-5.16
-5.29
-5.39
-5.28
-4.81
-3.85
-2.43
-0.70
1.09
2.58
3.43
3.38
2.37
0.45
-2.14
-5.15
-8.38
-11.71
-15.01
-18.06
-20.47
-21.70
-21.27
-18.97
-15.03
-10.06
-4.85
-0.10
3.81
6.80
8.96
10.34
10.93
10.71
9.79
8.45
7.09
6.04
5.45
5.13
4.73
3.81
2.06
-0.55
-3.72
-6.94
-9.55
-10.99
-10.91
-9.29
-6.39
-2.68
1.32
5.17
8.47
10.84
12.00
11.74
10.06
7.22
3.73
0.23
-2.71
-4.76
-5.93
-6.43
-6.57
-6.57
-6.46
-6.11
-5.35
-4.12
-2.53
-0.86
0.66
1.90
2.90
3.82
4.73
5.57
6.18
6.33
5.90
4.91
3.46
1.68
-0.31
-2.38
-4.37
-5.97
-6.82
-6.62
-5.29
-3.11
-0.55
1.80
3.49
4.44
4.91
5.44
6.60
8.75
11.85
15.41
18.68
20.90
21.57
20.55
18.08
14.58
10.46
6.01
1.39
-3.31
-8.01
-12.57
-16.90
-20.88
-24.34
-26.99
-28.47
-28.47
-26.86
-23.88
-20.10
-16.27
-13.04
-10.79
-9.55
-9.08
-9.02
-8.96
-8.56
-7.58
-5.90
-3.59
-0.93
1.65
3.74
5.09
5.70
5.81
5.75
5.79
6.08
6.59
7.18
7.64
7.72
7.24
6.12
4.47
2.55
0.74
-0.64
-1.38
-1.55
-1.41
-1.31
-1.54
-2.22
-3.27
-4.41
-5.30
-5.61
-5.11
-3.79
-1.81
0.43
2.47
3.94
4.67
4.72
4.32
3.74
3.11
2.47
1.79
1.11
0.54
0.23
0.21
0.42
0.73
1.00
1.24
1.54
2.00
2.59
3.20
3.68
3.92
3.97
3.96
3.93
3.84
3.56
2.96
2.01
0.86
-0.29
-1.24
-1.91
-2.28
-2.36
-2.17
-1.71
-1.07
-0.44
-0.09
-0.27
-1.02
-2.15
-3.26
-3.98
-4.16
-3.98
-3.80
-3.97
-4.56
-5.37
-6.04
-6.29
-6.06
-5.56
-5.05
-4.67
-4.36
-3.90
-3.11
-1.95
-0.56
0.84
2.06
3.06
3.91
4.68
5.47
6.19
6.77
7.13
7.24
7.15
6.96
6.68
6.29
5.72
4.96
4.06
3.16
2.39
1.79
1.31
0.81
0.16
-0.66
-1.62
-2.59
-3.47
-4.20
-4.76
-5.16
-5.48
-5.87
-6.49
-7.42
-8.63
-9.90
-10.93
-11.48
-11.50
-11.21
-10.91
-10.90
-11.25
-11.79
-12.21
-12.30
-12.05
-11.76
-11.85
-12.70
-14.44
-16.83
-19.41
-21.64
-23.21
-24.11
-24.64
-25.20
-26.12
-27.53
-29.38
-31.56
-33.95
-36.52
-39.28
-42.24
-45.50
-49.24
-53.68
-58.94
-64.93
-71.02
-76.20
-79.12
-78.66
-74.19
-65.89
-54.45
-40.61
-24.73
-6.58
14.33
38.16
64.22
90.78
115.44
135.93
150.96
160.58
166.24
170.04
174.31
180.86
190.81
204.15
219.71
235.46
249.07
258.85
264.47
267.31
269.66
273.62
279.49
285.02
286.16
278.56
259.32
227.97
187.03
141.63
98.81
65.49
46.47
42.59
50.34
63.04
73.00
74.91
67.72
55.09
42.31
33.58
30.28
31.52
35.60
40.47
44.96
48.24
50.53
50.65
46.68
36.73
20.56
-0.17
-23.93
-49.27
-75.44
-100.29
-123.31
-144.94
-166.26
-187.27
-206.92
-225.57
-244.24
-264.52
-285.23
-305.88
-326.04
-345.41
-362.14
-363.27
-337.77
-279.57
-207.87
-136.25
-75.31
-25.73
10.38
32.57
42.93
43.86
38.27
28.21
16.61
3.08
-15.03
-41.12
-75.26
-113.20
-148.29
-172.27
-177.40
-156.50
-108.03
-37.07
44.76
123.22
185.04
220.92
228.52
212.68
184.18
153.77
129.23
113.61
106.65
106.26
109.09
111.77
111.25
105.48
92.96
73.28
47.04
16.10
-17.29
-51.62
-87.23
-126.35
-172.11
-226.68
-288.48
-350.91
-403.20
-434.00
-436.42
-411.21
-366.36
-313.06
-260.61
-213.66
-172.53
-135.99
-103.70
-76.83
-56.77
-43.96
-38.13
-39.68
-50.47
-72.74
-106.01
-144.64
-178.48
-196.53
-192.06
-165.91
-125.57
-80.87
-39.49
-4.26
26.16
54.63
83.55
114.27
147.83
186.14
231.63
285.27
344.34
401.63
447.10
471.51
470.16
444.95
403.57
356.37
312.51
277.31
251.73
233.71
220.37
209.30
199.04
188.71
177.71
165.69
152.77
139.65
127.36
117.09
109.49
104.43
101.15
98.55
95.61
91.69
86.38
79.12
68.94
54.27
33.39
4.97
-31.45
-75.01
-123.74
-175.06
-226.51
-276.40
-324.06
-369.92
-415.39
-462.68
-513.90
-569.76
-628.23
-684.05
-729.73
-758.06
-765.03
-751.58
-723.28
-687.89
-652.25
-619.98
-591.16
-563.64
-535.06
-504.12
-470.82
-435.59
-398.43
-358.84
-316.29
-271.09
-224.67
-179.37
-137.71
-101.51
-71.17
-45.77
-23.45
-2.25
19.15
41.16
63.31
84.70
104.57
122.60
139.00
154.32
168.91
182.63
194.65
203.74
208.77
209.03
204.45
195.71
184.00
170.64
156.71
142.79
129.05
115.60
102.59
90.47
79.88
71.54
65.83
62.65
61.37
61.03
60.78
60.34
60.19
61.41
65.38
73.18
85.16
100.76
118.69
137.53
156.26
174.68
193.59
214.51
239.42
270.03
306.82
348.10
389.74
425.76
450.16
459.00
451.87
432.11
405.31
376.94
350.24
325.81
302.38
278.72
255.05
233.31
216.21
205.84
202.64
205.09
210.19
213.92
211.83
199.82
175.30
138.70
94.46
50.59
16.14
-2.36
-4.02
5.48
16.05
17.29
2.76
-27.75
-68.79
-112.31
-151.06
-180.91
-201.16
-213.24
-219.09
-220.06
-217.00
-210.76
-202.55
-193.68
-185.05
-176.49
-166.82
-154.59
-139.02
-120.68
-101.37
-83.37
-68.37
-56.89
-48.18
-40.75
-33.06
-24.15
-13.80
-2.48
8.97
19.67
28.93
36.36
41.93
45.78
48.21
49.75
51.16
53.31
56.98
62.44
69.24
76.30
82.31
86.26
87.79
87.18
85.05
81.86
77.66
72.06
64.56
54.92
43.55
31.42
19.80
9.74
1.65
-4.71
-10.03
-14.81
-19.07
-22.29
-23.79
-23.11
-20.35
-15.98
-10.55
-4.48
1.94
8.24
13.67
17.40
19.01
18.91
18.39
19.06
22.04
27.49
34.55
41.84
48.14
52.69
55.20
55.65
54.16
50.94
46.43
41.31
36.34
32.05
28.59
25.82
23.48
21.45
19.70
18.19
16.73
14.95
12.47
9.18
5.31
1.27
-2.59
-6.10
-9.29
-12.16
-14.51
-15.92
-16.05
-14.87
-12.86
-10.79
-9.38
-8.90
-9.14
-9.58
-9.75
-9.51
-9.07
-8.76
-8.78
-9.10
-9.49
-9.75
-9.83
-9.82
-9.77
-9.65
-9.28
-8.54
-7.52
-6.50
-5.78
-5.49
-5.50
-5.55
-5.47
-5.39
-5.63
-6.51
-8.15
-10.41
-13.06
-15.94
-19.01
-22.25
-25.40
-27.91
-29.10
-28.52
-26.21
-22.70
-18.77
-15.06
-11.82
-8.96
-6.31
-3.86
-1.83
-0.54
-0.20
-0.77
-1.97
-3.46
-5.00
-6.54
-8.11
-9.76
-11.36
-12.63
-13.23
-12.88
-11.47
-9.14
-6.31
-3.55
-1.49
-0.65
-1.25
-3.10
-5.65
-8.20
-10.04
-10.78
-10.38
-9.14
-7.53
-6.03
-4.93
-4.29
-3.95
-3.62
-2.97
-1.78
0.07
2.50
5.32
8.34
11.41
14.44
17.37
20.02
22.10
23.32
23.53
22.79
21.43
19.86
18.36
16.93
15.37
13.50
11.44
9.71
9.01
9.82
12.06
15.00
17.51
18.56
17.57
14.63
10.30
5.38
0.61
-3.42
-6.29
-7.73
-7.64
-6.28
-4.18
-2.15
-0.93
-0.86
-1.78
-3.13
-4.20
-4.50
-3.91
-2.62
-0.98
0.75
2.52
4.44
6.62
9.07
11.69
14.29
16.68
18.75
20.38
21.45
21.78
21.14
19.38
16.45
12.44
7.58
2.21
-3.25
-8.32
-12.61
-15.84
-17.92
-18.92
-19.03
-18.42
-17.26
-15.71
-14.02
-12.48
-11.33
-10.68
-10.39
-10.17
-9.75
-9.00
-8.01
-7.05
-6.37
-6.08
-6.08
-6.11
-5.91
-5.32
-4.37
-3.25
-2.20
-1.37
-0.70
-0.02
0.94
2.32
3.99
5.64
6.87
7.35
7.03
6.06
4.67
3.12
1.56
0.09
-1.08
-1.73
-1.59
-0.51
1.47
4.08
6.99
9.77
12.08
13.61
14.04
13.06
10.53
6.58
1.73
-3.15
-7.14
-9.56
-10.24
-9.48
-7.89
-5.99
-4.01
-1.89
0.48
2.98
5.19
6.56
6.59
5.18
2.55
-0.88
-4.67
-8.53
-12.23
-15.49
-17.90
-19.03
-18.56
-16.50
-13.19
-9.17
-4.99
-1.10
2.20
4.74
6.39
7.12
7.01
6.21
5.06
3.90
3.02
2.51
2.29
2.10
1.75
1.18
0.57
0.24
0.51
1.45
2.91
4.51
5.77
6.36
6.13
5.16
3.68
2.01
0.41
-0.94
-2.00
-2.79
-3.37
-3.82
-4.19
-4.48
-4.66
-4.67
-4.46
-4.02
-3.35
-2.45
-1.28
0.22
2.07
4.22
6.51
8.65
10.27
11.02
10.74
9.41
7.18
4.30
1.03
-2.39
-5.68
-8.59
-10.87
-12.31
-12.79
-12.30
-11.04
-9.39
-7.83
-6.73
-6.30
-6.41
-6.75
-6.95
-6.79
-6.28
-5.58
-4.88
-4.26
-3.69
-3.12
-2.62
-2.43
-2.78
-3.77
-5.23
-6.85
-8.28
-9.41
-10.35
-11.31
-12.47
-13.82
-15.11
-16.01
-16.29
-15.86
-14.86
-13.59
-12.35
-11.34
-10.63
-10.08
-9.51
-8.78
-7.92
-7.16
-6.78
-6.89
-7.33
-7.71
-7.52
-6.49
-4.70
-2.55
-0.63
0.60
1.05
0.96
0.78
0.94
1.67
2.90
4.38
5.82
7.03
7.89
8.31
8.17
7.33
5.75
3.55
1.08
-1.21
-2.96
-4.04
-4.60
-4.96
-5.43
-6.22
-7.30
-8.54
-9.71
-10.59
-11.03
-10.92
-10.18
-8.73
-6.60
-3.95
-1.11
1.48
3.41
4.54
5.05
5.40
6.08
7.35
9.17
11.23
13.21
14.90
16.31
17.50
18.48
19.12
19.19
18.56
17.34
15.81
14.26
12.82
11.45
9.88
7.90
5.42
2.61
-0.19
-2.56
-4.12
-4.71
-4.38
-3.43
-2.31
-1.38
-0.89
-0.87
-1.26
-1.88
-2.62
-3.41
-4.22
-4.93
-5.37
-5.37
-4.85
-3.90
-2.68
-1.46
-0.39
0.46
1.13
1.75
2.46
3.32
4.28
5.24
5.96
6.30
6.21
5.73
5.03
4.22
3.28
2.05
0.31
-2.09
-5.07
-8.29
-11.33
-13.76
-15.38
-16.22
-16.46
-16.32
-15.94
-15.32
-14.36
-13.00
-11.31
-9.46
-7.69
-6.15
-4.87
-3.74
-2.60
-1.33
0.02
1.24
2.03
2.05
1.16
-0.61
-2.98
-5.48
-7.67
-9.18
-9.84
-9.68
-8.81
-7.31
-5.20
-2.51
0.59
3.73
6.39
8.14
8.78
8.48
7.66
6.77
6.02
5.35
4.52
3.34
1.85
0.30
-0.97
-1.75
-2.12
-2.30
-2.50
-2.76
-2.82
-2.34
-1.10
0.73
2.65
4.03
4.36
3.66
2.32
0.97
0.11
-0.13
-0.01
0.05
-0.19
-0.71
-1.21
-1.43
-1.28
-0.97
-0.86
-1.15
-1.72
-2.16
-2.03
-1.12
0.35
1.80
2.57
2.22
0.77
-1.32
-3.47
-5.18
-6.28
-6.91
-7.35
-7.80
-8.29
-8.63
-8.64
-8.22
-7.44
-6.45
-5.43
-4.46
-3.52
-2.63
-1.82
-1.22
-1.02
-1.30
-1.98
-2.83
-3.48
-3.67
-3.33
-2.66
-2.03
-1.81
-2.12
-2.81
-3.55
-3.96
-3.83
-3.20
-2.30
-1.45
-0.90
-0.72
-0.89
-1.25
-1.59
-1.69
-1.40
-0.73
0.16
0.96
1.41
1.38
0.99
0.49
0.09
-0.14
-0.31
-0.64
-1.22
-2.02
-2.85
-3.52
-3.91
-4.08
-4.13
-4.13
-4.07
-3.87
-3.52
-3.18
-3.10
-3.50
-4.49
-5.85
-7.18
-8.09
-8.37
-8.07
-7.53
-7.17
-7.22
-7.69
-8.32
-8.78
-8.80
-8.29
-7.38
-6.30
-5.26
-4.38
-3.57
-2.67
-1.52
-0.11
1.43
2.83
3.84
4.34
4.45
4.44
4.58
5.01
5.66
6.31
6.74
6.88
6.85
6.88
7.19
7.85
8.81
9.90
10.98
11.88
12.49
12.72
12.55
12.10
11.58
11.31
11.49
12.12
12.99
13.76
14.17
14.19
14.07
14.29
15.41
17.84
21.76
27.01
33.16
39.59
45.78
51.45
56.71
61.92
67.46
73.45
79.63
85.49
90.53
94.60
97.97
101.19
104.73
108.71
112.81
116.40
118.94
120.19
120.36
119.93
119.50
119.62
120.72
123.05
126.49
130.21
132.56
131.17
123.61
108.25
85.17
56.41
25.38
-4.32
-30.37
-52.49
-72.44
-93.00
-116.47
-143.36
-171.89
-198.45
-218.79
-229.37
-228.46
-216.36
-195.12
-167.89
-138.34
-110.30
-87.41
-72.53
-67.03
-70.26
-79.49
-90.68
-99.73
-103.89
-102.48
-96.70
-88.74
-80.69
-73.87
-68.72
-65.27
-63.57
-63.93
-66.75
-72.09
-79.34
-87.16
-93.71
-97.21
-96.49
-91.25
-82.11
-70.31
-57.22
-43.95
-31.17
-19.05
-7.44
3.89
15.17
26.53
38.03
49.68
61.36
72.81
83.65
93.29
101.12
106.60
109.50
109.94
108.37
105.36
101.23
95.90
88.84
79.32
66.87
51.71
34.83
17.90
2.70
-9.27
-17.16
-20.81
-20.64
-17.45
-12.34
-6.56
-1.48
1.73
2.34
0.32
-3.61
-8.21
-12.16
-14.57
-15.25
-14.75
-14.02
-13.98
-15.11
-17.36
-20.22
-23.12
-25.77
-28.28
-31.03
-34.36
-38.21
-42.01
-44.93
-46.20
-45.54
-43.26
-40.08
-36.71
-33.58
-30.68
-27.82
-24.86
-21.95
-19.43
-17.58
-16.41
-15.50
-14.24
-12.08
-8.79
-4.59
-0.02
4.28
7.77
10.20
11.55
11.98
11.74
11.06
10.03
8.67
6.95
4.80
2.24
-0.74
-4.15
-8.03
-12.38
-17.02
-21.54
-25.36
-27.91
-28.85
-28.24
-26.49
-24.24
-22.15
-20.76
-20.34
-20.93
-22.32
-24.03
-25.49
-26.08
-25.26
-22.74
-18.43
-12.51
-5.34
2.48
10.28
17.38
23.32
27.98
31.54
34.47
37.13
39.67
41.97
43.74
44.62
44.46
43.19
40.91
37.79
34.05
30.00
25.96
22.22
18.99
16.31
14.10
12.21
10.58
9.14
7.88
6.83
6.00
5.38
4.91
4.52
4.08
3.43
2.52
1.40
0.31
-0.48
-0.73
-0.32
0.64
1.91
3.17
4.14
4.66
4.72
4.39
3.90
3.52
3.56
4.17
5.35
6.79
8.09
8.85
8.81
8.00
6.66
5.15
3.86
2.99
2.64
2.71
2.96
3.12
2.92
2.23
1.10
-0.23
-1.39
-2.00
-1.88
-1.04
0.34
2.00
3.65
5.07
6.07
6.50
6.25
5.26
3.60
1.43
-0.98
-3.40
-5.63
-7.57
-9.17
-10.31
-10.83
-10.51
-9.23
-7.03
-4.23
-1.30
1.21
2.85
3.47
3.19
2.31
1.16
-0.05
-1.23
-2.36
-3.37
-4.12
-4.50
-4.50
-4.33
-4.33
-4.79
-5.81
-7.19
-8.53
-9.42
-9.60
-9.09
-8.05
-6.73
-5.30
-3.87
-2.51
-1.32
-0.42
0.15
0.42
0.57
0.84
1.39
2.23
3.18
3.99
4.45
4.52
4.32
4.07
3.94
3.96
4.09
4.22
4.31
4.40
4.58
4.92
5.39
5.83
6.02
5.80
5.14
4.19
3.27
2.67
2.58
3.02
3.74
4.38
4.63
4.30
3.39
2.04
0.47
-1.13
-2.57
-3.67
-4.26
-4.23
-3.65
-2.76
-1.91
-1.45
-1.48
-1.86
-2.31
-2.48
-2.20
-1.52
-0.62
0.30
1.15
1.92
2.68
3.43
4.08
4.45
4.46
4.17
3.79
3.63
3.82
4.32
4.88
5.13
4.85
4.00
2.81
1.58
0.53
-0.25
-0.84
-1.34
-1.81
-2.25
-2.62
-2.90
-3.15
-3.40
-3.64
-3.70
-3.41
-2.62
-1.40
-0.02
1.08
1.55
1.25
0.28
-1.03
-2.35
-3.43
-4.14
-4.51
-4.58
-4.43
-4.15
-3.85
-3.66
-3.64
-3.77
-3.90
-3.84
-3.45
-2.71
-1.68
-0.56
0.47
1.28
1.77
1.97
1.97
1.98
2.18
2.65
3.35
4.14
4.87
5.48
5.98
6.46
6.96
7.44
7.83
8.13
8.41
8.79
9.32
9.90
10.32
10.34
9.90
9.19
8.56
8.37
8.77
9.57
10.31
10.38
9.27
6.82
3.24
-0.94
-5.16
-9.00
-12.24
-14.79
-16.55
-17.41
-17.29
-16.27
-14.75
-13.28
-12.35
-12.13
-12.39
-12.59
-12.25
-11.16
-9.47
-7.53
-5.59
-3.68
-1.61
0.79
3.49
6.21
8.54
10.20
11.15
11.59
11.78
11.81
11.58
10.84
9.38
7.18
4.47
1.65
-0.85
-2.76
-4.03
-4.80
-5.27
-5.57
-5.76
-5.79
-5.67
-5.47
-5.39
-5.56
-5.98
-6.50
-6.86
-6.90
-6.61
-6.18
-5.81
-5.67
-5.77
-6.08
-6.54
-7.13
-7.85
-8.65
-9.38
-9.83
-9.84
-9.31
-8.28
-6.86
-5.24
-3.61
-2.17
-1.14
-0.64
-0.75
-1.37
-2.32
-3.35
-4.29
-5.04
-5.61
-6.07
-6.47
-6.83
-7.15
-7.39
-7.57
-7.70
-7.76
-7.77
-7.70
-7.57
-7.44
-7.41
-7.53
-7.80
-8.09
-8.22
-8.04
-7.54
-6.82
-6.09
-5.46
-4.95
-4.46
-3.79
-2.81
-1.54
-0.15
1.13
2.11
2.73
3.09
3.31
3.42
3.39
3.11
2.51
1.66
0.80
0.18
0.03
0.33
0.90
1.45
1.69
1.51
1.01
0.37
-0.19
-0.53
-0.60
-0.47
-0.30
-0.27
-0.50
-0.98
-1.57
-2.01
-2.05
-1.54
-0.53
0.78
2.10
3.21
3.98
4.35
4.27
3.71
2.69
1.42
0.30
-0.25
0.02
1.05
2.43
3.68
4.47
4.74
4.67
4.50
4.32
4.10
3.71
3.15
2.54
2.15
2.12
2.43
2.90
3.26
3.33
3.06
2.55
1.96
1.45
1.16
1.13
1.36
1.79
2.26
2.59
2.62
2.26
1.52
0.47
-0.76
-2.06
-3.26
-4.14
-4.45
-3.96
-2.63
-0.65
1.53
3.40
4.57
4.91
4.56
3.80
2.91
2.01
1.18
0.45
-0.00
-0.00
0.55
1.57
2.74
3.68
4.05
3.76
2.91
1.72
0.50
-0.50
-1.10
-1.19
-0.80
-0.05
0.80
1.47
1.74
1.55
0.99
0.26
-0.53
-1.29
-1.95
-2.37
-2.33
-1.60
-0.10
1.97
4.17
6.03
7.16
7.46
7.06
6.27
5.33
4.39
3.49
2.68
2.11
1.99
2.42
3.39
4.63
5.79
6.54
6.73
6.43
5.84
5.20
4.68
4.36
4.20
4.12
4.07
4.00
3.94
3.90
3.85
3.69
3.30
2.54
1.47
0.21
-1.03
-2.06
-2.83
-3.41
-3.84
-4.13
-4.19
-3.90
-3.28
-2.52
-1.91
-1.73
-2.03
-2.65
-3.19
-3.31
-2.82
-1.78
-0.51
0.63
1.34
1.55
1.37
1.03
0.77
0.67
0.71
0.81
0.92
1.02
1.15
1.33
1.46
1.40
0.98
0.11
-1.13
-2.53
-3.82
-4.72
-5.14
-5.14
-4.95
-4.77
-4.74
-4.83
-4.88
-4.74
-4.34
-3.69
-2.87
-1.95
-0.93
0.21
1.45
2.69
3.77
4.65
5.46
6.47
7.98
10.05
12.42
14.58
16.04
16.60
16.48
16.20
16.30
16.98
18.01
18.81
18.82
17.81
16.11
14.50
13.90
14.95
17.73
21.63
25.62
28.67
30.07
29.72
28.09
26.04
24.58
24.71
27.23
32.44
39.61
46.49
49.50
44.71
29.38
3.45
-29.91
-65.12
-95.94
-117.53
-127.66
-126.70
-116.85
-100.88
-81.41
-60.67
-40.61
-23.01
-9.24
0.02
5.03
6.92
7.26
7.61
8.99
11.64
15.01
18.12
19.94
19.91
18.08
15.13
12.03
9.60
8.20
7.66
7.43
6.97
6.04
4.80
3.70
3.25
3.71
4.97
6.61
8.06
8.90
8.94
8.32
7.29
6.15
5.08
4.10
3.12
2.04
0.81
-0.51
-1.81
-2.93
-3.72
-4.10
-4.13
-3.93
-3.67
-3.45
-3.32
-3.20
-2.98
-2.55
-1.92
-1.19
-0.50
0.04
0.38
0.56
0.63
0.63
0.59
0.59
0.70
1.08
1.87
3.11
4.69
6.39
7.91
8.98
9.47
9.40
8.93
8.24
7.51
6.86
6.35
6.03
5.90
5.99
6.29
6.74
7.21
7.52
7.53
7.14
6.38
5.33
4.18
3.15
2.40
1.98
1.78
1.61
1.22
0.52
-0.38
-1.19
-1.56
-1.35
-0.66
0.16
0.68
0.65
0.06
-0.88
-1.86
-2.67
-3.27
-3.76
-4.29
-4.97
-5.79
-6.67
-7.48
-8.18
-8.77
-9.31
-9.81
-10.21
-10.35
-10.07
-9.32
-8.24
-7.11
-6.27
-5.94
-6.12
-6.65
-7.24
-7.67
-7.78
-7.53
-6.93
-6.02
-4.87
-3.55
-2.17
-0.85
0.34
1.34
2.10
2.57
2.68
2.30
1.41
0.11
-1.36
-2.64
-3.41
-3.50
-2.98
-2.10
-1.23
-0.64
-0.52
-0.88
-1.56
-2.35
-3.04
-3.45
-3.48
-3.17
-2.62
-1.98
-1.45
-1.12
-0.99
-1.03
-1.14
-1.31
-1.49
-1.61
-1.55
-1.17
-0.43
0.55
1.45
1.99
2.02
1.62
1.07
0.64
0.44
0.33
0.14
-0.25
-0.74
-1.09
-1.01
-0.41
0.57
1.63
2.42
2.75
2.58
2.04
1.34
0.66
0.18
-0.03
0.00
0.16
0.27
0.23
-0.00
-0.37
-0.80
-1.27
-1.82
-2.44
-3.05
-3.53
-3.68
-3.37
-2.55
-1.28
0.34
2.20
4.14
6.02
7.61
8.70
9.17
9.07
8.59
8.02
7.58
7.26
6.94
6.45
5.67
4.63
3.42
2.17
0.93
-0.26
-1.37
-2.35
-3.08
-3.43
-3.31
-2.74
-1.84
-0.80
0.15
0.85
1.19
1.16
0.87
0.48
0.12
-0.19
-0.57
-1.16
-1.96
-2.80
-3.39
-3.53
-3.20
-2.68
-2.32
-2.39
-2.86
-3.48
-3.85
-3.66
-2.88
-1.71
-0.49
0.45
0.92
0.88
0.44
-0.25
-1.02
-1.76
-2.34
-2.70
-2.77
-2.59
-2.25
-1.88
-1.67
-1.73
-2.06
-2.52
-2.87
-2.85
-2.31
-1.27
0.13
1.66
3.13
4.37
5.37
6.17
6.84
7.40
7.75
7.73
7.21
6.18
4.82
3.34
1.95
0.77
-0.14
-0.76
-1.00
-0.76
-0.01
1.11
2.29
3.17
3.52
3.29
2.64
1.74
0.74
-0.32
-1.44
-2.53
-3.42
-3.96
-4.03
-3.67
-3.03
-2.30
-1.70
-1.40
-1.50
-2.06
-2.97
-4.07
-5.06
-5.69
-5.79
-5.33
-4.45
-3.37
-2.35
-1.63
-1.31
-1.40
-1.76
-2.20
-2.52
-2.72
-2.92
-3.43
-4.50
-6.25
-8.56
-11.06
-13.34
-15.03
-15.97
-16.27
-16.22
-16.16
-16.39
-17.00
-17.85
-18.67
-19.19
-19.20
-18.63
-17.50
-15.86
-13.77
-11.32
-8.63
-5.91
-3.39
-1.24
0.47
1.80
2.93
4.05
5.24
6.44
7.43
7.90
7.64
6.63
5.13
3.61
2.60
2.38
2.93
3.91
4.88
5.51
5.76
5.76
5.76
5.90
6.16
6.42
6.53
6.47
6.29
6.09
6.00
5.99
5.99
5.90
5.66
5.28
4.78
4.17
3.41
2.46
1.24
-0.23
-1.91
-3.69
-5.32
-6.52
-7.00
-6.62
-5.45
-3.82
-2.12
-0.73
0.20
0.84
1.46
2.30
3.41
4.63
5.65
6.26
6.38
6.09
5.56
5.01
4.57
4.33
4.30
4.43
4.69
4.99
5.30
5.55
5.66
5.55
5.15
4.42
3.43
2.36
1.39
0.70
0.39
0.46
0.82
1.34
1.79
1.95
1.66
0.81
-0.52
-2.12
-3.65
-4.81
-5.40
-5.40
-4.94
-4.21
-3.41
-2.61
-1.88
-1.28
-0.88
-0.75
-0.84
-0.99
-0.95
-0.50
0.44
1.75
3.18
4.47
5.39
5.84
5.82
5.41
4.71
3.95
3.35
3.14
3.38
3.95
4.61
5.09
5.27
5.20
5.05
5.01
5.15
5.43
5.68
5.79
5.69
5.43
5.08
4.71
4.33
3.90
3.37
2.67
1.79
0.74
-0.36
-1.32
-1.95
-2.16
-2.01
-1.75
-1.72
-2.15
-3.15
-4.51
-5.84
-6.68
-6.67
-5.66
-3.78
-1.36
1.18
3.47
5.30
6.63
7.54
8.21
8.79
9.40
10.10
10.95
11.95
13.05
14.16
15.14
15.86
16.25
16.30
16.06
15.61
14.96
14.13
13.11
11.95
10.75
9.69
8.88
8.34
7.97
7.53
6.76
5.46
3.54
1.05
-1.81
-4.74
-7.39
-9.48
-10.86
-11.50
-11.62
-11.55
-11.62
-12.05
-12.87
-13.89
-14.80
-15.24
-15.02
-14.08
-12.57
-10.73
-8.77
-6.78
-4.78
-2.77
-0.84
0.88
2.24
3.12
3.58
3.76
3.86
4.03
4.28
4.58
4.82
5.01
5.16
5.35
5.57
5.70
5.58
5.03
3.99
2.54
0.87
-0.73
-2.00
-2.75
-2.99
-2.83
-2.56
-2.50
-2.87
-3.67
-4.64
-5.34
-5.46
-4.91
-3.96
-3.06
-2.59
-2.66
-3.03
-3.37
-3.40
-3.01
-2.31
-1.40
-0.32
0.95
2.43
4.01
5.43
6.39
6.71
6.38
5.64
4.79
4.13
3.80
3.78
3.91
4.01
3.91
3.57
3.06
2.48
1.96
1.55
1.25
1.09
1.02
1.00
0.92
0.69
0.20
-0.58
-1.54
-2.46
-3.13
-3.42
-3.41
-3.32
-3.48
-4.16
-5.44
-7.18
-9.08
-10.72
-11.72
-11.84
-10.97
-9.14
-6.53
-3.37
0.07
3.46
6.51
8.95
10.59
11.43
11.56
11.18
10.50
9.63
8.65
7.59
6.54
5.63
4.96
4.59
4.48
4.58
4.86
5.33
6.06
7.04
8.09
8.93
9.24
8.83
7.77
6.27
4.68
3.24
1.99
0.83
-0.38
-1.76
-3.25
-4.71
-5.99
-6.99
-7.72
-8.26
-8.68
-8.92
-8.87
-8.37
-7.36
-6.00
-4.50
-3.09
-1.87
-0.76
0.38
1.60
2.81
3.88
4.68
5.17
5.38
5.38
5.20
4.85
4.37
3.88
3.53
3.37
3.37
3.37
3.18
2.76
2.15
1.54
1.10
0.89
0.83
0.80
0.69
0.42
-0.06
-0.76
-1.65
-2.64
-3.61
-4.41
-4.94
-5.18
-5.19
-5.08
-4.96
-4.87
-4.80
-4.65
-4.29
-3.62
-2.58
-1.23
0.31
1.86
3.34
4.70
5.97
7.17
8.24
9.11
9.66
9.82
9.64
9.30
9.01
8.97
9.26
9.78
10.32
10.60
10.37
9.50
8.01
6.13
4.17
2.48
1.27
0.64
0.47
0.53
0.53
0.23
-0.49
-1.59
-2.93
-4.29
-5.47
-6.38
-7.01
-7.44
-7.73
-7.92
-7.99
-7.89
-7.59
-7.13
-6.53
-5.81
-4.90
-3.76
-2.40
-0.96
0.32
1.18
1.48
1.24
0.67
-0.02
-0.68
-1.29
-1.90
-2.61
-3.44
-4.31
-5.07
-5.54
-5.63
-5.37
-4.88
-4.44
-4.26
-4.46
-5.00
-5.66
-6.20
-6.50
-6.57
-6.56
-6.64
-6.92
-7.37
-7.94
-8.53
-9.10
-9.58
-9.87
-9.82
-9.32
-8.33
-7.01
-5.65
-4.55
-3.89
-3.67
-3.71
-3.71
-3.42
-2.74
-1.74
-0.63
0.37
1.03
1.29
1.20
0.91
0.58
0.31
0.18
0.23
0.54
1.16
2.09
3.21
4.34
5.29
5.91
6.18
6.12
5.77
5.14
4.25
3.15
1.90
0.60
-0.66
-1.83
-2.85
-3.64
-4.11
-4.19
-3.94
-3.61
-3.46
-3.68
-4.22
-4.73
-4.76
-3.96
-2.26
0.15
2.90
5.61
8.04
10.09
11.72
12.90
13.58
13.67
13.16
12.10
10.75
9.49
8.84
9.22
10.80
13.39
16.41
19.15
20.97
21.58
21.09
19.91
18.60
17.69
17.70
19.08
22.02
26.06
29.72
30.68
26.36
15.07
-3.08
-25.82
-49.35
-69.45
-82.87
-88.06
-85.26
-75.93
-62.08
-45.73
-28.72
-12.74
0.83
11.07
17.86
21.99
25.00
28.72
34.47
42.08
49.50
53.17
49.25
35.39
11.96
-17.62
-47.96
-73.52
-90.41
-97.27
-95.09
-86.19
-73.06
-57.66
-41.39
-25.34
-10.56
1.91
11.31
17.45
20.71
22.02
22.46
22.87
23.61
24.45
24.82
24.13
22.18
19.26
16.11
13.56
12.18
12.04
12.72
13.56
13.95
13.60
12.61
11.35
10.30
9.83
10.00
10.72
11.64
12.40
12.71
12.48
11.80
10.90
10.04
9.39
8.98
8.77
8.64
8.50
8.34
8.14
7.91
7.61
7.22
6.73
6.18
5.60
4.98
4.25
3.30
2.07
0.58
-1.00
-2.49
-3.73
-4.68
-5.38
-5.92
-6.31
-6.50
-6.41
-6.05
-5.56
-5.19
-5.17
-5.57
-6.28
-7.05
-7.60
-7.78
-7.54
-6.93
-6.05
-5.01
-3.86
-2.63
-1.43
-0.36
0.40
0.72
0.51
-0.18
-1.22
-2.43
-3.63
-4.68
-5.49
-6.04
-6.27
-6.18
-5.77
-5.05
-4.12
-3.09
-2.16
-1.51
-1.30
-1.54
-2.09
-2.72
-3.19
-3.40
-3.44
-3.57
-4.01
-4.82
-5.85
-6.82
-7.47
-7.66
-7.46
-6.99
-6.38
-5.67
-4.88
-4.05
-3.30
-2.75
-2.35
-1.93
-1.23
-0.07
1.47
3.10
4.41
5.06
5.01
4.48
3.82
3.31
3.04
2.91
2.74
2.45
2.05
1.70
1.53
1.52
1.52
1.25
0.52
-0.66
-1.98
-3.07
-3.60
-3.48
-2.97
-2.48
-2.36
-2.72
-3.34
-3.85
-3.94
-3.55
-2.85
-2.19
-1.81
-1.75
-1.87
-1.94
-1.83
-1.52
-1.11
-0.66
-0.11
0.68
1.73
2.93
4.04
4.82
5.16
5.16
5.07
5.03
5.09
5.04
4.69
3.99
3.13
2.48
2.30
2.61
3.12
3.39
3.09
2.15
0.84
-0.44
-1.35
-1.76
-1.80
-1.67
-1.56
-1.47
-1.35
-1.13
-0.82
-0.56
-0.51
-0.80
-1.46
-2.42
-3.56
-4.65
-5.42
-5.63
-5.09
-3.80
-1.95
0.09
1.88
3.05
3.40
2.94
1.83
0.40
-0.92
-1.78
-1.95
-1.43
-0.42
0.72
1.62
2.08
2.01
1.53
0.83
0.13
-0.37
-0.57
-0.42
0.01
0.60
1.17
1.56
1.66
1.43
0.95
0.33
-0.25
-0.65
-0.75
-0.55
-0.10
0.52
1.27
2.19
3.33
4.71
6.23
7.69
8.86
9.58
9.84
9.72
9.35
8.89
8.42
7.99
7.58
7.18
6.76
6.31
5.89
5.56
5.41
5.45
5.60
5.68
5.48
4.89
3.95
2.84
1.81
1.06
0.66
0.50
0.35
-0.04
-0.89
-2.29
-4.20
-6.47
-8.79
-10.83
-12.30
-13.04
-13.10
-12.68
-12.01
-11.23
-10.41
-9.52
-8.57
-7.67
-6.94
-6.49
-6.28
-6.17
-6.01
-5.79
-5.61
-5.64
-5.91
-6.20
-6.17
-5.48
-4.09
-2.33
-0.78
0.01
-0.15
-1.10
-2.34
-3.45
-4.16
-4.45
-4.43
-4.11
-3.40
-2.17
-0.45
1.53
3.34
4.53
4.86
4.31
3.08
1.45
-0.30
-1.90
-3.10
-3.66
-3.42
-2.38
-0.75
1.11
2.82
4.09
4.80
5.04
4.96
4.74
4.46
4.12
3.68
3.12
2.47
1.81
1.25
0.89
0.77
0.81
0.85
0.69
0.16
-0.78
-1.98
-3.19
-4.11
-4.60
-4.68
-4.52
-4.30
-4.18
-4.18
-4.26
-4.29
-4.19
-3.84
-3.16
-2.09
-0.63
1.09
2.89
4.59
6.15
7.67
9.35
11.32
13.48
15.47
16.86
17.33
16.85
15.68
14.18
12.66
11.27
9.97
8.71
7.49
6.37
5.46
4.79
4.24
3.65
2.86
1.85
0.73
-0.29
-1.03
-1.38
-1.41
-1.28
-1.24
-1.47
-2.00
-2.76
-3.57
-4.28
-4.78
-5.06
-5.18
-5.26
-5.38
-5.61
-5.90
-6.16
-6.27
-6.16
-5.87
-5.50
-5.18
-4.96
-4.78
-4.48
-3.95
-3.10
-2.04
-0.95
0.00
0.68
1.09
1.32
1.50
1.69
1.93
2.17
2.35
2.45
2.49
2.53
2.61
2.76
2.94
3.12
3.25
3.28
3.24
3.21
3.31
3.69
4.39
5.30
6.17
6.70
6.68
6.15
5.39
4.77
4.55
4.73
5.07
5.20
4.90
4.08
2.88
1.51
0.21
-0.85
-1.58
-1.97
-2.05
-1.88
-1.58
-1.25
-0.97
-0.79
-0.71
-0.65
-0.50
-0.14
0.50
1.35
2.22
2.80
2.86
2.34
1.39
0.32
-0.58
-1.17
-1.51
-1.75
-2.10
-2.65
-3.36
-4.07
-4.58
-4.74
-4.50
-3.95
-3.25
-2.61
-2.15
-1.86
-1.58
-1.20
-0.69
-0.20
0.02
-0.19
-0.73
-1.34
-1.63
-1.35
-0.52
0.57
1.50
1.96
1.90
1.52
1.13
1.01
1.26
1.81
2.55
3.36
4.17
4.96
5.70
6.30
6.67
6.80
6.80
6.96
7.60
8.94
10.93
13.31
15.62
17.50
18.76
19.42
19.66
19.63
19.34
18.74
17.73
16.33
14.68
12.99
11.39
9.99
8.91
8.28
8.16
8.36
8.29
7.17
4.43
0.12
-4.81
-8.89
-10.69
-9.56
-5.94
-1.10
3.54
6.98
8.91
9.63
9.60
9.17
8.50
7.73
7.02
6.49
6.10
5.54
4.36
2.19
-0.84
-4.01
-6.04
-5.60
-1.88
4.95
13.67
22.57
30.28
36.52
42.28
49.35
59.29
72.47
87.63
102.09
112.59
116.30
111.44
97.18
73.33
40.18
-1.19
-47.99
-95.21
-135.86
-162.67
-170.35
-157.74
-128.61
-90.50
-52.28
-21.30
-1.69
5.87
3.19
-6.66
-20.20
-34.02
-45.02
-51.30
-53.19
-53.87
-58.36
-71.14
-93.45
-121.75
-148.53
-165.09
-164.96
-146.03
-110.79
-64.89
-15.05
32.60
73.38
104.23
123.77
132.28
131.60
124.61
114.48
103.64
93.18
82.77
71.14
56.76
38.56
16.70
-7.20
-30.26
-49.32
-62.07
-67.88
-67.94
-64.40
-59.37
-54.21
-49.30
-44.49
-39.35
-33.36
-25.88
-16.26
-4.26
9.28
22.15
31.17
33.37
27.43
14.61
-1.61
-16.91
-27.86
-33.15
-33.53
-31.01
-27.54
-24.31
-21.67
-19.53
-17.80
-16.41
-15.06
-13.10
-9.68
-4.16
3.43
12.29
21.13
28.66
33.89
36.28
35.71
32.36
26.67
19.28
10.82
1.75
-7.82
-17.90
-28.37
-38.59
-47.32
-53.06
-54.67
-51.96
-45.93
-38.48
-31.71
-26.98
-24.18
-21.80
-17.58
-9.78
1.69
14.89
26.47
32.96
32.40
25.27
14.38
3.65
-3.53
-5.53
-2.93
2.07
6.64
8.44
6.25
0.26
-8.19
-16.95
-23.75
-26.89
-25.65
-20.48
-12.63
-3.60
5.36
13.49
20.31
25.27
27.55
26.24
20.77
11.42
-0.56
-13.24
-24.57
-32.89
-37.22
-37.15
-32.63
-23.93
-11.65
3.03
18.31
32.07
42.38
48.21
49.81
48.65
46.93
46.73
49.42
55.28
63.71
73.47
83.16
91.46
97.38
100.41
100.62
98.67
95.62
92.61
90.44
89.49
89.87
91.73
95.53
102.07
112.08
125.78
142.53
160.90
179.02
195.29
208.77
219.50
228.48
237.44
248.43
263.05
281.81
303.31
324.28
340.31
347.12
341.82
323.76
294.65
258.03
218.32
179.71
145.31
116.51
92.92
72.61
52.82
30.97
5.52
-23.43
-54.17
-83.89
-109.68
-129.42
-142.74
-151.35
-158.70
-168.92
-185.14
-208.17
-235.94
-264.19
-287.43
-300.21
-298.37
-280.19
-247.43
-205.91
-164.98
-135.06
-123.67
-131.37
-150.10
-165.58
-163.04
-134.04
-80.61
-14.45
48.27
93.69
115.24
114.14
96.28
67.98
33.45
-4.60
-42.88
-75.72
-96.07
-98.76
-84.05
-58.86
-34.82
-23.93
-33.61
-64.11
-108.78
-157.18
-199.22
-228.44
-243.43
-247.03
-244.32
-240.04
-236.93
-235.21
-233.45
-230.23
-225.89
-222.96
-225.23
-235.38
-252.45
-271.01
-283.02
-281.67
-265.19
-238.53
-211.09
-191.94
-185.23
-188.64
-195.73
-200.51
-200.92
-199.07
-198.24
-199.27
-199.15
-192.79
-176.52
-150.59
-118.98
-86.73
-57.12
-30.27
-3.97
24.20
55.23
88.52
122.90
157.85
194.13
233.50
277.83
327.97
382.67
437.84
487.09
523.28
541.02
539.07
521.01
493.72
464.31
436.97
411.59
384.97
353.78
317.31
278.27
241.24
209.79
184.29
161.66
137.18
107.18
70.70
29.57
-13.31
-55.82
-97.47
-138.71
-179.44
-217.97
-251.22
-276.06
-290.95
-296.57
-295.42
-290.63
-284.78
-279.48
-275.55
-273.42
-273.39
-275.52
-279.55
-285.02
-291.45
-298.43
-305.45
-311.80
-316.61
-319.35
-320.24
-320.32
-320.74
-321.81
-322.20
-319.16
-309.60
-291.49
-264.82
-231.44
-194.15
-155.69
-118.19
-83.15
-51.67
-24.40
-1.31
18.80
38.14
59.44
85.04
116.20
152.86
194.22
239.30
287.04
335.95
383.57
426.44
461.12
485.61
500.54
509.05
515.46
523.09
532.58
541.51
545.51
540.51
524.55
498.64
466.15
431.28
397.52
366.86
339.88
316.32
295.82
278.15
263.07
249.88
236.98
222.09
202.82
177.53
145.99
109.50
70.35
30.96
-6.93
-42.76
-76.98
-110.78
-145.61
-182.82
-223.10
-265.93
-309.04
-348.47
-379.37
-397.51
-400.89
-390.67
-370.72
-346.12
-321.35
-299.17
-280.48
-264.98
-251.82
-239.91
-227.79
-213.67
-195.92
-173.91
-148.55
-122.26
-98.01
-78.28
-64.33
-56.01
-52.10
-50.50
-48.69
-44.24
-35.73
-23.66
-10.49
0.28
6.05
6.63
4.33
2.55
3.81
8.47
15.21
22.53
30.09
38.69
49.17
60.93
71.81
79.37
82.73
83.46
84.73
89.07
96.38
103.59
106.14
100.23
84.54
60.20
29.74
-4.22
-39.42
-73.52
-103.57
-126.21
-138.71
-140.51
-133.95
-123.75
-115.37
-113.07
-118.69
-131.45
-148.93
-167.86
-184.90
-196.90
-201.03
-195.21
-179.46
-157.04
-134.78
-121.50
-124.63
-146.40
-181.73
-219.26
-245.30
-249.13
-226.82
-181.99
-123.56
-61.67
-4.47
43.40
80.26
106.29
122.76
132.21
138.88
148.12
165.13
193.01
231.36
275.81
319.09
353.38
373.20
377.30
368.78
353.17
335.28
316.83
296.48
272.20
244.00
215.38
191.76
177.00
170.43
166.29
156.36
134.19
98.47
53.44
6.68
-34.46
-65.81
-87.28
-102.06
-115.01
-131.01
-153.65
-184.33
-221.53
-260.99
-296.74
-322.86
-335.06
-331.61
-313.19
-282.25
-242.27
-197.40
-152.21
-111.42
-79.15
-58.18
-49.18
-50.48
-58.37
-68.16
-75.22
-75.99
-68.58
-52.99
-31.24
-6.88
15.82
32.99
42.25
43.36
37.98
28.94
19.09
10.43
4.05
0.34
-0.40
2.33
9.11
19.94
33.76
48.33
60.69
68.13
68.97
62.98
51.36
36.26
20.32
6.01
-4.80
-11.13
-13.01
-11.17
-6.64
-0.32
7.19
15.41
23.67
30.99
36.21
38.47
37.63
34.43
30.26
26.58
24.33
23.70
24.10
24.51
23.94
21.78
17.98
12.98
7.51
2.33
-1.90
-4.73
-5.82
-4.96
-2.10
2.59
8.54
14.76
19.81
22.06
20.00
12.79
0.55
-15.41
-32.68
-47.94
-57.70
-59.22
-51.64
-36.63
-18.19
-1.75
7.57
6.78
-3.79
-20.34
-36.80
-47.30
-48.41
-40.44
-26.96
-12.86
-2.19
3.28
3.97
1.42
-3.14
-9.34
-17.47
-27.71
-39.84
-53.78
-70.58
-92.77
-123.21
-162.83
-208.72
-254.19
-291.36
-314.69
-323.47
-321.48
-314.34
-305.92
-296.40
-283.00
-262.77
-235.22
-203.06
-170.97
-143.26
-122.17
-107.58
-97.98
-91.49
-86.36
-80.91
-73.27
-61.81
-45.69
-25.16
-1.24
24.85
52.29
80.71
109.70
138.38
165.47
189.98
211.96
232.65
253.99
277.67
304.64
334.92
368.08
403.70
441.05
478.56
513.28
541.30
558.89
564.02
557.10
540.60
517.74
491.08
462.05
431.50
400.65
371.59
346.74
327.67
314.14
304.00
294.15
281.95
266.00
246.14
222.74
195.88
165.09
129.70
89.56
45.60
-0.20
-45.40
-88.05
-127.43
-164.13
-199.60
-235.22
-271.67
-308.89
-346.45
-383.85
-420.39
-454.60
-483.90
-505.01
-514.86
-511.67
-495.45
-467.50
-429.73
-384.04
-332.70
-279.38
-229.78
-190.90
-168.89
-166.22
-179.80
-201.56
-221.39
-231.12
-227.84
-214.44
-197.67
-184.28
-177.79
-177.18
-178.17
-175.72
-166.36
-149.45
-127.44
-105.50
-90.48
-89.07
-105.36
-138.51
-181.99
-225.15
-257.05
-270.53
-264.64
-243.89
-215.05
-183.68
-152.46
-121.86
-92.12
-64.79
-42.27
-26.24
-16.06
-8.61
0.31
14.01
33.50
57.36
82.67
106.81
128.67
149.17
170.99
197.57
231.91
275.07
324.88
375.67
419.24
447.28
454.35
440.08
409.10
369.01
327.09
287.71
251.66
217.54
183.66
149.52
115.88
83.79
53.50
24.29
-4.86
-34.08
-61.71
-84.47
-98.33
-99.77
-87.00
-60.71
-24.00
18.28
60.98
99.86
132.50
158.01
176.14
186.34
187.62
179.38
162.52
139.99
115.97
94.31
76.97
63.56
52.20
41.22
30.42
21.08
14.87
12.39
12.34
12.00
8.52
0.26
-12.49
-27.72
-42.68
-54.80
-62.41
-64.77
-61.92
-54.45
-43.18
-29.23
-14.07
0.46
12.24
19.34
20.70
16.66
8.96
0.16
-7.36
-12.25
-14.47
-14.77
-13.81
-11.46
-6.88
0.72
10.96
21.82
30.29
33.81
31.68
25.78
19.65
16.78
18.75
24.59
31.22
35.13
33.89
26.89
15.10
0.01
-17.16
-35.59
-54.43
-72.12
-86.17
-93.67
-92.37
-81.63
-62.88
-39.22
-14.44
8.05
26.00
38.55
45.90
48.83
48.34
45.32
40.59
34.93
29.04
23.36
18.01
12.57
6.41
-0.77
-8.53
-15.42
-19.47
-18.93
-12.94
-1.97
12.33
27.60
41.36
51.53
56.75
56.63
51.66
43.09
32.51
21.34
10.63
0.88
-7.78
-15.27
-21.43
-25.99
-28.66
-29.17
-27.39
-23.24
-16.94
-9.13
-0.87
6.61
12.39
16.32
19.07
21.69
25.01
29.02
32.84
35.30
35.57
33.69
30.44
26.81
23.23
19.33
14.08
6.49
-3.72
-15.85
-28.35
-39.41
-47.59
-52.29
-53.83
-53.25
-51.82
-50.48
-49.44
-48.11
-45.41
-40.38
-32.83
-23.55
-14.14
-6.31
-1.16
1.24
1.76
1.65
1.96
3.19
5.25
7.85
10.77
14.08
18.03
22.70
27.88
32.91
36.97
39.30
39.58
37.93
34.90
31.32
28.01
25.64
24.53
24.59
25.39
26.32
26.86
26.72
25.95
24.81
23.58
22.37
21.11
19.58
17.55
14.78
11.14
6.56
1.14
-4.78
-10.60
-15.59
-19.14
-20.95
-21.15
-20.14
-18.39
-16.25
-13.84
-11.16
-8.21
-5.11
-2.14
0.41
2.35
3.71
4.71
5.66
6.87
8.44
10.22
11.85
12.91
13.04
12.25
10.90
9.64
9.09
9.58
10.85
12.18
12.62
11.38
8.28
3.78
-1.12
-5.36
-8.23
-9.58
-9.77
-9.36
-8.88
-8.58
-8.52
-8.69
-9.12
-10.01
-11.53
-13.78
-16.55
-19.43
-21.82
-23.24
-23.39
-22.23
-19.88
-16.60
-12.62
-8.21
-3.74
0.42
3.92
6.68
8.92
11.01
13.18
15.21
16.45
16.19
14.17
10.92
7.64
5.64
5.64
7.47
10.18
12.64
14.19
14.79
14.82
14.60
14.06
12.79
10.44
7.17
3.65
0.85
-0.57
-0.61
0.04
0.35
-0.52
-2.88
-6.40
-10.37
-14.00
-16.66
-17.99
-17.89
-16.58
-14.47
-12.07
-9.84
-7.89
-6.05
-3.93
-1.30
1.75
4.82
7.46
9.43
10.82
11.89
12.72
13.15
12.85
11.62
9.61
7.30
5.28
3.94
3.33
3.34
3.90
5.08
6.96
9.37
11.81
13.55
14.15
13.68
12.83
12.45
13.05
14.39
15.54
15.38
13.25
9.29
4.32
-0.62
-4.91
-8.57
-12.09
-15.92
-20.05
-23.91
-26.60
-27.47
-26.45
-24.10
-21.31
-18.78
-16.65
-14.50
-11.63
-7.60
-2.51
2.92
7.65
10.77
11.88
11.25
9.60
7.77
6.33
5.47
5.03
4.73
4.41
4.13
4.05
4.31
4.81
5.26
5.28
4.69
3.55
2.26
1.31
1.02
1.37
1.97
2.26
1.83
0.67
-0.95
-2.59
-4.05
-5.48
-7.23
-9.57
-12.31
-14.78
-16.04
-15.42
-12.90
-9.18
-5.37
-2.43
-0.75
-0.08
0.22
0.72
1.62
2.69
3.49
3.75
3.53
3.20
3.20
3.71
4.54
5.18
5.04
3.74
1.29
-1.88
-5.13
-7.78
-9.39
-9.87
-9.41
-8.40
-7.19
-6.01
-4.94
-4.01
-3.24
-2.71
-2.51
-2.64
-2.95
-3.22
-3.26
-3.05
-2.81
-2.80
-3.27
-4.19
-5.30
-6.22
-6.63
-6.44
-5.78
-4.84
-3.74
-2.44
-0.83
1.08
3.09
4.78
5.73
5.75
5.01
4.03
3.37
3.40
4.17
5.42
6.76
7.88
8.58
8.82
8.56
7.76
6.38
4.48
2.26
0.03
-1.88
-3.24
-3.97
-4.14
-3.99
-3.81
-3.87
-4.29
-4.95
-5.57
-5.79
-5.47
-4.74
-3.98
-3.60
-3.77
-4.27
-4.58
-4.18
-2.80
-0.62
1.87
4.09
5.74
6.80
7.57
8.37
9.35
10.38
11.07
11.03
10.07
8.36
6.42
4.87
4.12
4.19
4.70
5.08
4.93
4.22
3.27
2.58
2.49
3.00
3.77
4.37
4.46
4.03
3.30
2.61
2.18
1.97
1.74
1.24
0.39
-0.65
-1.58
-2.15
-2.41
-2.60
-3.04
-3.83
-4.71
-5.22
-4.91
-3.69
-1.93
-0.25
0.81
1.05
0.69
0.21
0.02
0.24
0.71
1.09
1.10
0.63
-0.20
-1.20
-2.21
-3.21
-4.23
-5.29
-6.29
-7.06
-7.41
-7.23
-6.54
-5.47
-4.28
-3.25
-2.62
-2.54
-2.96
-3.64
-4.25
-4.53
-4.40
-3.95
-3.34
-2.72
-2.17
-1.74
-1.55
-1.78
-2.52
-3.65
-4.76
-5.37
-5.18
-4.35
-3.42
-3.05
-3.62
-4.97
-6.50
-7.49
-7.36
-6.01
-3.83
-1.47
0.42
1.44
1.59
1.24
0.88
0.88
1.26
1.71
1.80
1.23
0.01
-1.52
-2.98
-4.11
-4.81
-5.11
-4.93
-4.12
-2.54
-0.29
2.21
4.42
5.93
6.70
6.99
7.19
7.47
7.66
7.40
6.43
4.79
2.93
1.48
0.86
1.20
2.22
3.47
4.55
5.27
5.64
5.77
5.75
5.51
4.91
3.85
2.31
0.47
-1.31
-2.71
-3.53
-3.81
-3.85
-4.03
-4.65
-5.70
-6.90
-7.84
-8.22
-7.94
-7.20
-6.34
-5.67
-5.34
-5.29
-5.38
-5.46
-5.39
-5.08
-4.46
-3.60
-2.64
-1.84
-1.41
-1.35
-1.48
-1.49
-1.17
-0.51
0.25
0.89
1.31
1.59
1.91
2.31
2.58
2.40
1.59
0.22
-1.31
-2.50
-3.01
-2.80
-2.07
-1.21
-0.52
-0.11
0.06
0.17
0.39
0.82
1.42
2.03
2.46
2.56
2.35
1.97
1.67
1.64
1.89
2.28
2.59
2.65
2.44
2.03
1.53
0.98
0.38
-0.29
-0.95
-1.40
-1.44
-0.98
-0.14
0.75
1.26
1.10
0.24
-1.02
-2.26
-3.11
-3.51
-3.64
-3.87
-4.45
-5.40
-6.44
-7.16
-7.26
-6.74
-5.93
-5.31
-5.24
-5.73
-6.49
-7.02
-6.95
-6.19
-5.02
-3.86
-3.08
-2.78
-2.74
-2.59
-2.05
-1.14
-0.14
0.51
0.52
-0.11
-1.09
-2.03
-2.59
-2.71
-2.54
-2.20
-1.75
-1.09
-0.10
1.09
2.18
2.74
2.56
1.76
0.80
0.21
0.27
0.87
1.51
1.67
1.00
-0.43
-2.30
-4.20
-5.91
-7.39
-8.70
-9.88
-10.79
-11.24
-11.14
-10.60
-10.01
-9.83
-10.40
-11.73
-13.44
-14.81
-15.12
-13.90
-11.14
-7.32
-3.15
0.68
3.76
6.02
7.66
8.86
9.72
10.26
10.49
10.56
10.70
11.15
11.88
12.70
13.27
13.34
12.89
12.10
11.25
10.53
9.98
9.54
9.13
8.65
8.05
7.27
6.27
5.03
3.60
2.04
0.52
-0.82
-1.86
-2.53
-2.83
-2.82
-2.61
-2.32
-2.16
-2.32
-2.99
-4.25
-5.99
-7.85
-9.32
-9.89
-9.32
-7.79
-5.81
-4.05
-3.00
-2.84
-3.39
-4.25
-5.00
-5.36
-5.25
-4.68
-3.79
-2.69
-1.50
-0.25
0.99
2.16
3.16
3.87
4.23
4.30
4.28
4.38
4.71
5.26
5.86
6.38
6.75
7.00
7.20
7.31
7.23
6.80
5.99
4.95
4.02
3.50
3.58
4.17
4.98
5.65
5.96
5.88
5.59
5.32
5.14
4.96
4.56
3.77
2.61
1.36
0.30
-0.40
-0.85
-1.39
-2.32
-3.65
-5.00
-5.86
-5.85
-5.11
-4.19
-3.75
-4.12
-5.11
-6.10
-6.47
-6.03
-5.10
-4.25
-3.97
-4.32
-4.92
-5.27
-5.00
-4.17
-3.12
-2.29
-1.88
-1.80
-1.75
-1.39
-0.57
0.57
1.71
2.47
2.64
2.24
1.55
0.91
0.56
0.56
0.76
0.91
0.81
0.42
-0.20
-0.88
-1.46
-1.79
-1.86
-1.73
-1.59
-1.59
-1.81
-2.16
-2.39
-2.25
-1.66
-0.82
-0.05
0.38
0.45
0.44
0.71
1.46
2.56
3.62
4.21
4.12
3.54
2.87
2.52
2.63
3.09
3.63
3.99
4.06
3.88
3.59
3.28
3.04
2.90
2.85
2.89
2.97
3.04
3.03
2.93
2.72
2.47
2.19
1.88
1.50
0.94
0.20
-0.65
-1.39
-1.80
-1.75
-1.37
-0.97
-0.92
-1.43
-2.39
-3.41
-4.01
-3.91
-3.09
-1.92
-0.83
-0.16
-0.03
-0.32
-0.75
-1.11
-1.21
-1.00
-0.55
-0.02
0.42
0.60
0.45
0.07
-0.36
-0.61
-0.56
-0.25
0.18
0.57
0.87
1.11
1.34
1.52
1.54
1.23
0.50
-0.53
-1.65
-2.58
-3.11
-3.15
-2.78
-2.19
-1.58
-1.14
-0.94
-0.92
-0.97
-0.96
-0.90
-0.94
-1.26
-1.94
-2.90
-3.84
-4.44
-4.48
-4.01
-3.24
-2.43
-1.80
-1.38
-1.14
-0.97
-0.76
-0.39
0.17
0.95
1.88
2.83
3.63
4.12
4.27
4.11
3.75
3.33
2.95
2.69
2.60
2.69
2.88
3.10
3.24
3.29
3.31
3.46
3.88
4.54
5.29
5.81
5.88
5.48
4.81
4.21
3.85
3.65
3.29
2.48
1.18
-0.27
-1.38
-1.72
-1.28
-0.42
0.33
0.63
0.52
0.29
0.25
0.47
0.68
0.53
-0.20
-1.38
-2.67
-3.61
-3.95
-3.77
-3.38
-3.22
-3.57
-4.43
-5.54
-6.49
-6.95
-6.79
-6.18
-5.50
-5.15
-5.34
-6.04
-6.97
-7.79
-8.23
-8.20
-7.84
-7.36
-6.91
-6.53
-6.13
-5.62
-5.01
-4.43
-4.08
-4.04
-4.18
-4.18
-3.71
-2.62
-1.04
0.65
2.10
3.06
3.56
3.81
4.02
4.33
4.76
5.24
5.72
6.14
6.44
6.52
6.26
5.62
4.71
3.74
3.02
2.72
2.80
2.99
2.96
2.48
1.61
0.61
-0.16
-0.49
-0.45
-0.31
-0.36
-0.74
-1.36
-2.07
-2.75
-3.44
-4.22
-5.11
-5.92
-6.42
-6.40
-5.95
-5.37
-5.01
-5.08
-5.46
-5.84
-5.91
-5.56
-4.91
-4.21
-3.62
-3.18
-2.79
-2.31
-1.70
-1.03
-0.42
0.05
0.34
0.53
0.68
0.87
1.14
1.49
1.82
2.06
2.13
2.00
1.73
1.46
1.27
1.25
1.38
1.54
1.56
1.33
0.77
-0.11
-1.25
-2.55
-3.84
-5.00
-5.88
-6.44
-6.66
-6.60
-6.32
-5.91
-5.44
-4.99
-4.62
-4.34
-4.07
-3.71
-3.14
-2.31
-1.30
-0.27
0.55
1.03
1.16
1.07
0.93
0.92
1.11
1.52
2.08
2.73
3.36
3.82
3.94
3.58
2.66
1.33
-0.15
-1.46
-2.34
-2.69
-2.62
-2.38
-2.23
-2.41
-2.97
-3.82
-4.71
-5.35
-5.48
-5.02
-4.04
-2.73
-1.26
0.33
2.05
3.92
5.82
7.52
8.75
9.39
9.50
9.35
9.24
9.34
9.69
10.21
10.82
11.45
12.06
12.56
12.80
12.69
12.19
11.36
10.37
9.43
8.68
8.21
8.01
7.96
7.88
7.51
6.68
5.36
3.75
2.14
0.77
-0.33
-1.39
-2.74
-4.55
-6.66
-8.59
-9.83
-10.10
-9.52
-8.55
-7.68
-7.16
-6.93
-6.69
-6.16
-5.35
-4.48
-3.92
-3.84
-4.16
-4.53
-4.59
-4.20
-3.47
-2.75
-2.30
-2.20
-2.25
-2.13
-1.61
-0.71
0.30
1.07
1.40
1.32
1.07
0.93
1.01
1.20
1.32
1.16
0.61
-0.27
-1.33
-2.35
-3.15
-3.55
-3.54
-3.20
-2.78
-2.54
-2.63
-3.00
-3.39
-3.55
-3.36
-2.94
-2.57
-2.45
-2.54
-2.59
-2.26
-1.45
-0.27
0.98
1.98
2.66
3.15
3.68
4.44
5.35
6.18
6.64
6.58
6.10
5.46
4.97
4.83
5.03
5.43
5.85
6.15
6.32
6.37
6.33
6.23
6.03
5.67
5.07
4.27
3.36
2.49
1.80
1.34
1.01
0.67
0.19
-0.45
-1.15
-1.83
-2.44
-3.11
-3.95
-4.97
-6.01
-6.78
-7.06
-6.82
-6.28
-5.74
-5.38
-5.18
-4.94
-4.42
-3.50
-2.33
-1.16
-0.24
0.31
0.53
0.64
0.81
1.13
1.55
1.91
2.08
2.02
1.83
1.71
1.84
2.29
2.90
3.38
3.43
2.91
1.96
0.91
0.14
-0.13
0.09
0.57
1.06
1.39
1.53
1.50
1.33
1.02
0.58
0.06
-0.37
-0.49
-0.25
0.28
0.86
1.18
1.08
0.58
-0.13
-0.81
-1.32
-1.65
-1.87
-1.99
-1.97
-1.66
-0.95
0.16
1.51
2.89
4.07
4.93
5.44
5.62
5.50
5.06
4.35
3.46
2.53
1.69
1.03
0.50
0.02
-0.49
-1.01
-1.54
-2.04
-2.48
-2.91
-3.37
-3.82
-4.16
-4.22
-3.94
-3.40
-2.89
-2.70
-3.03
-3.79
-4.70
-5.43
-5.77
-5.73
-5.52
-5.27
-5.02
-4.65
-4.08
-3.35
-2.69
-2.39
-2.61
-3.28
-4.09
-4.72
-4.99
-4.97
-4.84
-4.76
-4.72
-4.60
-4.24
-3.60
-2.84
-2.15
-1.71
-1.48
-1.33
-1.12
-0.75
-0.25
0.34
0.99
1.70
2.44
3.12
3.58
3.72
3.56
3.23
2.92
2.76
2.70
2.61
2.39
2.06
1.84
1.92
2.40
3.13
3.82
4.22
4.18
3.81
3.27
2.72
2.18
1.56
0.77
-0.17
-1.11
-1.85
-2.25
-2.37
-2.35
-2.39
-2.56
-2.77
-2.86
-2.67
-2.19
-1.51
-0.79
-0.20
0.19
0.37
0.40
0.37
0.33
0.31
0.32
0.37
0.52
0.83
1.33
1.96
2.60
3.09
3.31
3.27
3.04
2.78
2.61
2.58
2.63
2.65
2.55
2.32
2.00
1.70
1.53
1.55
1.72
1.93
2.00
1.83
1.39
0.78
0.13
-0.41
-0.81
-1.09
-1.32
-1.56
-1.75
-1.81
-1.67
-1.34
-0.95
-0.71
-0.77
-1.13
-1.61
-1.95
-1.91
-1.42
-0.64
0.20
0.91
1.47
1.97
2.53
3.18
3.85
4.42
4.82
5.08
5.27
5.36
5.28
4.88
4.10
3.05
1.98
1.11
0.48
-0.07
-0.82
-1.95
-3.39
-4.92
-6.25
-7.23
-7.96
-8.68
-9.65
-10.99
-12.64
-14.34
-15.77
-16.70
-17.04
-16.91
-16.53
-16.15
-15.93
-15.92
-15.97
-15.96
-15.79
-15.55
-15.42
-15.60
-16.28
-17.45
-18.94
-20.41
-21.42
-21.63
-20.98
-19.83
-18.84
-18.65
-19.46
-20.82
-21.75
-21.11
-18.15
-12.66
-4.78
5.18
16.83
29.43
41.63
51.45
56.99
57.32
53.18
46.69
40.27
35.38
31.82
28.25
23.42
17.36
11.54
7.98
7.88
10.76
14.69
17.43
17.70
15.65
12.56
9.79
8.00
6.98
6.00
4.54
2.67
0.98
0.10
0.22
0.95
1.43
0.85
-1.24
-4.72
-8.98
-13.15
-16.45
-18.38
-18.82
-17.98
-16.31
-14.34
-12.63
-11.82
-12.44
-14.89
-19.09
-24.38
-29.60
-33.49
-35.17
-34.57
-32.47
-29.91
-27.56
-25.16
-21.70
-16.09
-8.00
1.73
11.42
19.38
24.74
27.72
29.29
30.39
31.30
31.56
30.29
26.89
21.39
14.49
7.18
0.28
-5.85
-11.24
-15.99
-19.86
-22.18
-21.98
-18.57
-12.06
-3.60
4.96
11.74
15.66
16.81
16.08
14.50
12.43
9.49
4.99
-1.10
-7.64
-12.66
-14.29
-11.84
-6.29
0.33
6.11
10.29
13.55
17.17
21.84
26.84
30.31
30.21
25.61
17.32
7.56
-1.11
-6.86
-9.20
-8.81
-6.97
-4.84
-2.98
-1.39
0.44
3.01
6.55
10.69
14.62
17.20
17.52
15.24
10.76
4.93
-1.33
-7.41
-13.06
-18.10
-22.25
-25.01
-25.94
-24.99
-22.65
-19.82
-17.38
-15.78
-14.94
-14.34
-13.40
-11.68
-9.00
-5.39
-1.11
3.32
7.12
9.38
9.44
7.14
3.08
-1.54
-5.37
-7.39
-7.20
-5.08
-1.70
2.13
5.73
8.61
10.48
11.19
10.70
9.19
6.96
4.32
1.55
-1.26
-4.04
-6.62
-8.62
-9.49
-8.77
-6.45
-3.22
-0.22
1.31
0.68
-1.85
-5.25
-8.19
-9.80
-10.03
-9.52
-9.01
-8.81
-8.61
-7.86
-6.30
-4.38
-3.04
-3.21
-5.08
-7.84
-10.00
-10.18
-7.77
-3.33
1.76
5.99
8.44
9.09
8.72
8.38
8.83
10.25
12.18
13.84
14.60
14.22
12.90
11.06
9.10
7.11
4.99
2.63
0.13
-2.04
-3.28
-3.15
-1.79
0.09
1.41
1.33
-0.40
-3.25
-6.27
-8.60
-9.89
-10.40
-10.65
-11.07
-11.66
-12.04
-11.71
-10.36
-8.09
-5.34
-2.71
-0.69
0.48
0.95
1.13
1.45
2.18
3.22
4.21
4.70
4.43
3.46
2.12
0.84
-0.12
-0.76
-1.31
-1.93
-2.70
-3.46
-3.96
-3.96
-3.36
-2.16
-0.47
1.60
3.79
5.74
6.94
6.98
5.73
3.48
0.91
-1.20
-2.33
-2.47
-1.98
-1.37
-0.94
-0.66
-0.35
0.14
0.75
1.30
1.67
1.96
2.44
3.31
4.56
5.86
6.73
6.82
6.07
4.68
2.99
1.34
-0.07
-1.13
-1.78
-2.01
-1.89
-1.65
-1.60
-2.07
-3.13
-4.58
-5.86
-6.36
-5.75
-4.24
-2.52
-1.44
-1.58
-2.82
-4.51
-5.72
-5.84
-4.78
-2.95
-0.92
1.05
3.02
5.25
7.82
10.49
12.78
14.22
14.66
14.29
13.49
12.63
11.96
11.56
11.46
11.66
12.11
12.61
12.85
12.48
11.26
9.19
6.56
3.77
1.29
-0.45
-1.15
-0.69
0.89
3.27
6.01
8.61
10.65
11.90
12.27
11.72
10.25
7.92
4.94
1.76
-1.05
-2.93
-3.54
-2.93
-1.42
0.41
2.05
3.06
3.24
2.56
1.25
-0.32
-1.72
-2.54
-2.65
-2.13
-1.35
-0.77
-0.79
-1.58
-3.02
-4.76
-6.37
-7.59
-8.30
-8.55
-8.38
-7.73
-6.40
-4.24
-1.36
1.79
4.51
6.16
6.45
5.61
4.24
2.96
2.12
1.64
1.27
0.73
0.07
-0.48
-0.68
-0.45
-0.03
0.21
0.07
-0.38
-0.82
-0.88
-0.41
0.41
1.24
1.81
2.06
2.27
2.74
3.62
4.75
5.70
6.01
5.44
4.12
2.46
1.01
0.11
-0.15
-0.04
0.08
-0.12
-0.72
-1.53
-2.21
-2.44
-2.17
-1.67
-1.42
-1.87
-3.17
-5.09
-7.10
-8.68
-9.58
-9.91
-10.03
-10.29
-10.89
-11.69
-12.45
-12.97
-13.13
-12.95
-12.48
-11.73
-10.75
-9.67
-8.63
-7.76
-7.03
-6.25
-5.21
-3.88
-2.53
-1.56
-1.33
-1.81
-2.58
-2.97
-2.34
-0.43
2.61
6.26
9.90
13.05
15.58
17.55
19.18
20.56
21.58
21.99
21.46
19.80
17.07
13.61
9.90
6.47
3.75
1.94
1.08
1.00
1.41
1.94
2.19
1.82
0.65
-1.26
-3.68
-6.22
-8.46
-10.10
-11.03
-11.35
-11.28
-11.01
-10.60
-10.04
-9.27
-8.34
-7.45
-6.82
-6.58
-6.66
-6.77
-6.57
-5.91
-4.83
-3.55
-2.31
-1.26
-0.40
0.32
0.98
1.58
2.16
2.80
3.67
4.90
6.44
7.96
8.99
9.11
8.16
6.29
3.82
1.08
-1.74
-4.55
-7.14
-9.19
-10.27
-10.16
-9.02
-7.40
-6.05
-5.42
-5.53
-5.92
-6.06
-5.64
-4.67
-3.42
-2.09
-0.75
0.71
2.32
3.97
5.38
6.37
6.97
7.44
8.10
9.07
10.19
11.11
11.58
11.57
11.36
11.28
11.57
12.23
13.05
13.81
14.26
14.26
13.68
12.41
10.38
7.66
4.56
1.45
-1.24
-3.25
-4.61
-5.56
-6.46
-7.67
-9.34
-11.45
-13.79
-16.07
-17.94
-19.12
-19.45
-18.98
-18.02
-17.06
-16.55
-16.74
-17.52
-18.52
-19.24
-19.28
-18.44
-16.75
-14.44
-11.95
-9.90
-9.02
-9.74
-11.87
-14.28
-15.30
-13.38
-8.02
-0.15
8.18
14.83
18.56
19.54
19.09
18.72
19.28
20.60
21.82
22.07
21.12
19.44
17.88
17.13
17.29
17.86
17.99
17.01
14.80
11.87
9.08
7.14
6.25
5.88
5.08
2.95
-0.88
-6.06
-11.56
-16.14
-18.81
-19.24
-17.79
-15.33
-12.74
-10.55
-8.72
-6.78
-4.26
-1.06
2.26
4.70
5.27
3.46
-0.44
-5.57
-10.81
-15.20
-18.19
-19.54
-19.21
-17.27
-13.93
-9.61
-4.92
-0.48
3.31
6.47
9.32
12.19
15.15
17.90
19.97
21.06
21.21
20.84
20.40
20.09
19.71
18.76
16.73
13.35
8.58
2.28
-5.70
-15.21
-25.24
-33.83
-38.73
-38.64
-34.25
-28.20
-23.79
-23.10
-25.70
-28.79
-28.97
-24.21
-15.07
-4.05
6.03
13.78
19.65
24.95
30.32
34.79
36.15
32.47
23.44
11.09
-0.98
-9.20
-11.68
-8.99
-3.66
1.15
3.14
1.79
-1.79
-5.65
-8.17
-8.79
-8.03
-7.05
-6.93
-8.30
-11.21
-15.35
-20.18
-24.91
-28.54
-29.90
-28.07
-22.74
-14.55
-4.88
4.72
13.11
19.89
25.16
29.01
31.10
30.63
26.99
20.35
12.04
4.01
-1.96
-5.24
-6.47
-7.04
-8.14
-9.88
-11.39
-11.47
-9.48
-5.91
-2.19
0.07
-0.15
-2.69
-6.23
-8.86
-8.83
-5.27
1.42
9.70
17.49
23.12
26.11
27.40
28.86
32.16
37.78
44.63
50.58
53.59
52.81
48.87
43.38
37.86
33.04
28.59
23.72
18.01
11.82
6.32
2.77
1.86
3.17
5.35
6.64
5.66
1.91
-4.07
-10.98
-17.26
-21.59
-23.17
-21.88
-18.18
-13.15
-8.28
-5.34
-6.05
-11.63
-22.13
-36.23
-51.26
-63.95
-71.44
-72.00
-65.58
-53.49
-37.99
-21.60
-6.71
4.64
11.00
11.76
7.55
0.29
-7.13
-11.77
-11.64
-6.46
2.33
12.17
20.31
24.69
24.24
19.06
10.27
-0.35
-10.71
-19.02
-24.30
-26.65
-26.97
-26.39
-25.60
-24.47
-22.32
-18.40
-12.55
-5.40
1.60
6.71
8.50
6.36
1.03
-5.57
-10.74
-12.02
-8.17
0.23
11.02
21.37
28.91
32.54
32.38
29.32
24.20
17.62
10.10
2.53
-3.65
-6.71
-5.30
0.74
10.10
20.29
28.57
32.91
32.74
28.97
23.49
18.33
14.82
13.23
12.64
11.37
7.71
0.68
-9.32
-20.43
-29.84
-34.84
-33.88
-27.29
-17.19
-6.72
1.22
4.85
3.94
-0.41
-6.41
-12.33
-16.87
-19.39
-19.73
-18.05
-14.75
-10.49
-6.22
-3.06
-1.86
-2.78
-5.06
-7.29
-8.15
-7.17
-5.12
-3.63
-4.21
-7.28
-11.66
-15.03
-15.06
-10.50
-1.75
9.44
20.69
30.01
36.35
39.71
40.76
40.39
39.29
37.78
35.79
33.00
29.10
23.84
17.15
9.16
0.10
-9.73
-19.82
-29.42
-37.50
-42.97
-45.12
-44.02
-40.71
-36.73
-33.27
-30.26
-26.14
-18.62
-6.21
10.31
27.47
40.16
43.64
35.67
17.62
-6.04
-29.46
-47.59
-57.83
-60.40
-57.65
-52.74
-48.29
-45.66
-45.07
-46.07
-48.10
-50.68
-52.96
-53.27
-48.96
-37.09
-15.66
15.15
52.59
91.95
127.93
156.24
174.37
181.70
178.93
167.40
148.82
125.21
99.00
72.84
49.13
29.55
14.76
4.50
-2.08
-6.03
-8.26
-9.34
-9.53
-8.80
-7.12
-4.71
-2.12
-0.12
0.71
0.38
-0.37
-0.42
1.06
3.86
6.53
6.86
2.85
-6.31
-19.85
-35.75
-51.76
-66.17
-78.31
-88.41
-97.01
-104.30
-109.77
-112.14
-109.75
-101.14
-85.45
-62.78
-34.44
-2.97
27.97
54.27
72.31
79.99
77.40
66.85
51.95
36.13
21.45
8.02
-5.49
-20.58
-37.56
-54.77
-68.87
-76.23
-74.55
-64.11
-47.90
-30.43
-15.86
-6.33
-1.34
1.31
3.85
7.11
10.27
11.57
9.68
4.63
-2.15
-8.82
-14.19
-18.16
-21.21
-23.50
-24.18
-21.56
-13.99
-1.17
15.23
31.91
45.15
52.29
52.61
47.21
38.09
27.25
16.24
6.53
0.21
-0.06
7.97
24.45
46.45
68.28
83.57
87.94
80.76
64.97
45.09
24.76
5.44
-13.22
-31.70
-49.09
-62.81
-69.90
-68.80
-60.61
-48.78
-37.59
-30.19
-27.34
-27.57
-28.31
-27.57
-24.89
-21.46
-19.19
-19.42
-22.03
-25.35
-26.98
-25.03
-18.99
-9.80
0.68
10.67
19.06
25.52
30.24
33.56
35.95
38.02
40.54
44.13
48.85
53.90
57.71
58.65
55.76
49.27
40.65
31.83
24.39
18.99
15.27
12.29
9.28
6.14
3.49
2.29
3.22
6.16
9.98
12.90
13.27
10.30
4.49
-2.73
-9.59
-14.77
-17.72
-18.55
-17.56
-14.87
-10.41
-4.31
2.75
9.53
14.70
17.48
18.02
17.21
16.07
15.05
13.80
11.65
8.15
3.62
-0.93
-4.27
-5.63
-5.16
-3.87
-3.21
-4.43
-8.11
-13.80
-20.19
-25.46
-27.88
-26.49
-21.62
-15.04
-9.58
-8.25
-13.13
-24.32
-39.59
-54.79
-65.31
-67.58
-60.39
-45.26
-25.80
-6.50
8.50
16.18
15.22
6.09
-9.03
-26.66
-42.84
-54.19
-58.88
-57.03
-50.17
-40.39
-29.40
-18.37
-8.21
-0.10
4.61
5.01
1.55
-3.63
-7.34
-6.75
-0.74
9.44
20.67
29.20
32.03
28.11
18.64
6.60
-4.29
-10.94
-11.91
-7.94
-1.29
5.76
12.46
20.35
32.39
51.06
76.28
104.70
130.83
149.23
156.77
153.42
141.43
123.58
101.86
77.17
50.19
22.46
-3.24
-23.69
-36.68
-42.33
-43.07
-42.63
-44.20
-49.10
-56.34
-63.47
-68.01
-68.79
-66.35
-62.47
-59.05
-57.33
-57.46
-58.80
-60.50
-61.92
-62.84
-63.37
-63.58
-63.38
-62.48
-60.60
-57.65
-53.94
-50.06
-46.46
-42.91
-38.30
-31.00
-19.79
-4.77
12.37
28.84
42.08
50.82
55.48
57.65
58.97
60.34
61.69
62.44
62.06
60.46
57.84
54.38
50.03
44.65
38.30
31.55
25.35
20.59
17.75
16.73
16.87
17.43
17.82
17.74
16.96
15.16
11.77
6.36
-1.00
-9.37
-16.98
-21.86
-22.67
-19.37
-13.32
-6.70
-1.59
0.81
0.47
-1.71
-4.60
-7.33
-9.71
-12.03
-14.86
-18.55
-23.03
-27.70
-31.62
-33.84
-33.67
-31.05
-26.56
-21.28
-16.26
-12.19
-9.08
-6.36
-3.24
0.93
6.33
12.68
19.41
25.90
31.66
36.38
39.91
42.23
43.50
43.88
43.50
42.18
39.45
34.61
27.15
17.12
5.30
-6.90
-17.92
-26.51
-32.07
-34.69
-34.96
-33.66
-31.64
-29.77
-28.89
-29.77
-32.78
-37.72
-43.67
-49.10
-52.45
-52.61
-49.46
-43.85
-37.33
-31.36
-26.87
-23.91
-21.91
-20.17
-18.29
-16.25
-14.29
-12.55
-11.04
-9.72
-8.81
-8.83
-10.32
-13.31
-16.94
-19.63
-19.78
-16.67
-11.08
-5.18
-1.60
-2.24
-7.28
-15.03
-22.51
-26.62
-25.31
-18.38
-7.41
4.93
15.99
24.12
29.02
31.52
32.83
33.80
34.57
34.75
33.87
31.94
29.49
27.29
25.90
25.30
25.00
24.39
23.09
21.12
18.79
16.48
14.35
12.35
10.24
7.69
4.38
0.11
-5.23
-11.49
-18.15
-24.34
-29.08
-31.68
-32.10
-31.00
-29.50
-28.60
-28.69
-29.45
-30.09
-29.83
-28.40
-26.01
-23.19
-20.43
-17.92
-15.53
-12.92
-9.83
-6.24
-2.51
0.73
2.73
2.95
1.34
-1.49
-4.43
-6.32
-6.44
-4.82
-2.28
0.11
1.53
1.82
1.39
0.88
0.69
0.73
0.50
-0.55
-2.64
-5.45
-8.28
-10.32
-11.08
-10.51
-9.04
-7.31
-5.87
-5.01
-4.69
-4.68
-4.67
-4.16
-2.38
1.67
8.90
19.62
33.05
47.35
60.07
69.00
72.89
71.79
66.75
59.26
50.58
41.54
32.66
24.43
17.52
12.67
10.31
10.28
11.70
13.23
13.45
11.43
7.00
0.89
-5.70
-11.52
-15.77
-18.29
-19.40
-19.58
-19.14
-18.12
-16.46
-14.24
-11.78
-9.61
-8.16
-7.47
-7.18
-6.71
-5.78
-4.65
-4.05
-4.81
-7.29
-11.14
-15.45
-19.20
-21.79
-23.33
-24.36
-25.46
-26.81
-28.03
-28.47
-27.58
-25.26
-21.94
-18.43
-15.56
-13.94
-13.73
-14.59
-15.84
-16.68
-16.51
-15.18
-13.06
-10.87
-9.29
-8.67
-8.78
-8.90
-8.24
-6.28
-3.10
0.71
4.28
6.99
8.66
9.65
10.56
11.91
13.82
16.07
18.27
20.18
21.90
23.69
25.82
28.29
30.80
32.78
33.72
33.36
31.81
29.49
26.88
24.37
22.19
20.33
18.73
17.34
16.13
15.08
14.11
13.11
11.99
10.74
9.43
8.24
7.25
6.45
5.69
4.78
3.58
2.04
0.20
-1.90
-4.14
-6.31
-8.07
-9.02
-8.82
-7.40
-5.03
-2.24
0.36
2.41
3.88
5.04
6.32
8.01
10.15
12.53
14.78
16.49
17.35
17.19
16.02
14.05
11.71
9.51
7.89
7.08
6.93
7.06
6.97
6.27
4.87
2.93
0.75
-1.32
-3.05
-4.37
-5.29
-5.85
-6.12
-6.18
-6.21
-6.45
-7.12
-8.31
-9.80
-11.12
-11.65
-10.98
-9.05
-6.28
-3.34
-0.83
0.96
2.16
3.08
4.00
4.90
5.60
5.88
5.74
5.44
5.38
5.80
6.64
7.50
7.92
7.62
6.72
5.66
5.05
5.25
6.21
7.53
8.63
9.08
8.85
8.24
7.71
7.58
7.85
8.23
8.31
7.79
6.60
4.90
2.98
1.14
-0.45
-1.69
-2.59
-3.18
-3.53
-3.73
-3.79
-3.67
-3.28
-2.51
-1.44
-0.32
0.41
0.36
-0.60
-2.19
-3.88
-5.07
-5.49
-5.37
-5.27
-5.84
-7.43
-9.88
-12.74
-15.50
-17.84
-19.58
-20.39
-19.54
-15.96
-8.74
2.26
15.99
30.30
42.68
51.06
54.32
52.35
45.59
34.71
20.60
4.79
-10.25
-21.22
-24.94
-19.60
-6.07
12.01
29.20
40.20
41.83
34.03
19.51
2.26
-14.23
-28.06
-38.87
-47.08
-52.82
-55.56
-54.52
-49.42
-41.11
-31.37
-22.21
-14.93
-9.74
-6.12
-3.40
-1.35
-0.31
-0.83
-3.29
-7.56
-13.05
-18.87
-23.89
-26.70
-25.65
-19.26
-6.88
10.59
30.59
49.52
64.02
72.14
73.97
71.21
66.11
60.50
55.14
49.88
44.25
38.01
31.33
24.63
18.38
12.98
8.93
6.80
7.07
9.65
13.59
17.00
17.74
14.24
6.27
-4.92
-17.19
-28.35
-37.03
-42.88
-46.36
-48.08
-48.45
-47.66
-45.97
-43.91
-42.22
-41.38
-41.24
-40.94
-39.34
-35.70
-30.24
-24.13
-19.09
-16.51
-16.77
-19.14
-22.17
-24.37
-24.78
-23.17
-19.80
-15.16
-9.66
-3.68
2.32
7.63
11.39
12.86
11.86
8.96
5.43
2.77
2.26
4.43
8.97
14.93
21.04
26.19
29.57
30.77
29.71
26.60
22.02
16.85
12.16
8.89
7.45
7.58
8.44
9.03
8.66
7.24
5.25
3.35
2.00
1.21
0.58
-0.52
-2.63
-5.98
-10.37
-15.17
-19.47
-22.29
-22.81
-20.62
-15.89
-9.31
-1.97
4.94
10.52
14.34
16.57
17.74
18.46
19.07
19.51
19.56
19.10
18.25
17.32
16.54
15.78
14.58
12.44
9.26
5.45
1.79
-1.06
-2.98
-4.36
-5.79
-7.56
-9.49
-11.10
-11.98
-12.19
-12.20
-12.60
-13.64
-15.05
-16.28
-16.85
-16.77
-16.47
-16.63
-17.68
-19.58
-21.98
-24.32
-26.24
-27.50
-27.99
-27.52
-25.87
-22.89
-18.72
-13.84
-8.97
-4.83
-1.75
0.33
1.85
3.34
5.23
7.64
10.40
13.18
15.62
17.38
18.14
17.57
15.49
11.99
7.69
3.63
1.05
0.76
2.79
6.21
9.52
11.40
11.35
9.85
8.03
6.95
7.09
8.08
9.11
9.49
9.05
8.17
7.39
7.05
7.02
6.81
5.95
4.29
2.10
-0.10
-1.84
-2.93
-3.49
-3.84
-4.29
-5.04
-6.19
-7.67
-9.35
-11.07
-12.66
-13.99
-14.96
-15.48
-15.37
-14.37
-12.26
-9.05
-5.24
-1.70
0.54
0.81
-0.86
-3.70
-6.55
-8.45
-9.04
-8.55
-7.54
-6.35
-4.89
-2.70
0.62
4.94
9.52
13.25
15.19
15.08
13.37
10.98
8.79
7.28
6.38
5.69
4.90
4.01
3.37
3.44
4.38
5.76
6.68
6.10
3.49
-0.79
-5.52
-9.12
-10.43
-9.34
-6.87
-4.64
-3.98
-5.22
-7.59
-9.71
-10.48
-9.65
-7.76
-5.67
-3.86
-2.12
0.29
4.04
9.10
14.56
19.02
21.25
20.91
18.84
16.76
16.64
19.80
26.28
34.63
42.19
46.02
43.85
34.91
20.23
2.28
-15.79
-31.00
-41.15
-45.19
-43.15
-36.04
-25.46
-13.22
-0.94
10.21
19.64
27.13
32.59
35.85
36.74
35.29
32.00
27.71
23.38
19.62
16.48
13.61
10.63
7.57
4.94
3.52
3.84
5.90
9.10
12.54
15.45
17.50
18.82
19.72
20.38
20.67
20.13
18.24
14.60
9.19
2.40
-5.02
-12.18
-18.26
-22.72
-25.47
-26.85
-27.49
-28.07
-29.13
-30.92
-33.37
-36.17
-38.89
-41.02
-42.13
-42.08
-41.14
-40.11
-40.17
-42.51
-47.77
-55.54
-64.39
-72.13
-76.56
-76.30
-71.28
-62.73
-52.68
-43.17
-35.60
-30.49
-27.58
-26.14
-25.28
-24.13
-21.89
-17.98
-12.14
-4.56
4.13
13.03
21.23
27.97
32.71
35.10
35.01
32.56
28.33
23.27
18.51
14.95
12.95
12.27
12.26
12.26
11.90
11.13
10.16
9.33
8.95
9.33
10.73
13.43
17.60
23.21
29.93
37.00
43.41
48.07
50.12
49.31
46.02
41.25
36.13
31.52
27.74
24.69
22.13
20.04
18.70
18.45
19.35
20.99
22.56
23.32
23.00
22.01
21.35
22.11
25.10
30.49
37.92
46.69
55.91
64.69
72.16
77.65
80.90
82.35
83.08
84.57
88.15
94.44
103.15
113.28
123.68
133.68
143.37
153.43
164.69
177.64
192.32
208.43
225.64
243.50
261.03
276.34
287.09
291.74
290.81
287.21
284.97
286.81
292.08
296.52
294.13
280.29
254.32
219.71
182.27
147.23
117.15
91.74
69.32
48.58
29.55
13.29
0.71
-8.36
-15.33
-22.36
-31.44
-43.55
-58.27
-74.08
-88.93
-101.08
-109.74
-115.29
-119.08
-122.90
-128.18
-135.51
-144.58
-154.38
-163.92
-172.83
-181.69
-191.87
-204.91
-221.76
-242.33
-265.83
-291.35
-318.51
-347.30
-377.25
-406.44
-431.01
-446.04
-447.33
-433.21
-405.17
-366.93
-322.66
-275.51
-227.43
-180.35
-137.46
-103.42
-82.78
-77.47
-84.87
-98.01
-108.11
-108.27
-96.38
-75.57
-52.36
-33.09
-21.05
-15.54
-13.17
-10.13
-4.47
3.21
10.45
14.39
12.96
5.18
-9.07
-29.54
-55.48
-85.14
-115.27
-141.19
-157.82
-161.26
-150.18
-126.45
-94.43
-59.70
-27.35
-0.92
18.08
29.79
35.41
36.35
33.57
27.09
15.83
-1.95
-27.72
-61.45
-100.63
-140.51
-175.82
-203.22
-222.84
-238.08
-253.09
-269.66
-285.58
-295.50
-293.85
-278.15
-250.84
-218.72
-190.38
-173.02
-169.98
-179.98
-197.82
-216.34
-228.53
-229.57
-217.84
-194.92
-164.31
-129.57
-92.80
-54.45
-14.17
27.86
70.24
110.76
147.67
180.78
211.72
243.00
276.61
312.83
349.68
383.56
410.44
427.07
431.67
424.03
405.54
379.06
348.90
320.61
300.09
292.26
299.36
319.72
347.47
373.77
389.07
386.07
361.98
319.56
266.15
211.07
162.17
123.15
92.66
65.45
34.94
-3.97
-52.98
-109.91
-169.63
-225.70
-272.14
-304.79
-321.87
-323.81
-312.78
-291.99
-265.30
-236.68
-209.57
-186.10
-166.26
-147.75
-126.63
-98.91
-62.34
-17.61
31.76
80.64
123.95
157.84
180.20
190.48
189.24
178.00
159.11
135.70
111.24
88.91
70.98
58.28
50.30
45.47
42.03
38.59
34.55
30.21
26.24
23.32
21.62
20.73
19.82
18.06
15.01
10.84
6.26
2.04
-1.30
-3.81
-5.85
-7.79
-9.58
-10.71
-10.45
-8.41
-4.86
-0.75
2.78
4.98
5.81
5.92
6.20
7.13
8.53
9.56
9.27
7.12
3.44
-0.69
-3.79
-4.68
-3.01
0.58
4.71
7.94
9.26
8.47
6.07
2.77
-0.92
-4.90
-9.37
-14.46
-19.89
-24.98
-28.89
-31.05
-31.54
-30.94
-30.08
-29.62
-29.76
-30.28
-30.73
-30.62
-29.55
-27.31
-23.86
-19.33
-14.13
-8.92
-4.44
-1.32
0.16
0.20
-0.60
-1.51
-1.90
-1.50
-0.40
1.06
2.45
3.49
4.12
4.53
5.08
6.15
8.07
11.05
15.08
19.86
24.81
29.12
32.06
33.17
32.48
30.51
27.99
25.42
22.90
20.11
16.57
12.00
6.49
0.50
-5.22
-9.92
-13.02
-14.21
-13.55
-11.44
-8.57
-5.72
-3.49
-2.13
-1.39
-0.82
0.07
1.42
3.07
4.64
5.87
6.76
7.52
8.38
9.30
9.95
9.80
8.47
5.97
2.80
-0.32
-2.70
-3.95
-4.13
-3.54
-2.59
-1.54
-0.51
0.45
1.24
1.63
1.38
0.42
-1.05
-2.54
-3.50
-3.62
-3.05
-2.38
-2.39
-3.54
-5.68
-8.06
-9.63
-9.67
-8.14
-5.75
-3.54
-2.34
-2.39
-3.30
-4.42
-5.23
-5.60
-5.64
-5.51
-5.15
-4.36
-2.93
-0.88
1.44
3.54
5.04
5.93
6.51
7.29
8.71
10.92
13.71
16.62
19.09
20.63
20.96
20.00
17.90
14.98
11.70
8.58
6.10
4.56
4.01
4.17
4.54
4.52
3.72
2.08
-0.10
-2.32
-4.10
-5.26
-6.00
-6.82
-8.26
-10.62
-13.88
-17.76
-21.85
-25.77
-29.05
-31.13
-31.35
-29.16
-24.26
-17.02
-8.35
0.26
7.19
11.29
12.16
10.34
7.29
5.06
5.58
10.23
19.19
31.47
45.37
58.76
69.56
76.18
78.25
77.30
77.38
83.78
100.95
130.60
170.08
212.93
251.09
277.82
289.64
287.32
274.28
251.56
220.85
184.75
146.98
111.90
84.47
65.50
53.75
46.36
39.92
30.28
14.06
-10.60
-43.52
-82.68
-125.71
-170.04
-213.48
-253.38
-287.52
-313.37
-329.11
-334.84
-333.10
-328.40
-325.15
-326.69
-327.90
-323.28
-307.11
-275.71
-228.90
-169.78
-103.15
-34.27
27.63
77.69
110.06
120.13
106.32
70.86
19.79
-38.18
-91.49
-129.75
-146.02
-141.49
-124.65
-107.79
-101.16
-107.31
-118.74
-117.72
-86.60
-15.90
87.25
200.85
297.39
355.80
368.99
343.68
294.75
237.39
182.70
135.26
95.55
62.98
37.70
21.22
14.90
18.32
27.78
37.60
41.85
37.43
25.60
11.12
-0.25
-4.40
-0.67
8.04
17.14
22.34
21.61
15.92
8.41
2.75
1.43
4.82
11.26
18.16
23.09
24.86
23.94
21.89
20.62
21.51
24.84
29.87
35.43
40.19
43.34
44.59
44.09
41.96
38.13
32.23
23.71
12.27
-2.22
-19.28
-37.47
-55.48
-72.10
-86.35
-97.81
-107.36
-114.45
-118.73
-119.47
-115.91
-107.60
-94.66
-78.00
-59.45
-41.42
-26.15
-15.36
-9.54
-8.32
-11.05
-16.76
-24.38
-33.18
-42.72
-52.69
-63.24
-74.29
-86.24
-98.83
-109.82
-114.56
-107.92
-86.95
-52.68
-10.56
32.28
68.37
92.91
105.50
110.00
111.08
112.10
114.82
120.65
132.52
151.86
177.46
204.47
226.03
234.18
223.36
193.43
143.33
85.17
33.93
1.34
-13.29
-15.50
-13.05
-13.07
-20.92
-39.74
-69.72
-110.90
-161.78
-218.02
-265.93
-290.24
-282.30
-245.89
-194.72
-143.57
-103.19
-77.04
-62.36
-53.67
-46.25
-39.23
-34.05
-32.00
-32.56
-35.33
-39.90
-46.22
-54.50
-65.83
-81.73
-102.63
-127.18
-151.86
-173.22
-189.13
-198.75
-202.43
-201.87
-199.47
-197.18
-195.85
-194.54
-192.16
-187.78
-181.04
-172.00
-161.12
-148.64
-133.82
-118.88
-104.09
-89.25
-74.16
-58.86
-43.77
-29.35
-16.20
-4.96
3.83
10.20
14.36
16.68
17.51
17.25
16.48
15.69
15.18
14.97
15.06
15.40
15.99
16.92
18.44
21.38
26.40
33.71
42.89
52.73
62.21
70.61
77.61
83.58
90.73
101.01
115.46
133.73
153.10
171.68
188.27
202.40
214.90
229.97
251.15
280.03
315.65
352.39
386.72
416.64
441.23
461.44
483.19
511.64
549.90
598.73
652.24
707.18
759.89
804.46
834.08
846.78
840.96
816.98
778.20
725.40
667.77
616.74
580.79
528.17
439.48
309.92
152.52
21.13
-79.11
-157.98
-227.07
-303.71
-390.88
-477.78
-550.77
-602.16
-625.42
-625.81
-609.51
-584.09
-556.85
-530.93
-503.03
-470.10
-432.19
-391.28
-356.12
-331.24
-317.72
-314.37
-317.81
-322.58
-325.16
-322.33
-313.72
-300.43
-282.24
-258.65
-230.61
-199.72
-167.10
-133.81
-100.34
-67.37
-37.45
-12.19
8.14
23.72
35.21
43.56
49.56
54.38
58.24
60.26
59.02
53.72
43.50
27.74
6.10
-20.94
-51.35
-80.09
-104.40
-123.57
-137.28
-146.13
-151.36
-154.40
-160.51
-169.69
-181.99
-192.78
-200.76
-202.14
-192.23
-168.23
-131.61
-88.56
-47.39
-16.05
1.57
6.67
5.47
4.77
8.62
17.65
30.07
44.16
58.85
74.56
90.65
107.97
126.40
144.41
159.24
168.06
169.61
164.00
153.12
139.77
127.44
118.42
113.81
113.51
116.47
120.60
122.04
115.45
95.42
59.91
12.37
-37.63
-76.99
-94.31
-84.98
-53.57
-11.64
27.69
55.42
69.47
73.64
73.79
74.21
76.13
78.61
80.40
80.85
79.51
75.29
66.06
49.76
26.22
-1.96
-30.17
-53.52
-68.88
-75.60
-75.12
-69.52
-60.64
-49.88
-38.96
-30.07
-25.58
-26.97
-33.65
-43.05
-51.73
-57.04
-57.81
-55.39
-52.56
-52.19
-56.27
-64.97
-77.12
-90.35
-101.53
-107.05
-103.64
-89.54
-64.98
-34.62
-4.69
18.94
33.21
38.94
39.80
39.85
41.09
42.56
41.51
36.07
26.56
15.96
8.24
6.33
10.76
20.14
31.70
41.89
47.23
44.03
30.06
6.67
-20.02
-40.66
-46.48
-34.64
-10.79
12.86
23.18
12.65
-17.02
-56.15
-91.96
-113.95
-117.18
-101.87
-71.78
-33.14
6.47
38.30
53.94
48.14
21.54
-18.40
-59.02
-85.86
-89.54
-68.04
-27.02
22.97
70.55
107.78
130.69
139.67
138.21
130.17
119.28
107.96
97.46
88.52
81.77
77.45
75.26
74.29
72.94
70.86
68.79
68.22
69.98
72.62
72.06
62.90
41.04
5.69
-38.49
-83.42
-120.69
-144.66
-154.08
-151.56
-141.38
-124.65
-105.30
-85.14
-65.06
-46.16
-29.89
-17.29
-8.44
-2.24
2.92
8.09
14.01
20.31
25.68
28.61
28.24
24.74
19.31
13.57
8.86
6.36
6.25
7.65
9.12
9.40
7.89
4.92
1.34
-1.99
-4.33
-5.61
-6.74
-9.46
-15.60
-26.63
-42.89
-61.38
-79.86
-94.56
-101.20
-96.73
-80.50
-54.77
-24.36
5.04
28.79
44.08
50.57
48.93
40.19
25.75
8.36
-7.84
-18.69
-22.44
-21.51
-21.14
-26.25
-37.92
-53.22
-66.03
-72.22
-71.91
-69.00
-67.90
-69.57
-70.99
-67.52
-57.09
-42.50
-30.40
-27.11
-34.94
-50.57
-66.82
-77.12
-79.22
-76.43
-75.06
-80.59
-93.89
-110.49
-122.80
-124.00
-111.37
-87.70
-59.90
-35.75
-20.93
-17.43
-24.56
-40.52
-63.62
-92.03
-123.00
-152.12
-173.57
-184.07
-180.31
-161.80
-131.01
-92.13
-49.25
-5.12
39.19
83.98
129.94
177.75
226.80
274.96
318.61
353.25
374.51
379.84
370.11
349.69
325.14
302.03
282.63
265.13
245.24
218.90
184.77
144.93
103.68
65.75
34.68
12.57
0.57
-1.10
6.27
19.10
31.84
38.49
35.23
22.10
2.81
-17.14
-33.20
-43.39
-48.09
-48.59
-45.87
-40.25
-32.27
-23.58
-16.83
-14.40
-17.19
-24.16
-32.83
-40.63
-45.88
-48.03
-47.19
-43.69
-37.94
-30.73
-23.17
-16.33
-10.77
-6.34
-2.57
0.63
2.56
1.95
-2.04
-9.00
-17.04
-23.61
-26.76
-26.09
-22.80
-18.79
-15.64
-13.81
-12.80
-11.73
-10.10
-8.08
-6.28
-5.32
-5.41
-6.33
-7.53
-8.47
-8.78
-8.29
-6.99
-4.98
-2.34
0.92
4.79
9.15
13.60
17.51
20.14
21.11
20.58
19.23
17.78
16.51
14.95
12.16
7.49
1.29
-4.91
-8.97
-9.14
-4.98
2.44
11.03
18.63
23.91
26.70
27.71
27.94
28.16
28.70
29.68
31.28
33.84
37.78
43.33
50.23
57.78
65.07
71.38
76.49
80.68
84.49
88.53
93.18
98.58
104.83
112.33
121.88
134.53
151.10
171.60
194.78
217.85
236.62
246.19
242.25
222.63
188.75
145.68
100.83
61.71
33.18
15.84
6.42
0.15
-6.61
-14.80
-23.22
-30.79
-38.12
-48.23
-65.71
-94.16
-133.55
-180.00
-227.85
-273.06
-315.76
-358.36
-403.15
-449.83
-493.82
-526.66
-539.55
-527.10
-489.41
-432.01
-361.22
-283.09
-204.70
-135.44
-86.12
-66.02
-78.60
-117.69
-168.86
-211.19
-225.58
-203.10
-146.54
-66.30
25.08
116.77
206.43
279.85
322.05
329.15
308.65
272.17
229.47
186.69
146.47
112.02
88.31
83.42
104.15
149.21
209.35
271.60
323.39
353.25
355.66
331.98
290.52
242.12
191.88
139.88
84.11
23.67
-40.12
-104.09
-165.18
-221.82
-258.92
-267.90
-251.26
-221.21
-189.74
-162.03
-137.03
-111.81
-85.04
-57.25
-33.74
-18.61
-12.29
-11.16
-10.10
-8.74
-3.78
4.68
14.51
20.10
18.14
8.91
-4.38
-18.37
-31.52
-44.56
-60.46
-72.69
-82.26
-90.92
-99.87
-109.18
-117.46
-121.53
-116.36
-97.53
-64.35
-23.84
12.87
34.39
34.11
13.20
-20.07
-54.59
-81.70
-99.37
-112.17
-124.67
-137.09
-144.10
-137.88
-113.37
-74.42
-26.88
19.33
54.53
74.50
81.05
80.15
77.76
77.09
76.96
75.85
71.67
63.47
52.58
41.62
33.32
29.15
29.45
32.37
38.64
48.94
63.90
84.42
111.32
145.39
186.55
234.90
280.14
316.80
342.35
357.35
363.60
361.65
349.09
320.37
279.18
221.90
151.47
75.20
1.43
-63.96
-118.75
-164.54
-206.49
-246.12
-284.53
-318.78
-345.63
-364.35
-377.20
-386.89
-385.07
-364.13
-318.07
-247.09
-155.74
-53.50
46.82
133.12
198.34
240.60
260.16
258.70
237.05
197.89
146.24
91.19
37.34
-10.81
-51.60
-87.73
-122.51
-157.42
-189.25
-207.04
-204.59
-182.49
-146.89
-108.16
-76.67
-57.67
-50.85
-51.24
-52.91
-52.82
-51.21
-48.99
-46.87
-44.49
-39.24
-28.86
-12.35
9.69
34.61
58.73
80.15
98.34
110.75
118.57
123.46
126.68
129.17
130.53
129.04
124.21
116.22
105.82
94.43
83.12
72.76
64.94
62.33
62.07
62.39
61.97
60.07
56.40
51.13
45.25
41.95
43.53
48.80
56.58
65.39
73.60
79.20
81.21
80.64
82.44
91.74
109.86
137.91
175.49
219.17
260.91
292.20
294.41
261.73
211.15
153.83
100.11
56.73
30.39
20.10
19.58
20.08
16.06
4.33
-17.92
-49.45
-85.21
-121.26
-159.43
-202.56
-251.70
-303.02
-351.69
-396.77
-439.37
-480.25
-499.20
-484.35
-437.15
-371.44
-301.26
-234.15
-173.47
-130.46
-99.69
-77.32
-64.74
-63.05
-71.05
-85.05
-94.68
-88.39
-63.12
-20.98
29.72
77.47
114.52
138.92
153.70
163.67
171.37
176.82
180.27
180.98
177.43
169.48
158.57
147.27
137.87
130.40
122.54
112.24
97.84
78.49
55.00
29.48
4.39
-18.41
-38.97
-55.31
-68.98
-81.70
-94.75
-108.77
-123.54
-137.51
-147.31
-148.60
-137.52
-112.97
-77.44
-37.05
0.42
28.57
44.81
50.72
50.27
47.39
43.83
39.73
34.59
28.44
22.44
18.20
16.77
17.83
19.81
20.55
18.62
14.14
8.48
3.68
1.45
2.49
6.22
11.16
15.53
18.26
19.36
19.77
20.88
23.88
29.32
36.91
45.57
53.58
59.05
60.46
57.04
49.12
38.05
25.83
14.43
5.24
-1.24
-5.31
-7.54
-8.42
-8.12
-6.66
-4.21
-1.26
1.42
2.97
2.85
1.03
-1.96
-5.19
-7.76
-9.13
-9.35
-9.02
-9.04
-10.14
-12.40
-15.19
-17.41
-18.00
-16.50
-13.35
-9.83
-7.68
-8.44
-12.78
-20.26
-29.35
-37.95
-44.05
-46.36
-44.33
-38.49
-30.27
-21.39
-13.15
-6.14
-0.26
4.74
8.89
11.85
13.10
12.41
10.12
7.07
4.15
1.92
0.50
-0.19
-0.16
0.74
2.69
5.60
8.90
11.69
13.12
12.74
10.56
6.75
1.35
-5.73
-14.33
-23.51
-31.43
-35.81
-34.97
-28.69
-18.34
-6.31
5.19
14.88
22.46
28.01
31.36
31.85
28.89
22.76
15.00
8.02
4.10
4.28
7.83
12.71
16.62
18.18
17.42
15.42
13.51
12.28
11.16
8.75
3.67
-4.49
-14.71
-24.73
-32.05
-34.93
-33.06
-27.64
-20.68
-14.21
-9.63
-7.46
-7.46
-8.84
-10.50
-11.19
-9.82
-5.86
0.33
7.38
13.36
16.59
16.37
13.39
9.50
6.99
7.73
12.61
21.34
32.64
44.67
55.50
63.64
68.37
69.90
68.99
66.49
62.91
58.47
53.59
49.52
48.45
52.85
64.20
81.82
102.74
122.66
137.81
146.28
148.66
147.33
145.10
144.36
146.72
153.09
163.84
178.16
193.00
202.75
200.55
181.37
145.26
98.49
51.86
16.54
-0.33
1.92
18.20
40.78
62.76
79.99
91.04
95.75
93.85
84.63
67.20
40.74
4.76
-41.09
-96.08
-157.31
-218.70
-271.34
-305.82
-314.84
-295.90
-252.77
-194.99
-135.97
-90.28
-70.73
-85.50
-135.79
-214.65
-307.97
-397.97
-468.12
-507.93
-515.39
-496.14
-459.83
-415.91
-370.62
-326.37
-283.01
-239.89
-197.06
-155.27
-115.24
-76.39
-36.97
5.28
52.18
104.70
163.19
227.41
296.44
367.73
436.51
496.05
539.46
562.06
563.34
547.12
519.85
487.98
455.80
424.86
394.85
365.18
335.94
307.78
281.05
255.01
227.88
197.61
162.81
123.32
80.09
35.05
-9.40
-50.50
-85.52
-112.23
-129.59
-138.19
-139.91
-137.05
-131.15
-122.55
-110.76
-95.55
-77.83
-59.84
-44.52
-34.44
-31.07
-34.38
-43.17
-55.53
-69.18
-81.69
-90.81
-94.74
-92.28
-83.17
-68.27
-49.69
-30.44
-13.68
-1.68
4.82
6.45
4.20
-1.86
-13.12
-31.46
-57.33
-88.12
-118.07
-140.53
-150.96
-149.25
-139.66
-128.45
-120.52
-117.25
-116.72
-115.79
-112.58
-107.76
-103.89
-103.42
-106.86
-112.10
-115.54
-114.12
-106.94
-95.70
-83.81
-74.59
-69.90
-69.50
-71.47
-73.23
-72.69
-68.95
-62.46
-54.69
-47.31
-41.48
-37.27
-33.88
-30.27
-25.90
-21.16
-17.19
-15.03
-14.91
-15.81
-15.88
-13.23
-6.75
3.68
17.42
33.65
51.60
70.32
88.22
102.91
111.77
113.01
106.71
94.84
80.78
67.89
58.22
51.87
47.45
43.28
38.37
32.90
27.46
22.53
17.98
13.18
7.38
0.30
-7.66
-15.50
-22.08
-27.12
-30.83
-33.62
-35.69
-36.94
-37.15
-36.14
-33.89
-30.70
-28.71
-30.10
-36.28
-47.38
-62.33
-79.37
-96.19
-110.18
-118.76
-123.23
-125.75
-128.35
-131.95
-136.52
-141.82
-147.61
-153.28
-157.79
-164.73
-176.83
-194.40
-214.76
-234.04
-250.11
-263.63
-277.22
-293.95
-322.19
-367.36
-429.24
-501.04
-572.55
-634.70
-682.35
-714.29
-692.85
-597.02
-429.64
-220.37
-8.75
176.14
322.57
431.29
508.80
562.82
593.86
602.19
590.02
563.48
530.69
498.62
471.07
449.42
433.41
416.92
394.08
361.65
320.19
273.52
226.25
181.50
140.94
105.22
70.89
36.99
1.63
-34.80
-70.46
-103.37
-132.92
-158.15
-176.49
-185.24
-181.29
-163.40
-132.86
-96.85
-60.45
-29.75
-8.45
3.61
8.89
10.60
10.44
9.12
6.31
2.12
-3.12
-8.09
-11.22
-11.68
-9.84
-7.23
-4.89
-3.54
-2.67
-1.40
1.90
9.33
23.09
45.27
72.86
103.34
133.35
159.73
179.93
193.63
202.93
211.58
223.44
241.18
266.51
299.45
338.69
381.10
421.62
453.48
469.50
464.33
436.50
389.66
330.69
267.26
205.10
147.00
93.26
43.18
-3.72
-47.54
-88.23
-126.86
-166.02
-209.33
-260.06
-319.12
-383.54
-445.88
-495.90
-523.60
-522.99
-494.09
-442.74
-377.96
-308.77
-241.96
-181.61
-129.89
-87.59
-54.35
-28.65
-8.28
8.36
21.04
27.56
24.74
10.15
-16.89
-55.48
-103.58
-158.36
-215.90
-270.87
-316.95
-348.50
-362.60
-360.29
-345.83
-324.56
-300.76
-276.41
-251.82
-226.86
-201.74
-177.01
-152.96
-129.27
-105.17
-80.19
-54.84
-30.79
-10.40
3.99
11.11
11.38
7.02
1.58
-1.26
1.08
9.04
20.87
33.44
43.72
49.98
52.23
51.60
49.05
44.43
36.32
23.18
4.77
-16.89
-37.82
-53.70
-61.85
-62.40
-57.92
-52.04
-47.49
-45.11
-44.00
-42.60
-39.83
-35.62
-30.76
-26.11
-22.04
-18.19
-13.74
-7.91
-0.42
8.37
17.55
26.14
33.45
39.39
44.51
49.73
55.98
63.76
72.73
81.79
89.35
94.05
95.48
94.67
93.77
95.27
100.64
109.40
119.10
126.40
128.80
125.92
119.67
113.23
109.39
109.22
111.88
115.27
117.49
117.64
116.22
114.65
114.51
117.27
124.33
137.34
157.76
185.33
216.43
243.46
256.74
248.37
216.47
167.26
113.38
69.12
44.82
43.61
61.68
91.30
124.59
155.73
181.25
199.16
208.26
208.30
200.45
187.31
171.99
156.71
142.21
127.77
112.11
94.25
73.88
51.33
27.38
3.20
-19.59
-39.10
-53.83
-63.43
-69.03
-72.80
-77.03
-82.93
-90.02
-96.15
-98.37
-93.96
-81.49
-61.23
-35.10
-5.93
23.37
50.71
75.24
97.30
117.77
137.28
155.58
171.56
183.86
191.77
195.87
197.90
199.91
203.24
207.72
211.77
213.04
209.42
199.99
185.41
167.65
149.31
132.81
119.66
110.31
104.29
100.69
98.61
97.40
96.75
96.68
97.68
100.79
107.37
118.45
133.79
151.17
166.58
175.46
174.66
163.82
145.65
124.73
105.36
89.75
77.32
65.01
48.59
24.09
-10.86
-55.82
-106.81
-156.44
-195.32
-214.86
-210.50
-183.91
-142.88
-98.87
-62.94
-42.13
-37.77
-46.13
-60.76
-75.14
-84.46
-86.25
-80.24
-67.80
-51.25
-33.14
-15.64
-0.03
13.26
24.54
34.72
45.12
57.44
73.39
94.00
118.87
146.10
172.85
196.61
216.33
232.71
247.45
261.91
276.07
288.43
296.95
300.11
297.70
290.73
280.78
269.40
257.62
246.03
234.78
223.73
212.21
199.47
184.93
168.36
149.98
130.23
109.78
89.38
69.82
51.55
34.83
19.88
6.88
-4.08
-13.07
-20.35
-26.27
-31.30
-36.55
-42.99
-51.11
-60.73
-71.28
-82.30
-93.59
-105.20
-117.24
-131.44
-149.00
-169.54
-190.99
-210.67
-226.63
-238.44
-246.88
-253.39
-262.96
-279.44
-303.26
-331.10
-357.98
-380.25
-396.92
-409.35
-419.99
-436.86
-466.14
-508.46
-558.47
-608.14
-651.33
-685.89
-713.02
-735.86
-765.57
-812.62
-881.61
-969.02
-1065.51
-1159.81
-1241.39
-1301.82
-1286.96
-1166.24
-946.78
-673.18
-401.28
-169.48
9.67
141.05
235.60
298.82
333.32
338.75
318.37
281.73
241.35
207.18
183.85
171.57
167.53
163.53
152.84
134.79
115.30
103.29
105.67
124.86
159.15
204.21
251.87
294.63
329.29
357.53
383.94
412.41
444.25
478.01
510.37
535.79
549.23
548.55
535.11
513.84
491.10
473.67
467.67
476.51
498.74
527.63
552.81
563.48
553.47
522.64
477.06
426.55
379.72
340.71
308.26
277.46
242.38
200.46
151.94
100.15
51.21
12.22
-9.09
-5.21
29.63
86.09
151.21
206.96
236.24
230.03
188.97
121.45
39.81
-43.20
-117.35
-174.90
-211.61
-230.48
-235.62
-231.88
-224.21
-217.53
-216.58
-225.21
-244.23
-272.59
-308.10
-345.06
-379.91
-411.14
-439.84
-469.24
-503.45
-544.76
-592.49
-641.71
-684.17
-708.70
-704.16
-663.90
-588.60
-486.05
-367.47
-243.52
-113.20
16.70
135.57
233.74
306.19
352.48
375.42
379.86
371.73
357.24
340.51
325.02
312.88
303.87
295.70
285.11
269.30
246.96
218.26
183.50
144.70
105.09
68.24
37.12
13.67
-1.44
-8.92
-10.44
-8.96
-6.55
-4.20
-2.15
-0.50
0.60
1.12
1.26
1.91
3.28
5.51
8.32
10.77
11.75
10.44
6.73
1.10
-5.38
-12.03
-18.68
-25.83
-34.32
-44.84
-57.36
-70.08
-81.78
-90.99
-96.83
-99.38
-99.66
-99.03
-98.84
-100.14
-103.72
-109.79
-117.02
-122.43
-121.72
-110.88
-88.29
-56.18
-20.30
12.22
35.61
47.95
51.10
49.10
45.71
42.77
40.14
36.89
32.68
28.19
24.88
23.72
24.51
25.97
26.52
24.90
21.00
15.79
10.73
7.16
5.67
5.82
6.46
6.26
4.33
0.65
-4.03
-8.50
-11.68
-13.15
-13.32
-13.16
-13.82
-16.02
-19.71
-24.03
-27.71
-29.51
-28.88
-26.19
-22.44
-18.80
-16.03
-14.04
-11.95
-8.41
-2.22
6.79
17.72
28.89
38.64
45.88
50.67
54.06
57.59
62.91
71.01
82.42
97.05
113.75
129.82
141.05
142.77
130.77
106.05
73.47
40.39
13.87
-2.07
-7.57
-5.81
-0.78
4.79
10.38
16.30
22.42
27.47
29.47
26.91
19.81
9.78
-0.96
-10.24
-17.59
-24.28
-32.55
-44.38
-60.34
-79.24
-97.78
-113.52
-124.48
-130.41
-132.78
-133.80
-135.73
-140.10
-147.72
-158.31
-170.18
-180.26
-183.71
-176.39
-156.62
-126.61
-92.02
-60.09
-36.74
-24.34
-21.05
-22.58
-24.65
-24.69
-22.24
-17.71
-11.33
-2.52
9.60
25.44
44.14
63.66
81.71
95.67
105.24
111.11
114.58
116.73
118.05
118.32
116.85
113.61
108.41
102.16
96.06
91.15
87.79
85.57
83.54
80.80
77.03
72.60
68.73
66.48
66.30
67.73
69.58
70.66
70.17
68.17
65.46
63.26
62.64
64.43
69.21
76.91
86.15
93.80
95.33
86.42
65.26
33.98
-1.59
-34.00
-57.29
-69.28
-71.93
-69.53
-66.41
-64.62
-64.04
-63.52
-62.12
-59.96
-57.86
-56.53
-55.94
-55.41
-53.90
-50.48
-44.98
-37.77
-29.59
-21.22
-13.37
-6.61
-1.55
1.60
2.85
2.57
1.46
0.37
-0.14
-0.16
-0.70
-3.52
-9.99
-20.50
-34.01
-48.12
-59.95
-67.53
-70.70
-69.91
-68.90
-70.84
-77.42
-88.63
-103.11
-118.50
-131.43
-137.45
-131.97
-112.70
-81.43
-45.50
-16.25
-4.50
-15.65
-45.38
-81.91
-110.31
-119.02
-104.02
-70.23
-28.23
10.91
40.03
57.63
66.23
69.72
70.77
70.58
68.93
65.74
61.87
59.38
60.42
65.72
73.86
81.50
85.89
85.42
80.79
74.47
68.80
64.51
59.02
46.91
22.36
-16.36
-67.20
-125.21
-184.55
-239.80
-285.69
-317.08
-329.26
-318.87
-283.25
-224.58
-150.27
-70.09
4.65
67.17
116.98
158.21
196.38
238.82
289.47
347.79
409.41
467.87
516.85
550.60
564.55
537.96
463.29
350.20
221.95
102.25
4.74
-67.40
-116.77
-147.53
-163.46
-165.39
-155.97
-141.19
-128.88
-125.40
-132.84
-149.02
-168.25
-182.94
-183.16
-162.81
-123.66
-76.19
-36.15
-18.06
-28.95
-64.81
-111.58
-149.10
-161.42
-143.52
-101.86
-49.06
3.53
48.82
83.78
104.39
109.90
102.21
84.48
59.40
29.59
-1.49
-29.50
-50.68
-63.24
-67.45
-66.08
-63.48
-63.36
-67.34
-74.44
-82.25
-88.38
-91.26
-90.46
-87.00
-82.76
-79.26
-77.25
-76.38
-75.73
-74.55
-72.09
-68.04
-62.68
-56.71
-50.94
-46.01
-42.20
-39.65
-38.40
-37.70
-36.64
-34.26
-29.69
-22.34
-11.84
2.07
19.86
38.66
57.73
77.05
97.29
119.45
144.88
174.65
208.87
246.12
282.84
314.42
334.96
339.11
324.19
291.75
247.57
199.45
154.52
116.68
87.07
64.02
45.11
29.07
16.25
7.77
3.58
1.73
-1.01
-6.34
-14.44
-23.66
-31.47
-36.05
-37.00
-36.40
-37.71
-47.16
-66.16
-92.19
-120.56
-147.47
-170.64
-186.77
-192.46
-181.81
-149.83
-95.24
-24.89
47.67
107.17
139.97
140.34
111.94
65.89
12.42
-34.79
-66.47
-82.02
-88.26
-95.22
-105.63
-116.95
-125.33
-129.08
-126.81
-120.77
-111.15
-98.26
-81.70
-60.47
-35.03
-7.82
17.62
38.51
54.27
65.65
73.82
79.84
83.38
81.80
71.56
50.54
17.95
-23.39
-69.24
-117.01
-166.93
-220.57
-278.25
-336.29
-386.38
-418.36
-424.82
-404.91
-364.76
-313.96
-261.41
-212.36
-168.17
-127.61
-88.87
-50.81
-13.12
23.82
59.82
94.72
128.63
161.98
195.61
229.77
262.66
289.68
304.81
304.38
290.31
270.42
254.50
248.44
250.54
253.07
248.75
237.26
227.02
230.26
254.60
296.59
341.91
372.54
375.36
348.31
299.46
241.30
184.84
137.41
103.82
87.84
92.42
116.12
152.21
189.12
214.10
217.89
198.66
162.06
117.44
73.89
35.05
0.70
-31.44
-63.85
-98.85
-138.36
-181.13
-221.69
-252.18
-269.47
-274.07
-268.41
-254.56
-235.07
-212.50
-189.04
-172.06
-160.32
-153.66
-150.72
-149.40
-146.40
-140.63
-133.00
-126.46
-125.46
-127.87
-135.45
-146.47
-154.41
-148.19
-120.64
-71.97
-11.27
46.77
88.39
102.28
86.72
48.72
1.76
-44.22
-84.41
-118.67
-148.38
-161.74
-150.32
-111.46
-66.22
-24.30
7.42
28.73
36.11
26.19
0.04
-38.23
-79.58
-113.39
-129.51
-126.70
-111.59
-96.01
-92.22
-106.65
-140.15
-187.78
-242.31
-294.93
-339.74
-372.08
-374.76
-338.09
-266.05
-177.76
-96.23
-36.86
-1.33
15.15
24.39
35.23
50.78
71.60
96.64
124.47
150.84
171.20
181.93
183.96
183.40
188.23
205.18
235.36
272.03
302.36
314.72
303.48
271.47
227.10
179.30
135.18
100.30
79.36
76.43
96.01
139.63
202.70
273.33
335.03
373.21
381.30
361.38
320.70
269.55
217.05
168.53
125.71
88.25
50.08
11.39
-18.74
-39.95
-56.45
-71.64
-88.10
-107.59
-131.28
-160.12
-194.78
-233.37
-274.14
-314.09
-350.17
-378.69
-393.74
-387.96
-356.02
-298.62
-224.55
-149.57
-88.27
-49.23
-32.41
-30.66
-33.82
-33.20
-25.04
-9.15
11.50
33.81
54.05
67.66
70.54
61.15
42.97
22.97
9.77
9.36
23.18
47.12
73.80
94.63
103.23
103.22
100.54
100.89
104.11
109.40
115.93
120.16
119.44
108.16
85.50
54.67
22.83
-3.07
-19.11
-26.25
-28.05
-27.55
-26.42
-24.69
-24.34
-29.29
-44.76
-74.73
-120.39
-178.69
-238.92
-286.88
-309.82
-303.25
-272.62
-230.92
-192.39
-167.03
-157.23
-158.79
-165.31
-171.22
-174.74
-175.63
-173.98
-168.94
-159.14
-142.99
-119.91
-91.47
-60.08
-28.08
4.01
37.44
74.95
114.53
154.31
192.20
225.41
252.06
272.08
287.30
300.53
314.55
331.44
352.59
378.32
405.98
430.51
445.38
444.78
425.59
388.85
339.58
284.78
230.95
179.98
129.99
77.98
23.43
-29.73
-74.09
-101.84
-114.29
-115.25
-113.74
-119.64
-138.37
-167.47
-198.06
-220.23
-226.00
-217.15
-199.57
-181.56
-167.81
-157.63
-146.21
-127.22
-97.09
-54.21
-0.61
59.25
116.00
159.62
181.23
175.62
143.45
93.27
40.67
2.71
-7.12
13.79
59.55
117.36
171.24
206.47
208.70
173.03
106.56
32.01
-41.11
-112.40
-185.81
-263.29
-343.33
-419.80
-484.96
-534.07
-561.58
-568.30
-555.81
-524.25
-471.72
-404.19
-320.31
-220.49
-111.55
-4.00
89.02
158.71
204.17
230.75
245.97
257.05
268.76
282.63
298.56
315.08
332.55
353.15
379.61
414.09
448.00
473.18
482.70
472.41
439.90
384.65
308.30
215.79
115.82
19.96
-60.04
-117.04
-150.28
-164.69
-167.37
-164.23
-158.55
-151.62
-144.01
-135.94
-128.40
-122.30
-117.86
-114.32
-110.34
-104.65
-96.99
-88.20
-79.26
-71.30
-65.02
-60.37
-56.62
-52.69
-47.64
-41.16
-33.66
-25.73
-18.11
-11.38
-5.76
-1.13
2.82
6.34
9.37
11.54
12.45
11.78
9.26
5.02
-0.49
-6.60
-12.53
-17.47
-20.77
-21.95
-20.82
-17.72
-13.23
-8.20
-3.52
0.09
2.39
3.60
4.27
4.98
5.72
6.23
6.10
5.06
3.33
1.97
2.57
6.74
15.25
27.05
39.78
50.24
55.30
53.06
43.43
28.10
9.62
-7.05
-20.51
-31.28
-40.76
-50.39
-60.70
-71.57
-82.51
-92.64
-99.97
-101.34
-92.35
-69.78
-34.77
5.73
40.18
57.40
52.10
27.75
-5.55
-35.87
-55.21
-62.74
-63.26
-63.48
-67.37
-74.19
-79.93
-80.84
-75.84
-66.84
-59.14
-55.15
-55.76
-59.57
-62.77
-60.64
-50.13
-30.95
-5.62
20.94
43.46
57.59
60.52
52.22
35.44
14.34
-5.89
-18.68
-18.24
-1.23
30.57
69.03
102.85
122.27
121.59
101.70
70.40
37.59
11.20
-6.27
-18.94
-33.36
-53.58
-78.11
-106.02
-131.21
-147.74
-152.57
-140.53
-115.01
-89.41
-69.37
-55.51
-44.48
-29.33
-4.86
31.82
79.92
133.73
185.15
227.13
253.49
261.13
251.75
230.24
203.05
175.93
150.70
123.40
93.58
62.80
34.73
14.17
5.06
6.06
12.71
17.76
14.63
-0.40
-28.46
-68.68
-119.39
-179.13
-245.94
-310.54
-359.86
-381.61
-371.19
-334.82
-285.43
-236.05
-195.42
-166.25
-146.01
-133.21
-124.99
-119.70
-116.02
-111.28
-101.14
-81.64
-50.68
-7.54
45.74
105.78
169.47
233.94
295.68
350.30
391.47
412.73
411.11
385.20
338.63
276.55
204.17
126.73
51.58
-13.25
-60.54
-84.55
-87.29
-73.31
-49.98
-23.57
4.25
38.51
84.93
137.69
199.50
256.29
295.19
307.43
292.16
244.92
174.33
97.64
32.22
-5.80
-24.59
-34.74
-44.35
-59.99
-84.77
-118.52
-160.59
-209.23
-257.03
-294.25
-309.96
-301.31
-275.53
-244.24
-215.84
-194.04
-179.90
-168.83
-158.69
-146.71
-129.92
-105.12
-69.29
-20.17
39.40
100.46
151.95
182.45
185.73
162.58
118.23
59.65
-6.05
-72.29
-132.64
-179.27
-206.39
-211.45
-195.16
-163.11
-123.97
-85.70
-52.38
-23.97
3.78
35.03
72.37
118.98
175.72
239.52
303.30
357.81
393.49
405.60
394.06
348.46
271.17
177.22
86.90
14.02
-33.87
-68.06
-99.27
-133.70
-172.37
-211.26
-242.92
-261.03
-263.03
-250.55
-229.69
-206.75
-187.54
-175.07
-166.86
-158.26
-145.89
-129.46
-111.21
-95.19
-84.00
-79.03
-79.61
-82.49
-84.15
-82.51
-77.86
-71.73
-66.10
-60.94
-54.66
-43.98
-25.82
0.71
34.45
73.47
116.55
162.55
209.12
250.65
280.01
288.95
272.15
231.07
175.67
121.89
85.13
73.26
83.43
105.79
125.46
129.96
115.52
89.61
68.20
68.37
99.92
162.36
248.65
344.56
433.57
502.22
543.58
557.68
549.10
523.31
462.44
362.84
235.85
103.94
-10.71
-95.13
-146.70
-167.56
-170.99
-169.65
-169.63
-174.44
-186.33
-207.06
-238.04
-278.57
-325.29
-372.59
-411.51
-430.41
-421.83
-386.23
-331.73
-270.67
-215.33
-173.94
-148.70
-134.67
-123.72
-107.42
-84.75
-61.90
-45.73
-41.48
-51.14
-72.79
-100.64
-127.16
-146.02
-153.07
-146.73
-127.44
-97.95
-61.65
-27.14
-3.49
3.71
-5.19
-22.26
-39.77
-52.40
-58.25
-59.16
-55.93
-47.02
-29.77
-1.81
39.32
93.87
159.76
232.10
302.03
362.09
406.39
430.91
422.79
377.68
303.08
216.67
146.88
96.55
59.53
28.65
-3.68
-40.24
-79.05
-116.53
-149.59
-173.23
-185.78
-187.65
-183.08
-177.75
-174.83
-172.85
-168.80
-161.50
-152.37
-146.13
-144.54
-145.54
-143.51
-131.37
-102.84
-55.78
6.34
75.16
138.47
185.83
210.72
213.04
198.26
175.19
151.46
131.63
115.42
97.69
72.23
34.82
-12.80
-64.44
-112.03
-150.26
-175.91
-188.90
-192.00
-189.63
-185.97
-181.51
-175.22
-165.28
-152.34
-135.10
-111.45
-79.35
-38.36
10.92
70.01
139.58
218.02
297.12
367.99
421.72
451.73
455.28
420.94
350.08
257.15
179.99
129.30
100.68
79.05
53.49
17.80
-28.01
-75.65
-116.76
-141.58
-148.30
-140.54
-127.41
-118.69
-120.61
-133.45
-150.09
-162.67
-165.84
-160.67
-148.45
-129.53
-103.09
-69.15
-29.83
12.57
50.58
75.05
77.71
58.65
26.41
-7.10
-31.48
-47.07
-58.37
-71.37
-89.79
-115.35
-146.83
-179.53
-206.41
-220.97
-221.40
-210.99
-199.12
-189.80
-182.77
-175.88
-166.20
-152.01
-132.82
-108.89
-79.65
-43.99
-0.10
53.80
117.09
186.64
257.17
321.49
372.07
403.40
413.49
404.84
384.28
357.97
329.01
296.80
258.80
214.28
167.00
124.85
88.13
59.35
37.18
15.41
-14.50
-58.09
-113.07
-169.30
-212.40
-234.42
-232.28
-210.33
-179.20
-151.91
-140.06
-148.59
-173.96
-205.70
-230.44
-232.98
-203.95
-142.82
-59.61
26.71
96.47
136.31
142.34
120.80
86.06
53.57
35.76
37.54
54.83
80.63
109.72
139.48
170.64
206.44
240.95
267.27
290.31
307.68
308.77
287.86
243.73
179.96
103.91
23.74
-52.43
-120.10
-179.44
-228.55
-260.91
-270.69
-256.39
-222.64
-182.80
-145.29
-115.96
-98.12
-89.87
-84.63
-76.79
-64.30
-49.50
-37.51
-31.65
-32.91
-38.39
-41.79
-38.35
-29.35
-20.61
-15.61
-13.55
-9.46
1.38
19.57
41.93
62.45
73.96
70.73
50.59
17.16
-19.82
-48.98
-63.02
-61.42
-49.70
-35.27
-22.69
-11.89
-0.33
14.06
30.71
45.19
51.83
46.23
26.66
-5.53
-46.22
-90.30
-130.82
-159.73
-171.56
-165.48
-145.66
-119.37
-95.24
-75.06
-57.65
-41.01
-24.22
-8.74
3.02
9.46
11.69
14.47
23.70
44.00
75.63
112.99
145.69
163.15
158.39
130.56
85.09
31.92
-18.24
-56.57
-77.60
-79.85
-64.37
-35.88
-3.44
21.17
28.87
17.42
-8.27
-36.88
-62.35
-81.56
-93.27
-97.12
-92.89
-80.48
-60.23
-33.74
-3.58
27.72
60.09
95.69
137.34
185.91
238.39
287.45
323.55
338.67
329.87
301.76
263.95
226.77
196.97
175.69
159.14
141.06
114.94
75.79
21.82
-45.76
-122.49
-200.76
-270.86
-323.09
-350.60
-352.15
-332.19
-297.89
-256.45
-212.78
-168.73
-124.02
-77.53
-28.77
18.74
59.75
88.69
100.90
94.68
71.93
37.80
-2.57
-40.54
-67.96
-85.67
-98.14
-110.02
-122.74
-133.69
-138.11
-131.07
-110.35
-78.54
-43.95
-17.57
-8.87
-18.98
-38.33
-57.36
-69.65
-72.67
-67.66
-57.03
-41.99
-24.07
-2.45
24.76
57.59
94.87
134.95
176.29
219.36
264.69
309.05
348.35
377.62
390.53
383.22
356.86
308.12
243.49
187.80
150.55
126.90
110.04
92.38
69.89
43.94
20.28
7.48
11.47
31.37
63.72
103.91
145.70
182.57
208.14
216.67
205.46
174.64
126.41
68.06
10.07
-38.29
-71.45
-88.53
-92.54
-87.86
-79.65
-73.62
-73.32
-80.02
-93.48
-112.42
-135.08
-159.82
-185.38
-212.10
-242.64
-280.24
-326.96
-381.99
-440.31
-493.16
-530.56
-544.96
-534.54
-504.18
-463.07
-420.81
-383.82
-353.58
-327.58
-301.69
-272.82
-240.24
-205.41
-170.60
-137.74
-107.62
-79.84
-53.23
-26.13
3.34
37.69
79.68
131.27
192.06
257.83
320.26
368.60
393.21
389.52
360.89
318.29
277.06
251.89
252.37
280.98
333.73
402.48
477.29
547.86
604.00
636.41
638.13
606.71
546.04
466.27
381.86
307.30
253.17
223.54
215.96
223.43
237.09
249.10
254.43
251.62
241.95
228.66
215.10
203.68
195.23
188.67
181.49
170.62
153.46
129.09
98.74
65.26
31.62
-0.65
-32.35
-65.91
-103.71
-145.99
-189.93
-230.10
-260.61
-277.50
-280.05
-270.73
-253.85
-234.08
-215.71
-202.19
-196.20
-199.90
-214.66
-240.74
-277.41
-322.57
-373.51
-428.48
-486.87
-549.12
-615.56
-684.41
-750.41
-805.24
-839.77
-847.41
-828.56
-789.63
-740.60
-690.99
-646.26
-606.69
-569.22
-529.95
-486.54
-441.65
-399.34
-362.75
-332.32
-305.56
-278.49
-248.08
-212.92
-173.29
-133.47
-96.91
-65.35
-39.09
-18.59
-5.84
-4.83
-19.04
-33.91
-37.70
-21.16
16.67
67.21
118.33
162.34
199.63
233.62
275.73
328.15
384.78
434.22
466.39
477.97
474.43
461.47
448.56
444.28
450.22
463.39
477.53
485.18
479.58
456.26
414.42
359.13
300.65
249.34
214.24
199.74
204.62
223.49
249.90
279.07
309.79
342.72
376.18
405.19
421.65
417.23
387.31
334.06
266.66
198.70
142.94
106.00
87.11
79.09
72.49
59.52
36.79
6.13
-26.56
-53.39
-67.19
-64.21
-46.40
-21.33
-1.02
2.26
-19.02
-63.89
-122.87
-181.37
-225.41
-246.60
-244.26
-224.98
-199.32
-177.21
-164.45
-161.34
-163.65
-165.55
-162.77
-153.80
-140.48
-126.10
-111.81
-94.96
-70.04
-32.63
17.01
69.39
111.51
130.46
118.84
79.05
22.28
-36.29
-84.31
-116.85
-136.88
-151.10
-165.75
-184.41
-206.57
-229.19
-249.00
-264.15
-274.20
-278.86
-276.89
-260.36
-226.48
-181.04
-136.55
-104.62
-90.04
-90.96
-102.52
-120.08
-141.23
-164.98
-188.83
-207.82
-215.83
-207.96
-182.32
-140.40
-86.45
-26.69
30.80
77.91
108.69
121.78
121.18
114.68
110.44
113.31
122.57
132.55
136.80
132.48
122.33
112.86
110.25
116.87
130.56
146.45
160.05
169.60
176.23
182.54
191.11
203.55
220.37
241.10
263.81
284.63
298.16
298.92
283.27
250.76
204.04
147.84
87.54
28.45
-23.98
-64.06
-86.73
-89.12
-72.41
-42.27
-7.03
25.65
51.93
72.72
92.09
113.86
138.99
164.44
184.36
192.71
185.61
162.38
124.92
76.44
20.41
-39.26
-97.21
-146.34
-178.43
-186.49
-167.45
-123.68
-62.24
8.11
80.02
149.17
213.48
270.85
317.23
346.79
354.13
336.95
297.74
243.00
180.80
118.08
59.19
5.66
-42.39
-85.20
-122.92
-155.69
-184.26
-210.43
-237.12
-267.66
-304.22
-346.10
-388.66
-424.32
-444.86
-444.75
-423.63
-386.65
-342.54
-300.04
-264.47
-236.72
-214.31
-193.72
-172.22
-148.75
-123.20
-95.16
-62.98
-23.78
24.18
79.47
136.45
186.71
221.41
233.95
221.83
187.95
140.67
90.94
49.76
25.30
22.80
43.39
84.41
139.95
202.06
262.75
312.56
341.93
343.04
315.66
268.47
217.55
180.57
170.27
190.80
233.87
282.55
316.98
324.80
303.74
260.63
206.30
140.65
68.61
-2.35
-54.66
-86.59
-102.18
-110.21
-117.62
-130.39
-151.77
-179.02
-205.94
-224.67
-230.09
-218.65
-190.73
-150.87
-107.64
-70.83
-46.96
-38.58
-43.28
-56.39
-71.06
-82.42
-89.85
-97.60
-111.37
-133.05
-158.85
-179.63
-186.57
-173.90
-141.56
-94.03
-38.35
18.37
70.31
111.93
138.16
143.78
126.58
88.32
39.14
-4.75
-28.25
-25.39
-4.52
22.29
43.96
53.38
48.26
30.98
6.12
-20.79
-45.17
-65.21
-82.75
-104.29
-138.40
-191.12
-261.72
-341.95
-418.66
-478.57
-513.00
-519.51
-502.06
-468.04
-424.28
-375.07
-322.67
-268.94
-216.28
-167.64
-124.45
-86.22
-50.37
-12.53
31.05
81.23
134.77
185.27
225.15
250.22
260.63
260.66
258.46
262.97
280.16
310.35
347.46
379.86
396.61
389.88
357.03
303.20
239.64
180.34
138.07
120.90
128.97
158.33
201.04
237.67
250.39
228.62
173.47
96.23
21.36
-43.39
-95.60
-133.95
-157.08
-165.74
-161.53
-149.85
-138.75
-135.60
-144.89
-162.40
-178.19
-181.24
-163.34
-122.53
-63.86
3.06
67.54
119.59
154.02
169.28
166.55
150.30
127.83
107.31
95.27
94.13
100.61
108.93
113.26
110.34
100.82
87.81
74.21
60.88
46.94
31.38
15.84
3.88
-0.63
4.61
19.17
40.09
62.88
82.68
94.91
96.29
85.35
63.19
33.28
0.40
-31.47
-60.95
-89.55
-120.38
-155.32
-192.66
-226.37
-247.92
-249.97
-229.44
-188.71
-134.45
-75.86
-21.92
20.47
48.17
61.59
63.20
56.01
42.14
22.66
-1.69
-29.20
-56.06
-75.55
-79.77
-63.17
-26.03
24.53
76.34
116.35
135.16
127.06
93.82
45.39
-3.77
-41.33
-62.68
-71.07
-72.87
-72.62
-71.24
-66.84
-57.34
-43.56
-29.10
-18.50
-14.60
-17.08
-22.99
-28.42
-29.99
-26.34
-18.68
-10.06
-3.75
-1.62
-3.42
-7.23
-10.67
-11.75
-9.67
-5.14
0.08
4.15
6.05
5.89
4.67
3.61
3.68
5.25
7.96
10.95
13.37
14.81
15.33
15.42
15.65
16.54
18.39
21.31
25.20
29.89
35.24
41.04
46.92
52.35
56.54
58.51
57.32
52.15
42.66
29.02
11.88
-7.62
-28.01
-47.66
-64.89
-78.27
-86.85
-90.01
-87.69
-80.45
-69.44
-56.18
-42.33
-29.29
-17.95
-8.87
-1.66
4.50
10.48
16.73
23.21
29.32
34.22
37.17
37.49
35.50
32.09
28.42
25.24
22.79
20.70
18.34
15.29
10.99
5.94
0.86
-3.61
-7.47
-11.75
-18.09
-28.45
-41.03
-57.15
-77.47
-100.54
-122.04
-135.49
-134.58
-115.99
-81.14
-35.75
11.54
52.61
81.16
93.25
87.47
65.35
31.96
-4.19
-32.82
-45.99
-40.35
-18.48
11.84
43.88
71.84
91.56
99.94
95.04
76.23
46.10
10.81
-21.18
-42.09
-48.55
-43.26
-33.62
-27.49
-28.88
-36.21
-43.19
-41.64
-25.20
8.11
54.84
106.73
154.26
189.82
207.81
205.43
183.20
141.59
85.61
22.84
-39.48
-94.78
-136.99
-164.22
-178.07
-181.55
-178.38
-172.67
-169.30
-174.63
-192.41
-219.92
-251.44
-279.10
-294.26
-291.67
-271.50
-231.07
-178.72
-137.63
-114.03
-102.43
-96.47
-90.05
-79.75
-65.08
-47.42
-30.20
-14.95
1.21
20.82
45.25
75.11
109.72
148.33
191.18
237.04
284.42
332.15
375.54
407.50
421.69
414.96
389.62
353.34
313.21
273.48
235.18
195.62
151.63
103.71
56.47
10.42
-28.66
-57.23
-77.43
-95.32
-116.42
-141.90
-167.06
-188.64
-205.17
-216.67
-225.34
-233.31
-240.48
-244.07
-241.20
-230.62
-213.25
-190.18
-161.10
-125.65
-84.76
-41.99
-3.77
21.63
26.97
8.80
-30.37
-82.38
-136.60
-182.43
-211.92
-221.10
-210.53
-184.76
-150.63
-114.95
-82.47
-55.49
-33.82
-15.64
1.53
19.88
41.12
66.37
96.15
130.25
167.68
207.36
249.15
293.89
342.48
394.17
444.89
487.39
513.01
514.70
489.09
437.75
366.77
285.57
205.60
139.01
96.99
87.52
112.75
166.95
236.82
304.73
354.07
374.53
364.76
331.45
285.84
239.54
201.20
175.42
163.40
164.24
176.12
196.48
221.41
245.81
264.20
271.64
264.76
241.98
203.22
149.51
82.26
2.54
-87.43
-183.46
-279.54
-369.14
-446.89
-509.74
-557.14
-590.34
-612.90
-627.94
-637.20
-641.53
-641.53
-637.54
-628.61
-611.78
-583.08
-542.19
-491.14
-433.33
-372.23
-310.40
-249.77
-192.12
-140.13
-98.55
-76.79
-82.21
-115.38
-168.30
-227.04
-276.78
-305.97
-309.03
-267.28
-178.87
-61.00
57.42
152.52
215.76
251.03
267.02
271.37
268.62
257.93
239.22
215.72
193.16
176.64
167.39
163.01
159.57
153.76
142.20
124.80
105.15
88.14
78.25
76.73
82.17
92.10
104.60
117.41
129.85
143.20
159.86
182.02
210.11
242.33
274.47
300.22
311.47
301.61
268.38
214.83
148.20
76.87
7.58
-55.78
-111.07
-158.64
-199.82
-235.30
-265.09
-289.38
-309.85
-329.57
-351.53
-376.41
-401.19
-419.57
-424.04
-409.70
-377.01
-332.10
-284.56
-243.41
-213.81
-195.72
-184.93
-175.45
-162.20
-142.39
-115.43
-82.32
-44.55
-3.50
39.62
84.02
129.48
175.98
223.81
273.87
327.45
385.74
448.71
513.62
574.44
622.58
649.39
648.90
620.32
568.08
500.04
424.54
347.97
273.87
203.35
136.54
73.50
14.41
-40.84
-93.19
-144.28
-196.16
-250.27
-306.54
-362.41
-412.64
-450.37
-469.32
-466.25
-442.35
-403.07
-355.85
-307.20
-260.71
-216.75
-173.70
-129.92
-84.81
-38.62
8.34
56.74
108.50
166.21
231.62
304.10
379.46
449.77
505.11
536.40
538.66
513.11
466.77
409.88
352.27
300.55
257.26
222.10
193.73
171.13
153.56
139.61
126.45
110.07
86.62
53.88
12.47
-34.58
-82.87
-128.48
-169.60
-207.45
-245.95
-290.14
-343.35
-404.35
-466.08
-516.96
-544.83
-541.90
-508.33
-452.39
-387.35
-326.14
-276.67
-239.84
-210.89
-182.27
-147.22
-102.10
-47.54
11.60
66.77
107.43
123.94
111.27
72.15
17.63
-35.48
-70.10
-75.46
-51.42
-8.40
36.73
67.21
72.03
48.65
2.47
-56.22
-115.82
-166.02
-199.30
-211.60
-202.28
-173.99
-132.22
-83.96
-36.24
5.25
37.45
60.63
77.99
94.93
118.13
153.67
205.57
274.43
356.59
444.44
527.87
596.57
643.10
665.28
666.51
654.49
637.59
621.22
605.87
587.01
557.84
512.61
449.23
370.51
284.19
201.20
132.73
86.83
65.02
61.33
64.45
62.10
46.03
14.76
-27.08
-72.56
-116.52
-158.06
-199.36
-243.11
-290.17
-338.60
-384.16
-421.16
-443.38
-445.42
-425.72
-387.62
-339.70
-293.72
-259.99
-243.13
-240.49
-244.48
-247.56
-248.05
-248.78
-254.09
-265.95
-282.45
-299.65
-315.09
-329.82
-347.49
