1539692528.00
64.000000
-0.00
-0.00
-0.00
-0.00
-0.00
-0.00
-0.00
-0.00
-0.00
-0.00
0.00
0.01
0.01
-0.00
-0.03
-0.05
-0.05
0.00
0.13
0.36
0.66
1.01
1.37
1.72
2.06
2.40
2.79
3.24
3.80
4.42
5.06
5.66
6.20
6.68
7.15
7.68
8.31
9.14
10.09
11.04
11.88
12.56
13.14
13.76
14.65
15.96
17.91
20.32
22.90
25.38
27.58
29.57
31.68
34.32
37.81
42.54
48.15
54.10
59.83
64.97
69.58
74.14
79.34
85.71
93.76
103.00
112.62
121.73
129.77
136.75
143.30
150.75
157.77
166.64
177.95
191.79
206.97
220.57
228.25
225.36
208.53
176.87
132.76
80.05
23.07
-34.94
-92.44
-149.16
-205.23
-260.37
-313.74
-363.88
-409.84
-450.91
-486.50
-515.73
-537.20
-549.17
-549.89
-538.26
-514.05
-478.46
-433.60
-382.10
-326.58
-269.31
-211.99
-155.91
-102.08
-51.36
-4.75
36.88
72.87
102.95
127.27
146.33
160.85
171.52
178.96
183.53
185.52
185.15
182.73
178.64
173.32
167.20
160.61
153.76
146.73
139.60
132.40
125.23
118.23
111.53
105.23
99.33
93.78
88.47
83.31
78.32
73.59
69.32
65.69
62.76
60.49
58.63
56.92
55.16
53.35
51.74
50.70
50.53
51.31
52.82
54.42
55.39
55.13
53.40
50.44
46.79
42.95
39.05
34.60
28.60
20.01
8.25
-6.47
-23.00
-39.68
-54.96
-68.19
-79.59
-90.38
-101.23
-113.10
-126.26
-140.18
-153.62
-164.69
-170.97
-169.89
-159.75
-141.82
-118.39
-93.61
-71.70
-54.98
-42.85
-32.22
-19.61
-3.02
16.09
33.99
46.31
49.98
44.23
30.90
13.96
-1.16
-8.94
-5.23
11.33
37.90
68.90
97.83
119.80
132.87
137.75
136.16
129.46
118.34
103.33
85.84
68.22
52.99
41.32
32.93
25.88
17.94
7.74
-4.53
-17.35
-28.96
-38.09
-44.40
-48.36
-50.80
-52.47
-53.67
-54.42
-54.40
-53.45
-51.47
-48.44
-44.33
-39.06
-32.49
-24.39
-14.52
-2.15
13.49
32.70
54.41
75.67
92.16
99.56
95.39
80.08
56.80
29.94
3.43
-20.37
-40.67
-57.31
-69.96
-77.89
-80.46
-77.89
-71.58
-63.56
-55.60
-48.45
-41.69
-34.57
-26.44
-17.07
-6.82
3.49
12.91
20.73
26.60
30.58
33.02
34.37
35.05
35.23
34.90
33.99
32.42
30.30
27.83
25.25
22.82
20.69
18.87
17.27
15.86
14.50
13.13
11.77
10.46
9.26
8.20
7.28
6.46
5.72
5.03
4.38
3.79
3.25
2.76
2.30
1.87
1.47
1.12
0.81
0.57
0.39
0.29
0.24
0.26
0.33
0.46
0.64
0.87
1.14
1.43
1.78
2.15
2.56
2.99
3.45
3.93
4.40
4.88
5.33
5.78
6.24
6.73
7.24
7.78
8.31
8.81
9.20
9.34
9.15
8.45
7.15
5.11
2.30
-1.30
-5.57
-10.33
-15.31
-20.16
-24.46
-27.83
-29.90
-30.42
-29.27
-26.42
-21.93
-16.18
-9.61
-2.62
4.37
11.03
17.08
22.32
26.67
30.15
32.82
34.89
36.55
38.00
39.41
40.82
42.20
43.44
44.32
44.58
44.02
42.37
39.48
35.13
29.16
21.43
11.79
0.31
-12.71
-26.71
-40.90
-54.47
-66.62
-76.80
-84.72
-90.28
-93.51
-94.37
-92.72
-88.40
-81.30
-71.65
-60.18
-48.03
-36.52
-26.80
-19.47
-14.38
-10.79
-7.59
-3.82
0.80
5.89
10.59
14.05
15.97
16.86
18.06
20.57
24.97
30.77
36.56
40.17
39.31
32.08
17.50
-3.74
-28.56
-51.85
-67.69
-71.18
-60.82
-39.13
-11.77
15.13
35.37
46.55
49.72
47.75
44.52
43.37
46.17
52.62
60.21
64.95
63.43
54.42
38.96
22.42
10.19
4.94
5.59
8.16
8.35
3.94
-4.32
-13.83
-21.31
-24.82
-24.16
-20.90
-17.35
-15.40
-15.80
-18.41
-23.26
-30.53
-40.31
-51.18
-59.21
-58.59
-44.23
-15.01
23.99
62.23
88.26
94.36
79.81
50.45
15.41
-17.24
-42.07
-55.73
-57.48
-48.25
-30.05
-6.15
18.64
38.80
49.98
50.80
43.30
31.47
19.42
9.85
3.72
0.94
1.18
3.91
7.72
9.87
7.15
-2.09
-16.28
-30.81
-40.41
-42.04
-36.41
-27.14
-18.29
-12.13
-8.34
-5.26
-1.91
0.75
0.47
-4.60
-14.26
-25.86
-35.31
-39.05
-35.37
-25.09
-10.98
3.36
15.03
22.77
27.01
29.14
29.97
29.33
25.97
18.55
7.00
-6.31
-16.93
-20.10
-12.74
4.65
28.50
53.48
74.15
86.38
88.26
79.96
63.06
39.92
12.90
-14.88
-39.72
-58.26
-68.38
-69.74
-63.98
-54.12
-40.75
-27.14
-17.21
-13.15
-14.58
-19.69
-26.41
-33.08
-38.48
-41.89
-43.73
-44.41
-44.30
-43.86
-43.50
-43.23
-42.78
-41.50
-38.71
-34.45
-28.78
-21.99
-14.57
-7.26
-0.13
6.94
14.41
22.82
32.52
44.20
58.34
74.58
91.19
105.17
113.02
112.25
102.49
85.86
66.58
49.15
36.72
30.17
28.22
28.21
27.17
22.52
11.67
-5.46
-26.32
-45.82
-57.52
-55.50
-36.99
-4.12
36.01
73.09
96.57
98.47
75.97
32.36
-23.38
-78.47
-119.01
-133.50
-116.29
-69.72
-4.58
62.38
112.93
132.69
115.73
66.20
-2.97
-74.58
-132.37
-165.58
-170.67
-150.22
-110.43
-58.81
-3.21
48.33
88.01
109.74
110.52
91.35
56.33
11.28
-38.08
-86.69
-129.48
-160.27
-171.75
-157.66
-115.80
-50.61
26.77
101.13
157.46
184.95
179.36
143.52
86.65
22.49
-33.41
-67.39
-71.33
-45.45
1.13
52.83
92.43
106.79
91.27
50.96
-1.48
-50.61
-83.46
-93.23
-80.64
-52.69
-19.51
8.99
25.95
28.77
18.89
0.44
-21.33
-41.26
-54.93
-59.09
-52.10
-34.60
-9.77
16.94
39.15
51.44
51.08
38.99
19.46
-1.05
-15.86
-20.51
-14.36
-1.07
13.05
21.85
22.26
15.49
6.12
-0.70
-1.95
2.04
8.58
14.66
18.58
19.93
18.43
13.06
2.37
-13.83
-33.10
-50.53
-61.00
-61.94
-54.87
-44.40
-35.52
-30.82
-29.46
-28.50
-25.59
-20.95
-17.40
-18.34
-25.14
-35.46
-43.90
-44.29
-32.65
-9.34
20.93
50.65
72.14
80.11
73.41
55.59
33.67
15.41
6.10
6.47
12.86
19.63
22.43
20.22
14.95
8.85
2.42
-5.89
-16.96
-28.23
-33.29
-25.25
-1.81
31.77
64.27
84.07
84.92
68.74
43.67
19.25
2.14
-5.92
-6.60
-2.49
4.77
14.47
25.93
37.97
48.94
57.31
61.60
60.81
54.03
40.50
19.47
-9.02
-43.16
-79.05
-110.43
-130.65
-133.79
-116.93
-82.00
-36.16
10.17
46.78
67.11
69.88
57.61
35.46
9.18
-16.47
-38.44
-54.99
-65.03
-68.13
-60.44
-42.51
-20.08
-1.08
9.26
10.52
5.81
-0.58
-5.21
-6.44
-5.20
-3.29
-2.09
-2.12
-3.24
-4.92
-6.43
-7.18
-6.81
-5.99
-5.53
-5.87
-6.97
-8.54
-10.24
-11.76
-12.90
-13.58
-14.26
-15.36
-17.01
-19.06
-21.25
-23.33
-25.18
-26.76
-28.12
-29.55
-31.18
-32.91
-34.31
-34.80
-33.72
-30.58
-25.20
-17.77
-8.89
0.67
10.51
20.46
30.63
41.30
52.46
63.60
73.57
80.86
84.19
82.86
77.20
68.54
58.79
49.56
41.51
34.01
25.18
14.04
0.50
-14.32
-28.16
-38.29
-42.56
-40.08
-30.96
-16.19
2.86
23.34
40.98
51.04
50.50
40.14
25.04
12.54
8.70
15.17
28.03
40.16
45.08
39.66
26.17
9.81
-4.91
-16.66
-27.05
-38.61
-52.25
-66.18
-76.95
-81.46
-78.75
-70.99
-62.62
-58.16
-60.38
-68.88
-80.14
-88.94
-90.52
-82.80
-67.36
-48.69
-31.90
-20.76
-15.37
-12.55
-7.30
4.93
26.46
56.56
91.61
126.20
153.61
166.95
160.69
132.85
87.19
33.94
-12.34
-37.59
-34.33
-5.63
35.41
71.22
87.40
78.71
50.24
13.67
-19.00
-40.72
-50.08
-50.81
-47.71
-43.22
-36.61
-26.29
-12.28
2.74
14.50
19.36
16.39
7.96
-1.53
-7.60
-7.90
-2.97
4.44
10.90
13.84
12.57
8.39
3.64
0.58
0.27
2.42
5.77
8.96
11.13
12.10
12.25
12.17
12.20
12.34
12.42
12.45
12.75
13.60
15.17
17.14
18.73
19.04
17.04
11.71
2.11
-11.94
-29.31
-46.94
-60.23
-64.57
-57.51
-40.35
-17.74
3.18
16.77
21.00
17.66
10.75
4.05
-0.62
-3.54
-5.91
-8.47
-10.80
-11.74
-10.47
-7.20
-3.18
0.06
1.26
0.22
-2.22
-4.66
-5.81
-5.09
-2.81
0.06
2.36
3.29
2.73
1.21
-0.36
-1.17
-0.85
0.42
2.09
3.49
4.16
4.04
3.39
2.69
2.34
2.52
3.17
4.03
4.81
5.29
5.45
5.39
5.29
5.31
5.50
5.85
6.30
6.74
7.13
7.46
7.74
7.98
8.20
8.42
8.63
8.83
9.03
9.23
9.43
9.64
9.86
10.08
10.31
10.54
10.77
11.00
11.22
11.43
11.62
11.79
11.92
12.01
12.05
12.03
11.93
11.74
11.44
11.01
10.43
9.66
8.70
7.52
6.08
4.36
2.31
-0.10
-2.88
-6.03
-9.54
-13.42
-17.68
-22.37
-27.60
-33.44
-39.99
-47.25
-55.22
-63.91
-73.37
-83.65
-94.89
-107.25
-120.79
-135.46
-150.97
-166.80
-182.23
-196.46
-208.71
-218.26
-224.46
-226.72
-224.60
-217.52
-204.98
-186.72
-163.07
-135.03
-104.29
-72.92
-42.86
-15.45
8.91
30.79
51.25
71.27
91.21
110.51
127.98
142.38
153.17
160.89
167.16
173.94
182.60
193.18
204.07
212.79
217.08
216.09
211.02
204.80
201.09
203.13
212.84
230.47
254.44
281.30
305.91
322.13
324.69
311.19
283.34
246.63
207.30
169.34
132.42
92.42
44.58
-12.58
-74.74
-132.64
-175.55
-196.28
-194.48
-176.86
-154.35
-137.79
-134.41
-145.97
-168.97
-196.38
-219.43
-229.61
-220.82
-191.54
-146.01
-93.58
-45.58
-11.09
6.30
8.84
2.22
-8.01
-18.93
-29.77
-40.13
-47.85
-48.81
-38.94
-16.70
15.60
52.82
89.12
120.36
145.02
163.55
177.01
185.78
189.44
186.74
176.33
157.36
129.58
93.15
48.64
-3.00
-60.04
-119.80
-178.57
-231.68
-273.44
-298.15
-301.13
-280.36
-238.14
-181.80
-122.67
-73.07
-42.26
-33.54
-43.46
-63.79
-85.21
-100.69
-107.10
-104.68
-95.12
-79.30
-57.47
-29.68
3.68
41.20
80.82
120.19
157.06
189.47
215.52
232.45
236.61
224.07
192.29
142.33
80.13
15.62
-40.31
-78.83
-97.47
-100.88
-98.37
-99.54
-110.25
-131.04
-158.28
-187.01
-213.44
-236.55
-257.41
-277.35
-296.81
-314.72
-328.88
-336.70
-336.36
-325.56
-301.64
-261.84
-204.49
-130.75
-45.96
40.67
118.49
178.69
217.83
238.48
247.40
252.00
257.10
263.73
270.11
273.83
273.55
269.53
262.61
253.17
240.80
224.76
204.94
182.35
158.84
136.69
117.63
102.15
89.51
78.20
66.71
54.21
40.87
27.70
16.00
6.82
0.42
-3.77
-6.81
-9.80
-13.41
-17.66
-22.09
-25.94
-28.65
-30.01
-30.29
-30.00
-29.69
-29.67
-29.99
-30.46
-30.76
-30.64
-30.02
-28.98
-27.69
-26.34
-25.06
-23.78
-22.52
-21.29
-20.05
-18.80
-17.55
-16.34
-15.18
-14.07
-13.03
-12.07
-11.19
-10.38
-9.62
-8.93
-8.29
-7.70
-7.15
-6.65
-6.21
-5.81
-5.44
-5.10
-4.79
-4.51
-4.25
-4.02
-3.80
-3.60
-3.40
-3.20
-3.02
-2.86
-2.77
-2.75
-2.80
-2.90
-3.02
-3.07
-3.06
-2.95
-2.79
-2.60
-2.44
-2.34
-2.30
-2.33
-2.34
-2.31
-2.21
-2.08
-2.00
-2.04
-2.23
-2.56
-2.90
-3.12
-3.12
-2.91
-2.63
-2.51
-2.75
-3.43
-4.43
-5.47
-6.21
-6.40
-6.06
-5.46
-5.11
-5.43
-6.63
-8.52
-10.59
-12.20
-12.84
-12.42
-11.31
-10.27
-10.05
-11.12
-13.37
-16.16
-18.70
-20.15
-20.12
-18.70
-16.42
-14.21
-13.42
-15.47
-20.96
-28.92
-36.02
-37.42
-28.60
-7.58
23.84
60.52
95.76
123.29
138.69
139.77
126.32
100.05
64.69
25.77
-10.18
-37.32
-52.54
-56.31
-52.29
-45.42
-39.85
-37.60
-38.79
-42.10
-45.82
-48.71
-49.88
-49.20
-47.22
-44.94
-43.47
-44.07
-47.58
-53.94
-61.50
-66.80
-65.45
-53.85
-31.12
-0.26
32.61
60.75
79.63
88.52
90.26
88.92
87.56
86.90
85.94
83.31
78.90
74.17
70.90
70.74
73.95
79.91
87.41
94.17
97.06
92.37
77.58
53.18
23.61
-4.22
-24.60
-35.12
-38.02
-38.46
-41.21
-48.09
-57.74
-67.37
-75.18
-81.06
-85.33
-87.14
-83.79
-72.35
-51.74
-25.64
-0.19
18.40
26.67
25.64
19.23
12.30
7.85
6.58
7.64
9.99
12.90
15.65
16.74
14.00
5.74
-7.87
-24.11
-38.39
-45.79
-44.04
-34.03
-19.21
-3.79
9.22
18.79
25.48
30.44
34.42
37.51
39.66
41.02
41.98
43.04
44.55
46.28
47.69
48.04
46.64
43.22
37.92
31.22
23.73
15.99
8.27
0.65
-6.62
-13.72
-20.51
-26.63
-31.65
-35.15
-36.98
-37.24
-36.34
-34.97
-33.43
-31.96
-30.60
-29.29
-27.87
-26.28
-24.48
-22.65
-20.96
-19.49
-18.25
-17.17
-16.12
-15.01
-13.84
-12.70
-11.71
-10.95
-10.44
-10.09
-9.72
-9.18
-8.40
-7.47
-6.67
-6.26
-6.45
-7.20
-8.25
-9.18
-9.59
-9.33
-8.61
-7.97
-8.07
-9.32
-11.69
-14.65
-17.36
-19.06
-19.45
-18.87
-18.32
-18.85
-21.21
-25.32
-30.36
-35.01
-38.21
-39.51
-39.31
-38.69
-38.77
-40.49
-44.43
-50.96
-59.83
-69.71
-77.65
-79.64
-71.96
-53.19
-25.58
5.38
32.89
51.67
59.94
59.64
54.64
48.55
43.11
38.16
32.80
26.63
20.34
15.20
12.08
10.69
9.87
8.15
4.41
-1.41
-8.48
-15.46
-21.15
-25.08
-27.69
-29.91
-32.82
-37.11
-42.77
-49.25
-55.53
-60.66
-64.09
-65.71
-65.72
-64.28
-61.38
-56.71
-49.65
-39.48
-25.78
-8.77
10.83
31.96
53.48
74.25
93.41
110.21
123.59
133.82
141.04
145.44
147.29
146.81
144.22
140.71
135.51
128.46
119.39
108.02
94.18
77.91
59.45
39.15
17.62
-5.08
-27.47
-48.54
-67.67
-84.41
-98.54
-109.98
-118.91
-125.54
-130.32
-133.48
-135.19
-135.58
-134.64
-132.24
-127.95
-121.44
-112.23
-100.16
-85.07
-67.25
-47.28
-25.95
-4.17
17.09
36.26
52.72
66.00
75.94
82.57
86.14
87.05
85.87
83.19
80.00
76.46
72.78
69.15
65.66
62.34
59.16
56.17
53.32
50.61
48.03
45.63
43.42
41.37
39.46
37.63
35.93
34.36
32.93
31.55
30.18
28.61
26.68
24.52
21.66
18.00
13.55
8.48
3.00
-2.59
-7.98
-12.96
-17.38
-21.15
-24.12
-26.17
-27.21
-27.26
-26.43
-25.03
-23.46
-22.16
-21.43
-21.23
-21.23
-20.97
-19.96
-17.99
-15.25
-12.27
-9.68
-7.90
-6.95
-6.30
-5.13
-2.64
1.50
6.90
12.56
17.30
20.34
21.59
21.98
23.15
26.73
33.54
43.12
53.84
63.54
70.53
73.96
74.43
73.97
75.44
81.69
94.40
113.19
134.59
152.38
158.90
148.37
119.71
77.63
31.19
-9.67
-37.68
-50.46
-47.85
-32.87
-10.56
13.49
34.22
47.87
52.63
49.22
40.71
31.39
24.44
20.77
19.56
20.00
23.15
32.23
50.81
79.82
115.78
151.20
177.94
191.20
191.65
184.71
177.24
174.13
176.14
180.33
182.12
177.97
166.91
150.40
131.11
111.32
92.09
73.17
53.53
32.00
8.13
-17.57
-43.66
-68.13
-89.04
-104.75
-114.12
-116.20
-110.15
-95.53
-72.83
-44.25
-13.78
13.55
33.14
42.46
41.76
33.99
23.62
15.32
12.68
17.62
30.16
48.55
69.52
88.92
102.94
109.23
107.56
99.63
88.02
74.80
61.04
46.69
31.36
14.92
-2.33
-20.02
-38.26
-57.75
-79.58
-104.54
-132.62
-162.82
-193.67
-223.83
-252.67
-280.48
-308.02
-336.01
-364.83
-394.75
-426.47
-460.83
-498.01
-535.96
-569.47
-590.57
-590.80
-564.21
-509.86
-432.53
-341.21
-246.27
-157.03
-80.51
-21.65
15.99
30.11
20.81
-8.18
-48.75
-89.88
-120.99
-135.98
-135.92
-128.64
-125.11
-134.18
-158.70
-194.95
-235.56
-273.41
-304.38
-327.41
-342.17
-347.13
-339.24
-315.97
-277.88
-229.56
-178.09
-129.68
-86.72
-47.23
-7.04
37.24
85.85
136.15
184.18
227.16
264.84
298.95
331.59
363.95
396.29
428.22
458.83
485.85
505.84
514.64
509.15
489.61
460.94
432.03
412.16
406.45
411.56
417.27
411.33
385.83
341.61
288.65
242.21
215.85
215.32
233.16
255.05
267.48
263.72
245.09
218.22
190.58
166.46
145.68
118.85
78.50
24.75
-34.46
-89.02
-132.12
-162.77
-184.45
-202.49
-230.79
-277.40
-339.67
-406.05
-464.26
-507.46
-536.13
-555.17
-570.79
-600.40
-655.07
-733.36
-823.02
-910.28
-986.54
-1050.62
-1105.57
-1077.25
-928.76
-679.30
-393.19
-131.54
76.99
231.73
342.75
421.45
477.33
505.45
503.01
476.19
439.28
401.63
373.88
359.40
356.59
362.46
365.29
357.41
339.89
320.79
308.05
305.27
309.98
315.81
316.05
302.61
269.80
218.53
154.87
85.12
13.20
-52.20
-104.12
-138.91
-161.20
-178.91
-196.66
-213.37
-223.73
-220.90
-200.42
-163.43
-116.24
-69.45
-33.44
-13.49
-8.94
-14.86
-24.90
-34.40
-42.42
-50.98
-61.02
-72.40
-82.96
-90.36
-93.43
-92.57
-89.47
-86.83
-86.74
-89.74
-95.19
-100.98
-105.23
-107.03
-106.45
-104.03
-100.47
-95.57
-87.55
-78.15
-67.05
-54.04
-39.37
-23.89
-8.68
5.16
16.88
26.27
33.31
38.68
42.74
45.58
47.20
47.78
47.78
47.85
48.60
50.06
52.16
54.26
55.60
55.91
55.81
56.61
59.91
66.76
76.95
89.23
101.44
111.47
118.36
122.92
127.43
134.78
146.98
164.25
184.75
205.46
223.35
236.97
247.15
256.54
268.69
286.90
313.48
349.13
392.17
437.59
476.87
499.47
496.35
464.61
410.38
347.78
293.41
258.92
245.78
245.29
243.87
230.30
200.65
158.43
110.81
64.05
21.02
-17.79
-51.76
-78.59
-95.29
-100.87
-98.45
-94.43
-95.05
-103.01
-116.10
-128.85
-135.78
-133.95
-123.47
-106.49
-85.54
-62.73
-40.03
-20.06
-6.46
-3.28
-13.08
-35.01
-64.24
-93.14
-113.76
-120.90
-114.07
-97.85
-80.03
-68.44
-67.04
-74.13
-83.59
-88.57
-85.35
-74.81
-61.04
-47.68
-35.34
-21.70
-4.37
15.64
31.99
34.50
13.83
-33.05
-100.18
-174.21
-239.85
-285.89
-308.53
-311.00
-300.00
-281.97
-261.22
-240.62
-223.18
-212.92
-213.54
-225.69
-244.91
-262.72
-269.81
-260.40
-234.88
-199.06
-160.94
-126.90
-99.65
-78.12
-58.98
-38.51
-13.87
16.69
53.76
96.92
144.44
193.39
239.53
278.12
304.43
314.46
305.77
278.57
236.46
186.08
135.58
92.10
59.64
38.23
25.03
16.55
10.75
7.74
8.66
14.12
22.91
32.30
39.45
42.99
43.76
44.17
46.68
52.20
59.46
65.64
67.74
64.19
55.67
44.83
34.65
27.00
21.94
18.18
14.43
10.51
7.44
6.50
7.98
10.63
12.25
10.88
5.86
-2.10
-11.62
-21.60
-31.65
-41.81
-52.04
-61.75
-69.78
-74.82
-75.86
-72.42
-64.74
-53.59
-40.15
-25.73
-11.45
2.00
14.37
25.54
35.35
43.54
49.92
54.65
58.34
61.75
65.49
69.83
74.77
80.34
86.74
94.18
102.46
110.63
117.18
120.52
119.62
114.48
105.96
95.31
83.64
71.57
59.21
46.51
33.60
21.05
9.93
1.58
-2.82
-2.72
1.48
8.38
16.09
22.81
27.42
29.67
30.00
29.05
27.20
24.40
20.36
14.82
7.96
0.40
-6.86
-12.82
-16.74
-18.34
-17.84
-15.80
-12.92
-9.83
-6.94
-4.40
-2.22
-0.41
0.79
0.93
-0.57
-4.04
-9.23
-15.32
-21.08
-25.40
-27.62
-27.73
-26.20
-23.77
-21.15
-19.00
-17.87
-18.24
-20.36
-24.13
-28.98
-33.88
-37.63
-39.11
-37.55
-32.72
-24.99
-15.32
-5.09
4.24
11.45
15.93
17.78
17.71
16.63
15.33
14.29
13.70
13.55
13.79
14.29
14.65
14.11
11.66
6.40
-2.07
-13.33
-26.47
-40.43
-54.21
-67.06
-78.25
-87.10
-93.06
-95.99
-96.25
-94.87
-93.13
-91.74
-90.47
-88.16
-83.42
-75.32
-63.95
-50.07
-35.09
-20.47
-6.96
5.73
18.69
33.10
49.33
66.50
82.94
96.13
103.68
104.47
99.24
90.39
81.02
74.01
71.24
73.60
79.82
86.63
89.71
85.29
71.42
48.63
19.83
-13.90
-47.64
-75.17
-91.94
-97.20
-93.28
-83.40
-70.27
-55.80
-41.58
-28.51
-17.73
-10.09
-5.81
-4.19
-3.92
-3.90
-3.54
-2.85
-1.76
-0.55
0.60
1.84
3.86
7.59
13.33
20.91
29.64
38.67
46.88
53.38
57.57
59.37
59.20
56.94
52.75
46.80
39.60
31.73
23.84
16.38
9.73
4.07
-2.09
-10.09
-20.90
-34.67
-50.62
-67.13
-82.32
-94.33
-101.61
-105.09
-105.78
-104.51
-101.38
-95.63
-86.31
-73.07
-56.91
-34.87
-10.25
12.01
26.99
31.29
23.69
4.58
-24.99
-63.94
-104.15
-139.22
-164.60
-179.90
-188.10
-192.97
-197.00
-200.30
-200.12
-191.30
-170.09
-134.64
-87.17
-33.95
16.51
56.59
82.45
95.12
99.23
98.82
96.33
92.07
85.51
76.77
67.31
59.37
54.85
54.28
55.85
56.99
55.34
50.09
42.10
33.33
25.86
21.05
19.09
18.72
18.18
15.96
11.44
5.11
-1.77
-7.93
-12.53
-15.45
-17.37
-19.35
-22.35
-26.87
-32.70
-38.97
-44.66
-48.88
-51.11
-51.27
-49.60
-46.52
-42.32
-37.33
-30.82
-22.03
-10.52
3.72
19.88
36.61
52.39
65.85
76.37
84.40
90.80
96.47
101.69
106.26
109.85
112.16
112.72
110.59
104.36
92.45
74.35
51.56
27.91
8.23
-3.08
-4.83
0.59
8.81
15.53
17.98
15.42
8.63
-1.12
-12.89
-26.36
-41.13
-56.42
-71.22
-84.59
-96.50
-108.25
-122.41
-141.70
-166.88
-195.01
-218.63
-227.65
-213.19
-171.38
-104.86
-21.80
67.43
153.30
226.76
280.40
309.79
313.48
293.53
256.45
212.22
171.95
143.91
130.78
130.07
136.35
144.09
149.45
151.77
150.24
144.11
132.04
113.08
87.62
57.38
24.87
-7.14
-36.10
-59.94
-76.66
-85.36
-85.31
-75.77
-56.29
-27.32
9.28
50.47
92.43
131.59
163.50
184.73
193.18
187.90
169.44
138.44
95.97
43.86
-15.08
-79.16
-146.76
-216.10
-285.75
-354.88
-423.65
-493.02
-564.52
-625.64
-667.05
-683.51
-674.28
-641.22
-586.39
-511.90
-421.66
-323.01
-226.14
-142.72
-81.15
-43.57
-26.10
-21.59
-23.17
-26.32
-28.78
-31.69
-33.94
-33.93
-30.11
-21.77
-9.53
4.80
18.78
30.54
39.24
45.49
50.17
54.27
58.44
62.57
65.98
67.96
68.52
66.71
63.92
61.84
61.94
65.05
71.00
78.68
86.64
93.79
99.81
106.94
117.96
135.78
162.76
200.22
248.34
306.43
373.46
439.18
494.16
529.80
540.89
527.08
492.30
442.73
384.56
322.69
260.40
201.23
147.82
101.93
64.32
34.61
11.43
-6.97
-22.46
-36.71
-49.78
-61.22
-70.33
-76.65
-80.22
-81.65
-81.86
-81.84
-82.42
-83.44
-84.43
-84.80
-84.07
-82.09
-79.11
-75.55
-71.98
-68.86
-66.23
-63.94
-61.70
-59.24
-56.34
-52.96
-49.18
-45.22
-41.35
-37.83
-34.80
-32.22
-29.91
-27.53
-24.79
-21.47
-17.63
-13.56
-9.78
-6.70
-4.47
-2.86
-1.37
0.62
3.55
7.43
11.92
16.71
21.08
24.90
28.49
32.47
37.35
43.29
50.13
57.86
65.67
72.68
77.55
78.31
72.81
59.58
38.95
13.44
-12.80
-35.63
-52.43
-62.93
-68.81
-72.16
-74.26
-74.87
-72.88
-67.54
-59.54
-50.89
-43.68
-39.10
-36.79
-35.41
-33.69
-31.43
-29.51
-28.82
-29.30
-29.51
-27.67
-22.62
-14.87
-6.69
-0.81
0.88
-1.59
-6.66
-11.46
-12.58
-6.38
10.17
38.21
76.01
118.39
158.17
187.82
202.46
200.56
184.75
160.65
134.78
113.15
99.96
97.70
106.42
124.26
146.23
166.58
180.60
185.74
181.32
167.40
146.92
122.26
96.16
68.52
39.64
11.01
-15.05
-36.90
-54.58
-68.55
-81.08
-93.80
-111.91
-138.41
-172.36
-209.56
-245.25
-276.56
-301.82
-323.51
-344.74
-373.91
-416.09
-469.99
-528.53
-582.79
-626.07
-653.73
-667.33
-632.30
-532.96
-379.61
-204.09
-37.91
102.60
204.52
281.67
342.13
387.50
410.91
407.27
378.46
330.78
273.07
214.37
165.00
131.27
115.16
109.83
105.59
94.18
71.82
40.31
5.88
-21.93
-37.32
-40.80
-39.99
-42.94
-53.61
-70.93
-91.42
-112.67
-134.47
-146.65
-145.25
-134.47
-123.24
-118.49
-121.11
-127.27
-130.82
-124.81
-104.18
-69.07
-24.05
23.58
66.24
98.26
116.94
123.54
122.54
119.29
116.22
113.86
111.66
110.46
112.38
118.99
130.83
147.38
167.22
187.63
206.03
221.70
236.01
251.86
270.43
290.17
306.88
315.02
309.89
290.07
259.15
221.79
190.59
176.70
184.33
209.80
243.40
278.12
309.73
336.12
354.48
362.90
359.08
341.67
311.63
271.62
225.34
176.10
126.22
73.27
15.29
-48.42
-116.03
-183.97
-248.67
-307.23
-358.15
-401.11
-442.34
-486.48
-534.76
-584.24
-629.97
-668.15
-697.05
-717.01
-729.58
-744.26
-767.80
-801.50
-840.54
-877.20
-904.96
-919.90
-920.39
-859.45
-715.50
-499.60
-252.21
-17.53
177.91
327.42
436.05
512.94
566.85
596.86
602.19
586.27
555.70
518.00
478.73
440.55
403.87
367.90
325.38
273.76
215.35
156.04
101.94
56.22
18.92
-10.81
-32.20
-45.56
-48.53
-38.12
-13.36
22.22
60.54
92.17
110.72
115.51
108.84
95.72
81.04
67.90
57.52
50.04
45.52
43.84
43.62
40.70
30.22
9.31
-20.33
-51.78
-75.85
-85.45
-79.34
-62.54
-43.68
-30.20
-24.92
-25.43
-26.58
-24.35
-18.24
-11.37
-6.41
-4.15
-2.28
3.25
15.91
37.02
64.93
95.81
125.36
149.99
167.04
174.84
172.44
160.05
139.13
112.54
83.88
56.10
30.67
7.31
-15.46
-38.85
-62.01
-81.49
-92.26
-90.32
-75.54
-52.73
-30.03
-15.33
-12.68
-20.09
-30.76
-36.16
-30.99
-16.63
-1.07
6.87
1.70
-16.85
-42.96
-68.28
-85.91
-92.94
-90.10
-82.64
-77.42
-79.29
-88.60
-101.34
-111.92
-116.04
-112.77
-104.19
-93.58
-82.86
-71.77
-58.68
-42.31
-23.02
-3.47
12.40
21.00
20.54
11.95
-1.71
-16.45
-31.35
-45.71
-60.10
-75.93
-94.54
-116.56
-141.32
-166.99
-191.44
-212.92
-230.06
-242.37
-250.03
-253.18
-251.89
-246.06
-235.48
-220.28
-201.19
-179.18
-155.67
-132.27
-110.21
-90.31
-73.03
-58.11
-45.18
-33.98
-24.10
-15.17
-7.05
0.87
9.18
18.12
28.70
41.43
56.17
72.49
89.92
107.45
125.36
144.09
163.53
185.28
210.10
237.48
266.11
294.57
320.49
344.28
367.13
389.60
415.21
446.15
482.14
520.93
559.39
592.60
620.62
646.11
672.30
706.26
751.50
804.58
855.65
892.03
900.35
878.55
833.64
746.49
612.73
440.32
247.03
54.00
-100.38
-216.21
-301.40
-363.79
-409.95
-446.20
-474.34
-495.15
-508.56
-513.90
-513.83
-507.95
-496.77
-482.25
-462.15
-432.28
-389.52
-334.35
-272.29
-215.46
-173.09
-150.11
-145.73
-151.72
-157.80
-157.18
-148.89
-136.71
-127.67
-124.90
-127.79
-133.23
-136.43
-133.72
-124.35
-110.13
-94.01
-79.30
-66.88
-55.90
-44.98
-32.88
-19.26
-4.77
9.54
22.68
33.08
38.78
36.83
23.83
-2.57
-42.00
-90.89
-143.19
-192.08
-231.86
-258.86
-271.48
-269.53
-253.69
-225.22
-186.14
-139.48
-89.13
-39.39
5.66
42.92
70.84
89.60
100.66
106.10
107.66
106.49
103.09
97.97
92.05
86.63
82.86
80.85
79.48
76.72
70.79
61.07
48.62
35.76
25.17
19.05
18.53
23.75
34.02
47.94
63.61
78.73
91.03
98.96
102.14
101.38
98.16
93.87
89.12
83.73
76.93
68.02
56.73
43.48
29.14
14.53
-0.14
-15.70
-34.13
-58.30
-90.92
-133.11
-182.77
-233.92
-277.49
-303.69
-305.37
-280.52
-232.86
-170.14
-101.02
-32.37
31.75
89.40
138.99
178.16
203.99
214.28
209.13
191.41
165.97
137.93
111.33
88.51
70.36
57.05
48.79
45.88
48.40
55.59
65.54
75.20
81.27
81.10
73.54
58.92
38.35
12.66
-18.57
-56.84
-103.50
-157.82
-215.44
-268.24
-306.23
-320.63
-307.06
-267.04
-207.53
-138.69
-71.01
-12.98
30.25
57.16
69.31
70.44
65.23
58.15
52.52
50.11
51.24
55.43
61.81
69.28
76.38
81.30
82.28
78.44
70.36
60.08
50.28
43.16
39.44
38.15
37.07
33.67
26.15
14.19
-0.94
-16.74
-30.49
-40.05
-44.56
-44.14
-39.52
-31.51
-20.77
-8.20
4.83
16.15
23.71
26.56
25.20
20.97
14.55
5.00
-9.90
-32.22
-62.04
-96.63
-131.15
-160.40
-180.37
-188.56
-183.46
-163.99
-130.31
-85.46
-36.51
6.35
33.05
37.95
22.35
-6.24
-37.85
-63.96
-80.05
-85.35
-81.06
-68.91
-50.66
-29.16
-9.13
3.84
5.48
-4.63
-22.03
-38.55
-45.31
-36.21
-10.31
27.87
70.30
108.91
138.91
160.46
177.76
196.15
218.42
242.75
263.25
273.10
268.11
248.93
220.50
189.11
159.34
132.36
106.68
80.24
52.41
24.56
-0.82
-21.59
-37.12
-48.38
-57.07
-64.44
-70.78
-75.41
-77.29
-75.79
-71.06
-63.96
-55.70
-47.36
-39.59
-32.42
-25.46
-18.17
-10.23
-1.77
6.59
13.91
19.29
22.16
22.61
21.43
19.84
19.18
20.57
24.67
31.82
41.94
54.48
68.00
79.90
86.55
84.20
70.20
44.30
9.16
-30.20
-67.70
-97.87
-117.03
-123.85
-119.12
-105.31
-85.87
-64.52
-44.60
-28.44
-17.00
-9.88
-5.82
-3.13
-0.37
3.30
8.14
13.65
18.65
21.49
20.37
14.00
2.17
-14.05
-32.63
-51.38
-68.81
-84.49
-98.71
-111.74
-123.09
-131.21
-133.94
-129.31
-116.67
-97.30
-74.40
-52.44
-35.82
-27.45
-27.43
-32.61
-37.10
-33.93
-17.31
15.35
62.22
117.35
172.21
218.34
249.94
265.97
270.24
269.89
272.37
282.17
298.70
316.28
326.43
321.12
295.84
251.10
191.97
126.19
62.04
6.56
-35.44
-62.18
-75.18
-79.08
-80.64
-86.74
-101.65
-124.84
-150.59
-170.05
-175.09
-162.16
-134.17
-99.42
-68.18
-48.86
-45.43
-56.98
-79.18
-106.41
-133.26
-155.26
-169.24
-173.48
-167.99
-154.55
-136.41
-117.24
-99.97
-86.19
-76.13
-69.17
-64.12
-59.82
-55.32
-50.14
-44.54
-39.40
-35.85
-34.56
-35.30
-36.82
-37.34
-35.33
-30.16
-22.48
-13.91
-6.47
-1.86
-0.87
-3.18
-7.58
-12.47
-16.45
-18.78
-19.54
-19.42
-19.32
-19.88
-21.12
-22.62
-23.75
-24.12
-23.78
-23.16
-22.72
-22.57
-22.23
-20.74
-17.17
-11.11
-2.95
6.22
15.18
23.00
29.25
33.82
36.50
36.81
34.28
28.82
21.16
12.64
4.65
-2.02
-7.58
-12.90
-18.90
-25.98
-33.88
-42.00
-49.81
-57.12
-63.86
-69.70
-73.83
-75.15
-72.77
-66.57
-57.33
-46.58
-36.12
-27.44
-21.51
-18.73
-18.93
-21.22
-23.78
-23.99
-19.13
-7.52
10.42
32.05
53.24
70.10
80.54
84.86
85.17
83.92
82.62
81.24
78.60
73.37
64.86
53.28
39.31
23.67
6.89
-10.52
-27.65
-43.03
-54.89
-61.72
-63.08
-60.02
-54.99
-51.07
-50.99
-56.14
-66.23
-79.47
-93.09
-104.19
-110.24
-109.43
-100.97
-85.30
-64.15
-40.20
-16.41
5.00
23.30
39.32
54.77
71.08
88.37
105.11
118.75
126.81
128.03
122.92
113.57
102.85
93.49
87.36
85.08
86.09
88.90
91.69
92.95
92.13
89.96
88.13
88.49
92.19
99.05
107.73
116.38
123.42
127.94
129.65
128.53
124.66
118.42
110.62
102.49
95.04
88.40
81.48
72.62
60.67
46.10
30.88
17.26
6.05
-4.55
-18.51
-39.90
-70.32
-107.27
-144.45
-174.08
-189.96
-189.76
-175.42
-151.73
-123.86
-95.36
-67.59
-40.42
-13.82
11.06
31.97
46.59
53.82
54.60
51.52
47.75
45.75
46.46
49.24
52.59
55.01
55.85
55.37
54.33
53.26
52.03
49.93
46.12
40.43
33.48
26.41
19.76
12.72
3.19
-10.94
-30.15
-52.17
-72.30
-85.44
-88.43
-81.78
-69.42
-56.73
-47.96
-44.50
-44.86
-46.26
-46.59
-45.60
-44.63
-45.30
-48.10
-51.94
-54.71
-54.52
-50.73
-44.40
-37.47
-31.60
-27.26
-23.52
-18.87
-12.12
-3.20
6.80
16.15
23.40
27.90
29.90
30.22
29.62
28.43
26.49
23.43
18.98
13.28
6.83
0.34
-5.50
-10.27
-13.86
-16.49
-18.67
-21.02
-24.09
-28.13
-33.07
-38.58
-44.35
-50.13
-55.84
-61.51
-67.12
-72.59
-77.68
-82.11
-85.56
-87.73
-88.35
-87.13
-83.86
-78.41
-70.66
-60.40
-47.29
-30.77
-10.36
14.23
42.71
74.01
106.26
137.01
163.65
183.99
196.71
201.50
198.96
190.28
176.95
160.41
141.89
122.30
102.10
81.28
59.57
36.69
12.76
-11.46
-34.63
-55.30
-72.35
-85.47
-95.08
-101.99
-106.85
-109.78
-110.34
-107.80
-101.73
-92.36
-80.67
-67.95
-55.40
-43.67
-32.85
-22.69
-13.05
-3.93
4.53
12.16
18.87
24.54
28.85
31.38
31.75
29.93
26.26
21.42
16.23
11.53
8.10
6.48
6.82
8.64
10.85
12.11
11.42
8.74
5.24
2.80
3.26
7.58
15.48
25.74
36.76
47.10
55.75
62.32
67.17
71.64
77.75
87.32
100.73
115.70
127.36
129.71
118.20
92.13
55.46
15.54
-19.79
-45.19
-59.31
-64.38
-64.43
-63.14
-62.78
-64.21
-67.54
-72.84
-80.24
-89.76
-100.83
-112.19
-122.19
-129.29
-132.71
-132.78
-130.88
-128.81
-127.87
-127.69
-126.07
-119.66
-105.53
-82.79
-53.31
-21.05
9.67
35.75
56.21
71.63
83.01
90.80
94.79
94.91
91.94
87.69
84.33
83.28
84.69
87.72
91.34
94.97
98.57
102.25
105.90
109.22
112.33
116.02
121.51
129.39
138.54
145.91
147.26
138.86
118.96
88.34
49.58
5.71
-40.60
-86.99
-130.60
-167.44
-192.84
-202.99
-196.84
-177.13
-149.79
-121.70
-98.03
-80.59
-67.97
-57.17
-45.82
-33.39
-21.18
-11.05
-4.08
-0.04
2.11
3.15
2.94
0.50
-4.98
-13.10
-21.81
-27.98
-28.85
-23.34
-12.69
0.20
11.96
20.20
24.35
25.53
25.57
25.92
26.88
27.66
26.96
23.55
16.85
7.01
-5.01
-17.61
-28.83
-36.66
-39.81
-38.25
-33.52
-28.28
-25.33
-26.35
-31.21
-38.02
-44.09
-47.22
-46.63
-43.12
-38.44
-34.42
-32.28
-32.43
-34.69
-38.64
-43.73
-49.26
-54.19
-57.23
-57.19
-53.63
-47.15
-39.48
-32.71
-28.57
-27.63
-29.10
-31.14
-31.52
-28.35
-20.51
-7.86
9.09
29.35
51.82
75.50
99.30
122.02
142.20
158.25
168.76
173.09
171.63
165.85
157.89
149.80
143.14
138.66
136.41
135.92
136.52
137.37
137.62
136.56
133.63
128.50
121.05
111.25
99.22
85.42
70.72
56.41
44.04
34.82
29.23
26.82
26.58
27.58
29.42
32.29
36.33
41.07
45.10
46.57
44.15
38.05
30.31
23.95
21.49
23.39
27.45
29.54
25.27
11.80
-11.21
-42.02
-78.09
-117.51
-159.47
-203.42
-247.54
-287.73
-317.89
-331.75
-325.33
-298.72
-256.32
-205.48
-154.12
-108.65
-72.87
-48.03
-33.80
-29.12
-32.62
-42.57
-56.65
-71.78
-84.39
-91.13
-89.57
-78.95
-60.33
-36.28
-10.27
14.09
33.71
46.54
51.84
50.50
44.85
38.16
33.77
33.99
39.44
49.08
60.77
72.25
81.83
88.58
92.07
92.06
88.51
81.93
73.72
66.20
62.01
62.94
68.90
77.79
86.25
91.05
90.48
84.97
76.68
68.42
62.52
60.05
60.71
63.39
66.66
69.45
71.12
71.47
70.56
68.60
65.88
62.63
58.99
54.94
50.31
44.83
38.23
30.38
21.43
11.91
2.63
-5.56
-12.32
-18.33
-25.47
-36.46
-53.84
-78.59
-109.25
-141.93
-171.56
-193.91
-207.23
-212.74
-213.64
-213.25
-213.20
-212.79
-209.76
-201.77
-187.88
-169.04
-147.65
-126.41
-107.64
-92.97
-83.63
-80.65
-84.35
-93.52
-104.91
-113.91
-116.28
-110.36
-97.92
-83.58
-72.48
-68.03
-70.64
-78.09
-87.11
-94.86
-99.59
-100.46
-97.10
-89.51
-78.41
-65.61
-53.56
-44.53
-39.52
-37.99
-38.34
-39.08
-39.51
-39.79
-40.54
-42.01
-43.69
-44.46
-42.91
-37.77
-28.17
-13.80
5.14
27.64
52.13
76.70
99.52
119.33
135.57
148.12
156.73
160.68
158.93
150.91
137.42
121.11
105.92
95.64
92.35
95.53
102.46
109.63
114.27
115.28
113.09
108.89
103.59
97.45
90.32
82.19
73.54
65.23
57.95
51.74
45.90
39.35
31.27
21.76
11.87
3.32
-2.25
-3.87
-1.60
3.51
9.87
15.83
20.15
22.21
22.06
20.31
17.94
15.98
15.19
15.79
17.34
19.01
19.94
19.69
18.31
16.33
14.33
12.85
12.28
13.03
15.61
20.49
27.79
36.89
46.35
54.25
58.79
58.99
54.92
47.58
38.43
28.80
19.50
10.87
2.95
-4.25
-10.57
-15.76
-19.56
-22.02
-23.51
-24.75
-26.57
-29.69
-34.39
-40.35
-46.77
-52.58
-56.87
-59.10
-59.22
-57.48
-54.22
-49.65
-43.93
-37.33
-30.36
-23.75
-18.19
-14.02
-11.03
-8.65
-6.21
-3.33
-0.12
2.91
5.18
6.38
6.64
6.50
6.65
7.62
9.70
12.74
16.45
20.46
24.37
27.81
30.40
31.79
31.92
31.20
30.51
31.07
33.94
39.52
47.38
56.30
64.69
71.21
75.18
76.79
77.04
77.20
78.43
81.43
86.29
92.60
99.73
106.98
113.69
119.20
122.86
124.04
122.33
117.72
110.66
101.96
92.56
83.18
74.20
65.59
57.07
48.37
39.38
30.17
20.95
11.87
2.93
-6.06
-15.27
-24.76
-34.32
-43.66
-52.55
-61.05
-69.52
-78.43
-87.99
-97.99
-107.76
-116.37
-122.99
-127.10
-128.59
-127.68
-124.78
-120.41
-115.11
-109.56
-104.52
-100.77
-99.00
-99.53
-102.22
-106.36
-110.83
-114.36
-115.91
-114.98
-111.64
-106.37
-99.72
-91.92
-82.83
-72.17
-59.86
-46.35
-32.61
-19.71
-8.45
1.06
9.28
16.91
24.35
31.46
37.57
41.97
44.27
44.68
43.99
43.13
42.78
43.04
43.44
43.24
41.83
39.19
36.11
34.19
35.39
41.47
53.29
70.44
91.12
112.44
131.03
143.72
148.38
144.46
133.24
117.28
99.53
81.86
64.21
44.39
19.17
-14.08
-55.72
-103.32
-152.11
-196.22
-229.93
-248.74
-250.04
-233.64
-202.07
-160.44
-115.60
-74.54
-42.50
-21.72
-11.39
-8.75
-10.55
-14.20
-18.11
-21.29
-22.96
-22.59
-20.16
-16.48
-12.99
-11.13
-11.53
-13.67
-16.03
-16.96
-15.49
-11.89
-7.46
-3.92
-2.60
-3.85
-7.09
-11.15
-14.94
-17.84
-19.89
-21.65
-23.94
-27.47
-32.71
-39.70
-47.95
-56.43
-63.65
-67.79
-67.04
-59.84
-45.40
-23.97
2.80
32.06
60.17
83.51
99.41
106.66
105.65
97.83
85.07
69.05
51.39
33.76
18.01
5.92
-1.42
-3.91
-2.56
1.05
5.24
8.76
10.82
11.07
9.51
6.65
3.48
1.38
1.63
4.86
10.69
17.79
24.48
29.35
31.72
31.71
29.89
27.00
23.64
20.19
16.88
13.87
11.32
9.41
8.24
7.80
7.79
7.68
6.84
4.74
1.16
-3.68
-9.25
-14.83
-19.91
-24.18
-27.58
-30.13
-31.80
-32.67
-33.03
-33.50
-34.88
-37.81
-42.27
-47.23
-50.71
-50.49
-45.04
-34.14
-19.02
-1.55
16.48
34.27
52.25
71.83
94.60
121.57
152.53
185.87
218.80
247.54
267.92
276.35
271.00
252.50
223.84
189.48
154.00
120.78
90.90
63.02
34.25
1.79
-35.87
-78.31
-123.42
-168.11
-206.79
-232.80
-240.65
-228.56
-199.12
-158.03
-111.42
-64.21
-19.84
19.53
52.49
78.37
97.22
110.33
119.44
126.63
133.51
140.91
148.75
156.20
163.04
167.65
168.92
165.75
157.70
144.77
127.22
105.64
80.88
53.80
24.96
-5.23
-37.41
-71.57
-106.62
-140.13
-168.93
-190.31
-203.61
-211.47
-213.60
-214.16
-218.00
-228.97
-248.61
-275.48
-304.97
-329.81
-341.57
-332.70
-300.22
-246.40
-179.21
-110.36
-51.63
-10.91
10.10
16.06
16.18
20.00
34.54
61.38
95.41
126.37
142.69
136.19
105.57
57.68
5.30
-36.35
-54.75
-45.12
-11.23
36.87
87.38
130.65
160.94
176.17
177.55
168.99
155.34
142.35
135.51
138.28
149.53
162.99
169.13
160.06
133.64
92.95
45.02
-2.20
-40.43
-62.03
-62.81
-43.94
-12.76
26.81
70.17
110.87
140.92
152.88
142.65
111.24
64.63
12.98
-28.79
-48.17
-40.78
-13.27
20.28
42.20
43.22
20.63
-22.33
-77.72
-136.99
-188.76
-223.59
-235.46
-223.18
-190.14
-143.56
-91.37
-39.81
6.40
44.57
73.81
95.45
112.56
128.61
145.33
161.76
174.49
178.32
168.69
143.53
104.55
56.75
6.89
-38.75
-75.44
-100.47
-113.72
-117.15
-114.40
-109.53
-105.85
-105.10
-107.91
-114.39
-124.97
-140.67
-162.06
-188.02
-214.78
-236.41
-246.67
-241.39
-219.82
-184.58
-140.34
-92.29
-44.65
-0.49
37.89
68.42
89.18
98.90
97.67
87.16
70.40
50.93
31.88
15.34
2.13
-7.89
-15.32
-20.69
-24.13
-25.39
-24.15
-20.42
-14.71
-7.96
-1.22
4.82
9.89
14.25
18.34
22.52
26.82
30.83
33.94
35.38
34.64
31.44
25.96
18.76
10.76
3.00
-3.56
-8.25
-10.86
-11.57
-10.88
-9.36
-7.53
-5.61
-3.60
-1.33
1.36
4.52
8.02
11.62
15.09
18.28
21.20
23.83
26.12
27.88
28.87
28.91
27.94
26.12
23.68
20.89
17.83
14.53
10.89
6.74
2.00
-3.47
-9.62
-16.15
-22.37
-27.19
-29.29
-27.53
-21.43
-11.43
1.11
14.25
26.09
35.19
40.83
42.89
41.63
37.43
30.83
22.43
13.06
3.57
-5.19
-12.66
-18.66
-23.26
-26.66
-28.93
-29.90
-29.15
-26.10
-20.28
-11.42
0.33
14.44
29.87
45.36
59.48
70.93
78.72
82.36
81.83
77.48
69.85
59.49
46.98
33.00
18.42
4.39
-7.83
-17.19
-23.11
-25.65
-25.52
-23.73
-21.31
-19.05
-17.37
-16.38
-16.06
-16.27
-16.88
-17.73
-18.62
-19.42
-20.09
-20.77
-21.69
-23.04
-24.70
-26.06
-26.03
-23.25
-16.62
-5.83
8.37
24.26
39.58
52.21
60.69
64.45
63.75
59.25
51.72
41.82
30.21
17.74
5.46
-5.44
-13.92
-19.34
-21.66
-21.22
-18.61
-14.33
-8.71
-2.03
5.38
12.94
19.97
25.72
29.68
31.52
31.27
29.20
25.82
21.80
17.79
14.31
11.56
9.44
7.66
5.86
3.92
1.90
-0.04
-1.81
-3.49
-5.24
-7.24
-9.44
-11.67
-13.64
-15.26
-16.61
-17.98
-19.65
-21.66
-23.76
-25.37
-25.93
-25.01
-22.60
-18.92
-14.44
-9.56
-4.64
0.03
4.19
7.48
9.62
10.39
9.87
8.41
6.54
4.79
3.50
2.79
2.56
2.65
2.96
3.51
4.42
5.76
7.53
9.55
11.55
13.23
14.40
15.01
15.15
15.02
14.75
14.44
14.04
13.49
12.70
11.55
9.93
7.71
4.88
1.59
-1.73
-4.53
-6.23
-6.47
-5.25
-2.85
0.24
3.59
6.87
9.89
12.44
14.17
14.73
13.72
11.02
6.82
1.71
-3.52
-7.99
-11.04
-12.35
-11.87
-9.84
-6.57
-2.47
1.98
6.32
10.05
12.81
14.30
14.51
13.55
11.72
9.29
6.49
3.51
0.49
-2.54
-5.65
-9.05
-13.06
-17.91
-23.54
-29.49
-34.90
-38.78
-40.30
-39.04
-35.12
-29.11
-21.83
-14.05
-6.53
0.13
5.43
9.05
10.85
10.90
9.45
6.83
3.46
-0.27
-4.01
-7.33
-9.91
-11.44
-11.72
-10.61
-8.09
-4.16
0.99
7.04
13.52
19.82
25.30
29.37
31.55
31.52
29.27
25.07
19.38
12.88
6.20
-0.07
-5.50
-9.73
-12.42
-13.22
-11.93
-8.63
-3.74
1.97
7.62
12.44
15.94
17.96
18.61
18.15
16.90
15.15
13.18
11.23
9.47
7.97
6.77
5.87
5.27
4.97
4.96
5.19
5.57
5.95
6.16
6.01
5.35
4.11
2.31
0.04
-2.51
-5.13
-7.55
-9.62
-11.36
-12.90
-14.42
-16.02
-17.58
-18.72
-19.01
-18.08
-15.83
-12.49
-8.54
-4.48
-0.70
2.55
5.19
7.12
8.28
8.69
8.43
7.74
6.93
6.26
5.95
6.05
6.44
6.93
7.33
7.54
7.55
7.43
7.24
7.00
6.62
5.97
4.94
3.51
1.78
-0.05
-1.81
-3.41
-4.88
-6.30
-7.84
-9.57
-11.37
-13.01
-14.12
-14.26
-13.18
-10.80
-7.30
-3.02
1.61
6.16
10.31
13.81
16.46
18.12
18.74
18.42
17.37
15.92
14.45
13.26
12.54
12.40
12.77
13.48
14.26
14.81
14.90
14.40
13.39
12.07
10.76
9.68
8.91
8.38
7.88
7.21
6.27
5.09
3.78
2.49
1.33
0.37
-0.26
-0.44
-0.03
0.99
2.45
4.03
5.34
6.05
6.12
5.68
4.96
4.14
3.31
2.44
1.51
0.63
-0.08
-0.51
-0.69
-0.85
-1.28
-2.22
-3.75
-5.73
-7.92
-10.04
-11.91
-13.49
-14.88
-16.20
-17.56
-19.05
-20.67
-22.39
-24.19
-26.04
-27.79
-29.11
-29.52
-28.43
-25.48
-20.67
-14.44
-7.57
-0.93
4.82
9.30
12.40
14.14
14.59
13.88
12.16
9.78
7.15
4.68
2.71
1.38
0.69
0.49
0.63
0.92
1.26
1.57
1.79
1.89
1.80
1.48
0.91
0.12
-0.82
-1.83
-2.86
-3.95
-5.22
-6.82
-8.74
-10.88
-12.89
-14.34
-14.84
-14.13
-12.24
-9.45
-6.18
-2.89
0.05
2.34
3.85
4.58
4.60
4.07
3.20
2.23
1.35
0.75
0.54
0.70
1.21
1.91
2.62
3.23
3.71
4.13
4.59
5.18
5.87
6.49
6.81
6.62
5.82
4.41
2.47
0.08
-2.57
-5.24
-7.57
-9.13
-9.62
-8.89
-7.07
-4.53
-1.73
0.95
3.30
5.25
6.82
8.03
8.86
9.23
9.05
8.34
7.21
5.88
4.63
3.73
3.30
3.35
3.69
4.06
4.19
3.89
3.08
1.79
0.16
-1.68
-3.53
-5.29
-6.94
-8.57
-10.40
-12.64
-15.31
-18.15
-20.68
-22.28
-22.56
-21.47
-19.36
-16.85
-14.49
-12.61
-11.29
-10.43
-9.94
-9.82
-10.14
-10.90
-12.05
-13.45
-14.95
-16.38
-17.41
-17.46
-15.72
-11.40
-4.13
5.72
16.98
28.04
37.38
44.06
47.96
49.53
49.49
48.41
46.51
43.76
40.02
35.33
29.89
24.10
18.36
13.01
8.18
3.79
-0.36
-4.49
-8.80
-13.34
-18.05
-22.79
-27.32
-31.32
-34.38
-36.05
-35.82
-33.35
-28.57
-21.75
-13.56
-4.79
3.75
11.36
17.62
22.34
25.46
27.07
27.28
26.25
24.16
21.22
17.65
13.73
9.67
5.60
1.56
-2.54
-6.81
-11.24
-15.59
-19.41
-22.12
-23.26
-22.69
-20.66
-17.72
-14.51
-11.55
-9.14
-7.37
-6.20
-5.56
-5.29
-5.10
-4.61
-3.38
-1.12
2.11
5.93
9.73
12.91
15.12
16.26
16.48
16.04
15.10
13.78
12.11
10.12
7.95
5.68
3.41
1.14
-1.21
-3.82
-6.81
-10.18
-13.76
-17.18
-20.05
-21.96
-22.69
-22.25
-20.81
-18.64
-16.06
-13.45
-11.09
-9.27
-8.10
-7.52
-7.37
-7.34
-7.12
-6.60
-5.85
-5.08
-4.56
-4.40
-4.41
-4.27
-3.55
-1.88
0.82
4.27
7.97
11.27
13.64
14.81
14.77
13.70
11.88
9.53
6.83
3.92
0.90
-2.10
-4.91
-7.38
-9.37
-10.74
-11.35
-11.11
-9.98
-8.10
-5.66
-2.89
0.07
3.19
6.55
10.13
13.78
17.26
20.24
22.54
24.17
25.32
26.20
26.92
27.39
27.40
26.77
25.41
23.43
21.06
18.49
15.92
13.36
10.81
8.26
5.78
3.48
1.46
-0.20
-1.50
-2.49
-3.21
-3.78
-4.34
-5.07
-6.12
-7.49
-8.98
-10.25
-10.89
-10.65
-9.57
-7.93
-6.15
-4.68
-3.81
-3.63
-4.07
-4.90
-5.86
-6.75
-7.43
-7.86
-8.06
-8.13
-8.11
-8.05
-7.94
-7.77
-7.56
-7.38
-7.43
-7.94
-9.11
-11.02
-13.57
-16.44
-19.20
-21.58
-23.53
-25.35
-27.49
-30.33
-34.00
-38.34
-43.00
-47.63
-52.08
-56.44
-60.92
-65.80
-71.19
-76.91
-82.64
-87.95
-92.61
-96.78
-100.99
-106.01
-112.52
-120.86
-130.96
-142.47
-154.76
-166.62
-176.01
-180.11
-175.96
-161.98
-138.95
-110.39
-81.23
-55.71
-35.41
-18.68
-1.85
18.44
43.32
71.19
99.00
124.06
145.58
164.69
183.16
202.08
220.91
237.84
250.86
259.04
263.09
265.13
267.66
272.45
279.81
288.56
296.47
301.07
300.26
292.46
276.86
253.28
222.47
186.20
147.29
109.20
75.18
47.34
26.03
9.91
-3.35
-16.09
-29.84
-44.97
-60.90
-76.60
-91.05
-103.58
-113.84
-121.64
-126.88
-129.37
-129.00
-125.96
-120.94
-115.22
-110.64
-109.21
-112.63
-121.71
-135.87
-153.13
-170.40
-184.30
-191.89
-191.22
-181.62
-163.65
-138.90
-109.51
-77.74
-45.55
-14.47
14.18
38.71
56.74
65.17
61.20
43.38
12.95
-25.61
-65.26
-97.82
-115.75
-113.47
-88.61
-42.81
17.69
82.37
138.14
172.61
177.86
153.37
106.24
48.55
-6.98
-51.20
-80.53
-96.18
-101.69
-100.39
-94.07
-83.48
-69.41
-53.32
-36.86
-20.94
-4.91
12.99
34.47
59.64
86.21
110.00
126.38
132.08
126.33
111.16
90.62
69.44
51.61
39.39
32.99
31.10
31.61
32.71
33.42
33.72
34.12
35.12
36.77
38.66
40.21
40.92
40.73
39.88
38.87
38.23
38.30
39.12
40.45
41.80
42.56
42.29
40.81
38.23
34.89
31.18
27.52
24.23
21.58
19.77
18.82
18.61
18.83
19.14
19.27
19.20
19.01
18.86
18.81
18.87
19.06
19.49
20.35
21.76
23.63
25.58
27.14
27.92
27.91
27.44
27.10
27.37
28.45
30.19
32.27
34.42
36.48
38.47
40.38
42.04
43.10
43.03
41.26
37.21
30.50
21.18
9.89
-1.90
-12.16
-18.80
-20.49
-17.31
-10.75
-3.10
3.59
8.24
11.03
12.89
14.79
17.18
19.88
22.24
23.66
23.72
22.11
18.64
13.11
5.44
-4.14
-14.90
-26.03
-36.74
-46.69
-56.19
-65.95
-76.21
-85.60
-90.42
-85.56
-66.77
-33.50
9.57
53.29
87.21
103.61
100.14
79.85
48.86
13.21
-23.21
-58.76
-92.65
-123.47
-148.91
-166.59
-175.61
-177.07
-173.55
-167.46
-159.76
-149.47
-134.14
-111.62
-81.51
-45.95
-9.14
24.17
50.35
67.94
77.73
81.84
82.45
80.77
76.95
70.40
60.51
47.20
31.09
13.34
-4.66
-21.59
-36.45
-48.60
-57.74
-63.84
-67.20
-68.32
-67.97
-66.99
-66.18
-66.18
-67.22
-69.11
-71.27
-73.06
-74.01
-74.08
-73.67
-73.39
-73.72
-74.75
-76.07
-76.88
-76.41
-74.16
-70.11
-64.68
-58.49
-52.23
-46.35
-41.06
-36.33
-32.01
-27.93
-24.05
-20.46
-17.31
-14.71
-12.65
-11.03
-9.62
-8.19
-6.53
-4.62
-2.55
-0.54
1.18
2.42
3.09
3.20
2.78
1.85
0.36
-1.79
-4.56
-7.76
-10.99
-13.82
-15.97
-17.43
-18.52
-19.68
-21.34
-23.70
-26.67
-29.90
-32.91
-35.13
-36.05
-35.25
-32.58
-28.22
-22.67
-16.63
-10.71
-5.22
-0.09
5.11
10.81
17.20
23.95
30.32
35.38
38.37
39.01
37.65
35.10
32.37
30.26
29.09
28.67
28.47
27.94
26.81
25.18
23.35
21.66
20.25
19.05
17.90
16.66
15.36
14.15
13.11
12.19
11.18
9.88
8.21
6.37
4.80
4.00
4.46
6.43
9.86
14.47
19.78
25.21
30.17
34.19
36.97
38.49
38.90
38.42
37.26
35.56
33.39
30.92
28.43
26.31
24.91
24.32
24.26
24.26
23.74
22.30
19.81
16.32
11.92
6.74
0.91
-5.29
-11.49
-17.31
-22.51
-27.08
-31.27
-35.32
-39.34
-43.25
-46.81
-49.82
-52.07
-53.36
-53.36
-51.74
-48.34
-43.41
-37.64
-31.98
-27.19
-23.47
-20.45
-17.29
-13.13
-7.49
-0.36
7.76
16.16
24.05
30.78
35.87
38.97
39.92
38.73
35.68
31.31
26.25
21.11
16.16
11.31
6.27
0.77
-5.12
-10.89
-15.77
-19.05
-20.48
-20.38
-19.42
-18.23
-17.18
-16.30
-15.31
-14.03
-12.34
-10.33
-8.14
-5.84
-3.43
-0.86
1.87
4.66
7.36
9.84
12.01
13.82
15.30
16.48
17.46
18.38
19.41
20.60
21.98
23.42
24.81
26.11
27.40
28.82
30.65
33.06
36.22
40.17
44.67
49.20
52.97
55.08
54.76
51.68
46.00
38.20
28.99
19.10
9.34
0.56
-6.38
-10.82
-12.53
-11.85
-9.62
-6.84
-4.34
-2.53
-1.47
-0.98
-0.88
-1.03
-1.34
-1.62
-1.65
-1.21
-0.22
1.27
2.97
4.60
5.95
6.90
7.52
7.91
8.11
7.96
7.19
5.50
2.73
-0.95
-5.10
-9.18
-12.71
-15.55
-17.90
-20.15
-22.74
-26.01
-30.05
-34.80
-39.99
-45.28
-50.24
-54.46
-57.51
-59.09
-59.15
-57.80
-55.24
-51.50
-46.31
-39.07
-29.18
-16.38
-1.20
15.06
30.66
44.07
54.43
61.89
67.35
71.98
76.78
82.17
87.95
93.47
97.74
99.64
98.12
92.41
82.16
67.51
49.09
27.98
5.60
-16.43
-36.46
-52.91
-64.71
-71.40
-73.44
-71.98
-68.62
-64.85
-61.62
-59.14
-56.91
-54.03
-49.48
-42.37
-32.05
-18.28
-1.27
18.21
38.89
59.19
77.66
93.22
105.42
114.19
119.50
121.11
118.57
111.67
100.74
86.93
71.95
57.58
45.02
34.78
26.69
20.31
15.27
11.37
8.56
6.69
5.47
4.50
3.35
1.88
0.17
-1.49
-2.83
-3.70
-4.23
-4.72
-5.53
-6.95
-8.97
-11.34
-13.61
-15.43
-16.76
-17.98
-19.71
-22.50
-26.52
-31.36
-36.19
-40.04
-42.23
-42.55
-41.28
-39.00
-36.26
-33.57
-31.24
-29.53
-28.66
-28.79
-29.88
-31.62
-33.48
-34.81
-35.04
-33.86
-31.31
-27.69
-23.45
-18.99
-14.54
-10.21
-5.97
-1.83
2.17
5.87
9.15
11.88
13.95
15.30
15.90
15.73
14.86
13.43
11.63
9.67
7.63
5.48
3.15
0.57
-2.19
-4.95
-7.48
-9.64
-11.33
-12.65
-13.73
-14.65
-15.48
-16.18
-16.77
-17.24
-17.66
-18.16
-18.82
-19.70
-20.66
-21.52
-22.04
-22.06
-21.54
-20.61
-19.51
-18.46
-17.57
-16.80
-16.06
-15.24
-14.27
-13.16
-11.92
-10.53
-8.91
-7.00
-4.78
-2.34
0.11
2.32
4.04
5.08
5.32
4.74
3.38
1.42
-0.89
-3.15
-4.96
-5.98
-6.04
-5.23
-3.82
-2.16
-0.53
0.90
2.10
3.13
4.14
5.26
6.60
8.22
10.04
11.93
13.72
15.23
16.38
17.21
17.85
18.44
19.06
19.68
20.19
20.44
20.36
19.92
19.11
17.98
16.56
14.92
13.16
11.41
9.73
8.14
6.53
4.77
2.79
0.67
-1.37
-2.96
-3.82
-3.83
-3.09
-1.90
-0.68
0.23
0.63
0.55
0.18
-0.28
-0.67
-0.95
-1.08
-1.08
-0.85
-0.35
0.36
1.16
1.80
2.11
2.01
1.59
1.03
0.49
0.01
-0.52
-1.22
-2.21
-3.45
-4.82
-6.17
-7.36
-8.32
-9.10
-9.82
-10.55
-11.36
-12.20
-12.95
-13.48
-13.64
-13.28
-12.39
-11.06
-9.41
-7.62
-5.81
-4.04
-2.40
-0.95
0.21
0.98
1.25
1.05
0.46
-0.28
-0.93
-1.33
-1.47
-1.40
-1.28
-1.23
-1.26
-1.34
-1.34
-1.23
-1.01
-0.77
-0.55
-0.41
-0.36
-0.45
-0.84
-1.74
-3.32
-5.58
-8.32
-11.05
-13.20
-14.26
-14.01
-12.48
-10.01
-7.10
-4.17
-1.54
0.66
2.42
3.77
4.68
5.11
5.04
4.55
3.84
3.19
2.80
2.75
2.96
3.26
3.48
3.53
3.44
3.26
3.02
2.62
1.94
0.89
-0.52
-2.16
-3.81
-5.31
-6.62
-7.84
-9.13
-10.53
-11.93
-12.98
-13.28
-12.56
-10.76
-8.15
-5.14
-2.21
0.26
2.09
3.22
3.74
3.77
3.45
2.91
2.30
1.72
1.26
0.94
0.74
0.64
0.63
0.71
0.91
1.21
1.49
1.57
1.26
0.48
-0.73
-2.17
-3.60
-4.81
-5.72
-6.40
-7.00
-7.65
-8.43
-9.34
-10.29
-11.14
-11.49
-10.73
-8.13
-3.01
4.84
14.94
26.10
36.69
45.15
50.45
52.24
50.83
46.90
41.20
34.37
27.00
19.61
12.72
6.81
2.16
-1.15
-3.28
-4.58
-5.43
-6.18
-7.00
-7.89
-8.71
-9.27
-9.46
-9.30
-9.00
-8.87
-9.20
-10.10
-11.42
-12.75
-13.57
-13.46
-12.25
-10.08
-7.36
-4.61
-2.27
-0.62
0.28
0.55
0.39
0.06
-0.18
-0.14
0.30
1.09
2.08
3.09
3.97
4.59
4.92
5.00
4.91
4.74
4.57
4.39
4.18
3.93
3.58
3.15
2.65
2.08
1.47
0.83
0.24
-0.25
-0.55
-0.72
-0.94
-1.49
-2.72
-4.81
-7.74
-11.17
-14.60
-17.48
-19.34
-19.90
-19.08
-17.04
-14.04
-10.61
-7.43
-5.32
-5.09
-7.27
-11.93
-18.56
-26.29
-34.08
-41.11
-46.87
-51.15
-53.80
-54.59
-53.20
-49.39
-43.28
-35.47
-27.06
-19.26
-13.07
-9.06
-7.29
-7.50
-9.22
-12.03
-15.48
-19.05
-22.02
-23.33
-21.76
-16.13
-5.74
9.32
27.98
48.38
68.25
85.46
98.47
106.56
109.72
108.55
104.03
97.32
89.65
82.11
75.50
70.17
66.22
63.68
62.69
63.37
65.56
68.58
71.22
72.19
70.62
66.34
59.82
51.67
42.17
31.19
18.64
5.00
-8.35
-19.36
-26.14
-27.74
-24.61
-18.28
-10.68
-3.36
2.89
7.93
11.91
14.94
17.07
18.26
18.62
18.13
16.67
13.91
9.37
2.89
-5.30
-14.53
-23.92
-32.70
-40.37
-46.68
-51.39
-54.20
-54.73
-52.84
-48.84
-43.49
-37.96
-33.36
-30.46
-29.51
-30.21
-31.96
-34.01
-35.75
-36.79
-37.08
-36.80
-36.28
-35.87
-35.89
-36.50
-37.57
-38.67
-39.05
-37.88
-34.50
-28.80
-21.26
-12.81
-4.55
2.70
8.51
12.87
15.93
17.79
18.49
18.04
16.68
14.82
13.04
11.81
11.32
11.47
11.91
12.27
12.22
11.70
10.79
9.63
8.42
7.25
6.18
5.18
4.25
3.33
2.46
1.63
0.85
0.11
-0.73
-1.83
-3.38
-5.52
-8.29
-11.51
-14.90
-17.99
-20.29
-21.45
-21.37
-20.22
-18.45
-16.62
-15.18
-14.29
-13.68
-12.72
-10.65
-6.87
-1.27
5.65
12.89
19.28
23.81
26.03
26.07
24.50
21.99
19.03
15.80
12.30
8.49
4.39
0.11
-4.13
-8.06
-11.17
-12.87
-12.50
-9.63
-4.32
2.70
10.16
16.61
20.87
22.33
21.01
17.45
12.48
6.96
1.72
-2.58
-5.58
-7.19
-7.65
-7.39
-6.90
-6.62
-6.81
-7.54
-8.68
-9.98
-11.02
-11.40
-10.86
-9.39
-7.30
-5.07
-3.10
-1.59
-0.48
0.50
1.54
2.71
3.85
4.71
5.02
4.70
3.73
2.23
0.35
-1.78
-4.09
-6.49
-8.89
-11.23
-13.45
-15.48
-17.25
-18.59
-19.33
-19.30
-18.39
-16.62
-14.14
-11.14
-7.84
-4.43
-1.08
2.04
4.70
6.71
7.89
8.26
7.98
7.32
6.60
6.00
5.53
5.12
4.67
4.16
3.66
3.33
3.21
3.25
3.30
3.18
2.85
2.38
1.90
1.48
1.13
0.79
0.36
-0.19
-0.85
-1.65
-2.73
-4.35
-6.68
-9.67
-12.91
-15.72
-17.39
-17.44
-15.83
-12.93
-9.32
-5.51
-1.86
1.50
4.53
7.14
9.16
10.46
10.98
10.88
10.45
9.95
9.61
9.50
9.55
9.64
9.63
9.47
9.16
8.72
8.16
7.51
6.70
5.65
4.23
2.38
0.21
-2.09
-4.19
-5.87
-6.99
-7.60
-7.86
-7.99
-8.24
-8.77
-9.66
-10.88
-12.22
-13.32
-13.74
-13.13
-11.37
-8.65
-5.39
-2.07
0.92
3.34
5.16
6.41
7.13
7.37
7.19
6.74
6.22
5.91
6.01
6.57
7.49
8.48
9.26
9.65
9.67
9.45
9.20
9.03
8.88
8.53
7.76
6.43
4.62
2.56
0.56
-1.15
-2.47
-3.43
-4.18
-4.86
-5.61
-6.49
-7.48
-8.49
-9.40
-9.97
-9.95
-9.17
-7.61
-5.41
-2.92
-0.49
1.60
3.22
4.35
5.05
5.38
5.33
4.95
4.34
3.69
3.22
3.09
3.30
3.69
4.08
4.31
4.40
4.52
4.84
5.44
6.19
6.78
6.89
6.34
5.11
3.41
1.47
-0.47
-2.24
-3.77
-5.06
-6.17
-7.21
-8.30
-9.54
-10.92
-12.29
-13.38
-13.91
-13.56
-12.18
-9.79
-6.56
-2.84
0.90
4.21
6.75
8.39
9.22
9.44
9.21
8.68
7.90
6.99
6.05
5.25
4.71
4.48
4.49
4.58
4.59
4.43
4.09
3.61
2.99
2.20
1.26
0.18
-0.95
-2.02
-2.98
-3.76
-4.40
-4.94
-5.45
-6.03
-6.85
-8.05
-9.73
-11.85
-14.17
-16.23
-17.54
-17.79
-16.90
-15.05
-12.54
-9.65
-6.60
-3.54
-0.68
1.73
3.43
4.31
4.48
4.22
3.87
3.65
3.61
3.59
3.49
3.37
3.47
4.13
5.61
7.99
11.07
14.43
17.58
20.02
21.44
21.70
20.80
18.86
16.12
12.83
9.26
5.67
2.25
-0.88
-3.77
-6.55
-9.33
-12.13
-14.80
-16.99
-18.31
-18.45
-17.35
-15.21
-12.40
-9.35
-6.37
-3.67
-1.33
0.60
2.06
2.99
3.40
3.41
3.23
3.10
3.23
3.71
4.50
5.47
6.44
7.24
7.76
8.03
8.11
8.09
8.04
7.90
7.55
6.84
5.66
4.05
2.19
0.33
-1.34
-2.70
-3.85
-4.96
-6.26
-7.90
-9.85
-11.99
-14.11
-16.00
-17.44
-18.26
-18.30
-17.44
-15.61
-12.87
-9.48
-5.81
-2.23
0.93
3.47
5.39
6.75
7.67
8.24
8.55
8.66
8.71
8.81
9.03
9.42
9.89
10.30
10.52
10.45
10.06
9.43
8.69
7.94
7.22
6.52
5.74
4.84
3.78
2.61
1.40
0.25
-0.78
-1.70
-2.57
-3.46
-4.41
-5.45
-6.59
-7.88
-9.31
-10.84
-12.23
-13.16
-13.25
-12.25
-10.16
-7.22
-3.82
-0.35
2.89
5.79
8.30
10.32
11.71
12.32
12.16
11.43
10.52
9.77
9.45
9.58
9.99
10.41
10.65
10.63
10.35
9.90
9.30
8.54
7.62
6.53
5.32
4.05
2.79
1.59
0.48
-0.51
-1.36
-2.05
-2.61
-3.11
-3.66
-4.43
-5.53
-6.98
-8.74
-10.67
-12.63
-14.44
-15.90
-16.81
-16.95
-16.13
-14.24
-11.37
-7.77
-3.83
-0.01
3.28
5.79
7.38
8.12
8.21
7.88
7.42
7.04
6.90
7.04
7.42
7.89
8.27
8.37
8.02
7.21
6.05
4.73
3.49
2.52
1.87
1.46
1.19
0.90
0.47
-0.18
-1.08
-2.16
-3.31
-4.42
-5.40
-6.27
-7.14
-8.16
-9.44
-10.91
-12.29
-13.17
-13.23
-12.26
-10.35
-7.74
-4.72
-1.58
1.47
4.27
6.62
8.35
9.24
9.22
8.38
6.97
5.38
3.95
2.95
2.49
2.55
3.02
3.71
4.38
4.84
4.92
4.59
3.92
3.10
2.28
1.53
0.79
-0.09
-1.18
-2.53
-4.07
-5.62
-7.05
-8.26
-9.25
-10.08
-10.87
-11.73
-12.73
-13.79
-14.69
-15.10
-14.72
-13.36
-11.10
-8.24
-5.19
-2.32
0.18
2.28
4.03
5.44
6.45
6.97
6.93
6.49
5.91
5.50
5.52
5.93
6.59
7.25
7.72
7.90
7.86
7.67
7.39
7.02
6.48
5.70
4.65
3.38
1.95
0.42
-1.14
-2.73
-4.31
-5.83
-7.25
-8.58
-9.89
-11.29
-12.85
-14.52
-16.09
-17.18
-17.41
-16.53
-14.52
-11.63
-8.26
-4.83
-1.64
1.15
3.51
5.47
7.07
8.32
9.16
9.52
9.47
9.13
8.69
8.36
8.26
8.37
8.56
8.66
8.53
8.14
7.53
6.77
5.91
4.97
3.96
2.92
1.92
0.99
0.16
-0.58
-1.31
-2.09
-2.97
-4.00
-5.17
-6.46
-7.76
-8.87
-9.55
-9.48
-8.45
-6.42
-3.63
-0.46
2.62
5.24
7.20
8.49
9.17
9.35
9.10
8.48
7.62
6.72
5.99
5.57
5.52
5.71
6.01
6.30
6.50
6.59
6.58
6.43
6.10
5.50
4.58
3.24
1.56
-0.38
-2.43
-4.40
-6.21
-7.81
-9.33
-10.88
-12.52
-14.19
-15.65
-16.56
-16.63
-15.73
-13.85
-11.20
-8.06
-4.75
-1.56
1.27
3.58
5.25
6.21
6.47
6.15
5.47
4.71
4.16
4.01
4.29
4.88
5.54
6.06
6.29
6.26
6.04
5.71
5.28
4.67
3.81
2.63
1.21
-0.34
-1.82
-3.09
-4.15
-5.08
-6.07
-7.31
-8.87
-10.65
-12.38
-13.66
-14.15
-13.60
-12.01
-9.56
-6.58
-3.47
-0.55
1.93
3.82
5.10
5.77
5.92
5.65
5.18
4.71
4.45
4.43
4.61
4.85
4.93
4.75
4.23
3.46
2.56
1.68
0.89
0.21
-0.47
-1.29
-2.31
-3.61
-5.09
-6.61
-8.07
-9.44
-10.79
-12.22
-13.79
-15.33
-16.49
-16.91
-16.23
-14.35
-11.41
-7.76
-3.77
0.16
3.78
6.89
9.30
10.87
11.49
11.20
10.17
8.72
7.17
5.84
4.88
4.35
4.20
4.29
4.51
4.74
4.86
4.87
4.73
4.42
3.94
3.23
2.27
1.10
-0.18
-1.41
-2.44
-3.28
-4.05
-4.96
-6.22
-7.82
-9.56
-11.03
-11.85
-11.70
-10.53
-8.53
-6.00
-3.25
-0.55
1.92
4.02
5.58
6.53
6.84
6.64
6.25
5.98
6.09
6.69
7.66
8.74
9.69
10.24
10.28
9.87
9.12
8.23
7.37
6.63
5.99
5.35
4.56
3.57
2.42
1.23
0.15
-0.76
-1.53
-2.31
-3.27
-4.48
-5.86
-7.21
-8.25
-8.74
-8.51
-7.51
-5.83
-3.64
-1.10
1.58
4.25
6.73
8.88
10.53
11.55
11.90
11.62
10.88
9.92
8.96
8.16
7.56
7.13
6.84
6.66
6.63
6.77
7.04
7.31
7.38
7.07
6.24
4.94
3.32
1.62
0.03
-1.34
-2.50
-3.48
-4.39
-5.28
-6.22
-7.27
-8.44
-9.65
-10.74
-11.38
-11.27
-10.18
-8.08
-5.15
-1.76
1.60
4.52
6.66
7.87
8.14
7.63
6.60
5.38
4.22
3.31
2.74
2.45
2.42
2.55
2.75
2.91
2.96
2.86
2.57
2.15
1.60
1.00
0.30
-0.50
-1.45
-2.54
-3.73
-4.89
-5.93
-6.85
-7.72
-8.72
-10.02
-11.61
-13.33
-14.79
-15.58
-15.35
-14.02
-11.67
-8.59
-5.13
-1.62
1.65
4.48
6.68
8.17
8.89
8.92
8.46
7.78
7.17
6.81
6.75
6.90
7.08
7.13
6.98
6.65
6.23
5.78
5.27
4.60
3.65
2.38
0.87
-0.72
-2.26
-3.67
-4.98
-6.27
-7.64
-9.14
-10.76
-12.46
-14.15
-15.70
-16.90
-17.50
-17.26
-16.02
-13.77
-10.69
-7.12
-3.41
0.11
3.19
5.75
7.69
9.00
9.66
9.66
9.10
8.16
7.14
6.29
5.78
5.63
5.72
5.87
5.91
5.76
5.41
4.88
4.17
3.29
2.27
1.20
0.22
-0.59
-1.21
-1.68
-2.13
-2.64
-3.27
-4.01
-4.86
-5.80
-6.77
-7.62
-8.08
-7.91
-6.96
-5.25
-2.97
-0.47
1.98
4.15
5.98
7.47
8.64
9.54
10.18
10.57
10.69
10.49
9.98
9.22
8.35
7.59
7.10
6.98
7.18
7.55
7.88
8.02
7.87
7.41
6.69
5.79
4.82
3.85
2.93
2.05
1.21
0.38
-0.45
-1.24
-1.98
-2.65
-3.25
-3.75
-4.09
-4.14
-3.72
-2.56
-0.33
3.25
8.32
14.74
21.99
29.27
35.63
40.31
42.94
43.68
43.12
42.09
41.43
41.71
43.15
45.51
48.24
50.65
52.18
52.77
52.99
54.00
57.18
63.57
73.26
85.15
97.14
106.78
112.06
112.07
107.09
98.29
87.14
74.83
62.06
49.27
36.79
25.20
15.15
7.05
0.66
-5.03
-11.55
-20.35
-32.05
-46.13
-60.92
-74.27
-84.39
-90.49
-93.12
-93.72
-94.07
-95.47
-98.41
-102.49
-106.79
-110.31
-112.38
-112.73
-111.41
-108.63
-104.47
-98.96
-92.06
-83.86
-74.71
-65.12
-55.68
-46.81
-38.62
-30.86
-23.05
-14.58
-4.90
6.25
18.82
32.33
45.99
58.84
69.98
78.75
84.82
88.23
89.20
88.06
85.21
81.07
76.01
70.31
64.04
57.02
49.00
39.75
29.36
18.29
7.25
-2.98
-11.83
-19.09
-24.90
-29.52
-33.25
-36.30
-38.81
-40.96
-42.96
-44.96
-46.97
-48.86
-50.37
-51.35
-51.79
-51.91
-51.98
-52.16
-52.39
-52.37
-51.86
-50.83
-49.52
-48.35
-47.70
-47.67
-48.00
-48.21
-47.76
-46.41
-44.16
-41.28
-38.14
-34.94
-31.81
-28.72
-25.70
-22.83
-20.30
-18.23
-16.65
-15.46
-14.43
-13.33
-11.98
-10.32
-8.45
-6.49
-4.65
-3.08
-1.90
-1.19
-0.93
-1.04
-1.36
-1.72
-1.88
-1.63
-0.81
0.63
2.62
4.98
7.52
10.07
12.47
14.68
16.70
18.52
20.14
21.44
22.35
22.75
22.68
22.26
21.68
21.13
20.71
20.36
19.91
19.23
18.24
17.02
15.71
14.44
13.23
12.03
10.75
9.25
7.54
5.62
3.56
1.38
-0.89
-3.23
-5.55
-7.71
-9.54
-10.86
-11.53
-11.54
-10.93
-9.87
-8.54
-7.21
-6.11
-5.38
-5.03
-4.99
-5.10
-5.24
-5.36
-5.48
-5.70
-6.07
-6.53
-6.91
-7.02
-6.77
-6.15
-5.37
-4.66
-4.26
-4.26
-4.67
-5.41
-6.40
-7.62
-9.06
-10.72
-12.44
-13.99
-15.02
-15.22
-14.36
-12.40
-9.47
-5.86
-2.00
1.70
4.92
7.50
9.39
10.69
11.49
11.86
11.89
11.60
11.11
10.50
9.88
9.27
8.68
8.04
7.30
6.48
5.69
5.07
4.67
4.43
4.18
3.66
2.66
1.05
-1.17
-3.90
-6.93
-10.02
-12.84
-15.07
-16.40
-16.61
-15.66
-13.70
-11.04
-8.03
-4.97
-2.04
0.63
2.96
4.91
6.42
7.46
8.06
8.33
8.42
8.50
8.71
9.11
9.67
10.26
10.74
10.94
10.77
10.16
9.14
7.78
6.10
4.15
1.94
-0.48
-3.03
-5.61
-8.07
-10.21
-11.84
-12.82
-13.04
-12.51
-11.30
-9.58
-7.53
-5.34
-3.19
-1.23
0.37
1.53
2.20
2.43
2.34
2.11
1.92
1.93
2.25
2.91
3.88
5.08
6.27
7.22
7.68
7.46
6.58
5.13
3.30
1.26
-0.87
-3.02
-5.11
-7.03
-8.69
-10.03
-11.08
-11.95
-12.71
-13.33
-13.64
-13.41
-12.47
-10.80
-8.55
-5.95
-3.18
-0.41
2.25
4.71
6.87
8.61
9.84
10.61
11.00
11.15
11.18
11.14
11.03
10.90
10.77
10.71
10.74
10.84
10.84
10.60
10.00
9.04
7.82
6.51
5.26
4.09
2.96
1.76
0.42
-1.05
-2.60
-4.17
-5.73
-7.18
-8.39
-9.10
-8.99
-7.87
-5.73
-2.84
0.37
3.40
5.92
7.79
9.08
9.94
10.47
10.77
10.84
10.78
10.68
10.69
10.87
11.22
11.65
11.99
12.15
12.11
11.96
11.82
11.79
11.87
11.98
11.98
11.72
11.12
10.18
8.94
7.57
6.21
4.95
3.79
2.68
1.51
0.16
-1.36
-2.96
-4.39
-5.37
-5.66
-5.09
-3.70
-1.64
0.83
3.37
5.72
7.72
9.33
10.56
11.49
12.14
12.48
12.50
12.19
11.64
10.96
10.26
9.64
9.09
8.58
8.01
7.35
6.56
5.67
4.69
3.67
2.59
1.48
0.34
-0.86
-2.10
-3.40
-4.71
-5.99
-7.25
-8.48
-9.76
-11.09
-12.45
-13.67
-14.55
-14.84
-14.35
-13.01
-10.90
-8.27
-5.38
-2.50
0.20
2.56
4.52
5.97
6.84
7.14
6.99
6.64
6.35
6.37
6.73
7.31
7.84
8.03
7.70
6.82
5.50
3.92
2.23
0.51
-1.18
-2.84
-4.43
-5.88
-7.15
-8.17
-8.95
-9.60
-10.26
-11.12
-12.28
-13.75
-15.31
-16.69
-17.58
-17.76
-17.17
-15.89
-14.08
-11.91
-9.52
-7.06
-4.67
-2.54
-0.83
0.37
1.10
1.48
1.72
1.98
2.36
2.84
3.28
3.54
3.49
3.10
2.43
1.61
0.78
0.07
-0.47
-0.85
-1.18
-1.54
-2.02
-2.66
-3.49
-4.49
-5.69
-7.08
-8.67
-10.47
-12.39
-14.34
-16.11
-17.51
-18.31
-18.37
-17.62
-16.14
-14.09
-11.72
-9.21
-6.69
-4.23
-1.83
0.45
2.49
4.10
5.13
5.54
5.49
5.26
5.15
5.31
5.73
6.26
6.72
7.00
7.12
7.17
7.23
7.30
7.30
7.10
6.59
5.72
4.52
3.09
1.54
0.09
-1.15
-2.03
-2.58
-2.92
-3.26
-3.82
-4.73
-5.92
-7.13
-8.04
-8.36
-7.91
-6.68
-4.77
-2.37
0.32
3.09
5.76
8.10
9.94
11.13
11.62
11.50
11.01
10.44
10.06
10.07
10.46
11.18
12.00
12.74
13.28
13.55
13.56
13.33
12.90
12.27
11.46
10.48
9.37
8.22
7.10
6.05
5.09
4.20
3.33
2.43
1.46
0.40
-0.70
-1.82
-2.83
-3.59
-3.95
-3.84
-3.27
-2.27
-0.95
0.62
2.35
4.17
6.01
7.70
9.11
10.09
10.54
10.45
9.89
8.98
7.90
6.87
6.03
5.51
5.30
5.37
5.58
5.80
5.90
5.74
5.26
4.41
3.26
1.94
0.60
-0.66
-1.79
-2.87
-4.01
-5.37
-6.97
-8.80
-10.76
-12.72
-14.48
-15.86
-16.65
-16.67
-15.78
-14.02
-11.58
-8.72
-5.72
-2.75
0.07
2.66
4.89
6.61
7.68
8.01
7.68
6.94
6.07
5.33
4.86
4.65
4.60
4.60
4.53
4.30
3.86
3.19
2.26
1.10
-0.31
-1.93
-3.69
-5.53
-7.36
-9.06
-10.54
-11.70
-12.55
-13.17
-13.72
-14.36
-15.18
-16.11
-16.92
-17.35
-17.13
-16.17
-14.53
-12.46
-10.21
-8.01
-5.95
-4.07
-2.35
-0.79
0.62
1.79
2.67
3.19
3.34
3.19
2.84
2.39
1.93
1.52
1.13
0.75
0.35
-0.03
-0.34
-0.51
-0.54
-0.51
-0.52
-0.69
-1.07
-1.60
-2.22
-2.82
-3.33
-3.79
-4.30
-5.01
-6.04
-7.43
-9.07
-10.80
-12.33
-13.41
-13.85
-13.56
-12.52
-10.77
-8.41
-5.62
-2.63
0.30
2.86
4.86
6.23
6.98
7.17
6.92
6.36
5.64
4.95
4.44
4.23
4.35
4.69
5.13
5.50
5.64
5.49
5.06
4.41
3.72
3.12
2.73
2.58
2.61
2.70
2.73
2.64
2.40
1.99
1.37
0.44
-0.89
-2.59
-4.52
-6.34
-7.66
-8.15
-7.66
-6.26
-4.14
-1.61
1.09
3.73
6.16
8.22
9.78
10.74
11.11
11.06
10.81
10.58
10.54
10.70
10.96
11.19
11.26
11.11
10.76
10.26
9.66
9.00
8.27
7.43
6.41
5.19
3.78
2.22
0.57
-1.11
-2.76
-4.33
-5.77
-7.05
-8.18
-9.24
-10.32
-11.47
-12.60
-13.51
-13.95
-13.65
-12.51
-10.53
-7.87
-4.71
-1.30
2.12
5.27
7.90
9.87
11.14
11.85
12.15
12.25
12.26
12.24
12.21
12.17
12.10
12.00
11.86
11.59
11.09
10.24
8.96
7.23
5.14
2.89
0.70
-1.23
-2.84
-4.19
-5.39
-6.61
-7.92
-9.34
-10.81
-12.33
-13.86
-15.34
-16.65
-17.57
-17.90
-17.52
-16.45
-14.82
-12.83
-10.62
-8.26
-5.73
-3.11
-0.57
1.66
3.37
4.43
4.93
5.07
5.10
5.16
5.31
5.51
5.69
5.86
6.01
6.19
6.42
6.62
6.69
6.47
5.87
4.79
3.26
1.34
-0.86
-3.18
-5.49
-7.65
-9.61
-11.34
-12.92
-14.45
-15.97
-17.46
-18.81
-19.85
-20.42
-20.41
-19.78
-18.60
-16.94
-14.90
-12.56
-9.99
-7.30
-4.61
-2.09
0.14
1.99
3.46
4.63
5.62
6.61
7.65
8.78
9.88
10.77
11.27
11.26
10.73
9.79
8.61
7.34
6.05
4.80
3.60
2.43
1.32
0.31
-0.57
-1.35
-2.08
-2.79
-3.52
-4.30
-5.16
-6.19
-7.45
-8.93
-10.49
-11.86
-12.71
-12.76
-11.89
-10.19
-7.89
-5.26
-2.54
0.14
2.68
4.99
6.92
8.36
9.22
9.61
9.68
9.67
9.77
10.05
10.48
10.99
11.52
12.02
12.47
12.78
12.83
12.49
11.69
10.44
8.84
7.04
5.15
3.27
1.47
-0.24
-1.87
-3.52
-5.30
-7.34
-9.60
-11.99
-14.24
-16.09
-17.31
-17.80
-17.58
-16.74
-15.40
-13.61
-11.40
-8.78
-5.83
-2.69
0.45
3.37
5.94
8.10
9.98
11.71
13.42
15.12
16.77
18.41
20.15
22.15
24.48
27.04
29.64
32.03
34.11
35.92
37.62
39.24
40.68
41.70
42.10
41.92
41.48
41.27
41.74
43.07
44.96
46.74
47.52
46.53
43.41
38.34
31.98
25.23
18.93
13.67
9.64
6.78
4.85
3.55
2.55
1.51
0.14
-1.76
-4.14
-6.73
-9.09
-10.86
-11.80
-11.94
-11.58
-11.13
-11.04
-11.76
-13.58
-16.70
-21.19
-26.87
-33.30
-39.88
-45.95
-50.92
-54.53
-56.77
-57.85
-58.08
-57.67
-56.74
-55.36
-53.59
-51.60
-49.56
-47.70
-46.08
-44.66
-43.23
-41.56
-39.42
-36.64
-33.21
-29.17
-24.69
-19.90
-15.04
-10.35
-6.07
-2.40
0.55
2.80
4.51
5.87
7.03
8.12
9.23
10.36
11.45
12.45
13.23
13.70
13.82
13.65
13.28
12.79
12.21
11.49
10.56
9.40
8.08
6.72
5.46
4.34
3.34
2.32
1.09
-0.49
-2.52
-4.97
-7.61
-10.02
-11.74
-12.35
-11.61
-9.64
-6.80
-3.69
-0.96
0.81
1.24
0.25
-1.95
-4.87
-7.95
-10.67
-12.73
-14.09
-14.95
-15.50
-15.87
-16.06
-16.00
-15.64
-15.03
-14.24
-13.42
-12.63
-11.88
-11.13
-10.30
-9.34
-8.25
-6.98
-5.54
-3.99
-2.47
-1.15
-0.25
0.18
0.22
0.11
0.16
0.56
1.35
2.35
3.30
3.93
4.14
4.00
3.67
3.35
3.15
3.09
3.12
3.16
3.12
2.92
2.50
1.86
1.05
0.15
-0.69
-1.31
-1.62
-1.63
-1.46
-1.37
-1.66
-2.57
-4.19
-6.46
-9.08
-11.69
-13.90
-15.45
-16.20
-16.19
-15.52
-14.41
-13.06
-11.61
-10.10
-8.41
-6.39
-3.78
-0.54
3.25
7.34
11.36
14.97
17.93
20.15
21.64
22.54
22.94
22.99
22.80
22.44
22.02
21.61
21.32
21.24
21.40
21.72
22.02
22.04
21.52
20.30
18.35
15.83
12.90
9.74
6.53
3.40
0.53
-1.96
-3.95
-5.43
-6.43
-7.07
-7.40
-7.43
-7.11
-6.34
-5.07
-3.22
-0.88
1.81
4.57
7.10
9.14
10.49
11.14
11.18
10.81
10.22
9.57
8.92
8.28
7.66
7.03
6.36
5.63
4.83
3.94
3.00
2.06
1.14
0.27
-0.64
-1.70
-3.07
-4.83
-7.01
-9.39
-11.66
-13.46
-14.44
-14.51
-13.77
-12.45
-10.87
-9.25
-7.69
-6.23
-4.84
-3.44
-2.05
-0.67
0.69
1.98
3.12
4.02
4.61
4.95
5.27
5.77
6.69
8.05
9.68
11.28
12.55
13.33
13.61
13.55
13.25
12.77
12.07
11.02
9.57
7.73
5.57
3.28
1.04
-0.92
-2.35
-3.07
-3.00
-2.23
-0.92
0.71
2.55
4.61
7.02
9.92
13.44
17.58
22.28
27.46
32.94
38.53
43.87
48.65
52.57
55.57
57.87
59.84
61.91
64.24
66.64
68.56
69.39
68.77
66.71
63.58
59.79
55.50
50.65
44.94
38.26
30.80
23.04
15.46
8.33
1.52
-5.29
-12.31
-19.47
-26.42
-32.78
-38.45
-43.71
-48.98
-54.63
-60.57
-66.31
-71.17
-74.48
-75.98
-75.81
-74.41
-72.28
-69.76
-67.04
-64.16
-61.18
-58.12
-55.11
-52.26
-49.63
-47.22
-44.93
-42.62
-40.03
-37.03
-33.49
-29.45
-25.08
-20.64
-16.37
-12.49
-9.13
-6.33
-4.14
-2.53
-1.48
-0.92
-0.76
-0.94
-1.34
-1.87
-2.36
-2.59
-2.34
-1.47
0.01
1.99
4.21
6.47
8.62
10.64
12.50
14.18
15.56
16.50
16.94
16.90
16.58
16.17
15.83
15.61
15.43
15.15
14.69
14.08
13.39
12.74
12.14
11.54
10.81
9.80
8.41
6.69
4.77
2.84
1.16
-0.18
-1.15
-1.88
-2.55
-3.40
-4.61
-6.30
-8.49
-10.98
-13.41
-15.21
-15.76
-14.59
-11.54
-6.86
-1.11
5.04
11.09
16.69
21.68
25.94
29.28
31.53
32.58
32.54
31.65
30.23
28.54
26.71
24.77
22.74
20.70
18.82
17.23
15.98
15.03
14.22
13.40
12.49
11.44
10.32
9.12
7.86
6.48
4.97
3.30
1.51
-0.31
-2.10
-3.77
-5.31
-6.76
-8.12
-9.42
-10.65
-11.78
-12.76
-13.58
-14.21
-14.62
-14.70
-14.34
-13.36
-11.73
-9.49
-6.83
-4.00
-1.21
1.36
3.57
5.34
6.63
7.44
7.86
8.00
7.99
7.93
7.85
7.72
7.48
7.20
6.94
6.88
7.05
7.42
7.82
8.01
7.84
7.19
6.09
4.65
3.06
1.47
-0.05
-1.39
-2.51
-3.30
-3.75
-3.89
-3.89
-3.95
-4.30
-5.03
-6.07
-7.18
-8.02
-8.32
-7.93
-6.89
-5.35
-3.54
-1.69
0.07
1.55
2.63
3.26
3.44
3.32
3.08
2.90
2.92
3.21
3.75
4.50
5.38
6.29
7.12
7.74
8.10
8.21
8.13
7.94
7.65
7.22
6.57
5.71
4.70
3.69
2.83
2.17
1.68
1.25
0.76
0.14
-0.58
-1.36
-2.12
-2.76
-3.23
-3.47
-3.48
-3.24
-2.80
-2.16
-1.33
-0.30
0.89
2.11
3.18
3.94
4.28
4.20
3.82
3.29
2.74
2.28
1.98
1.87
1.89
1.96
1.95
1.80
1.56
1.39
1.46
1.88
2.61
3.46
4.22
4.72
4.91
4.84
4.57
4.12
3.44
2.53
1.42
0.20
-1.01
-2.17
-3.23
-4.25
-5.21
-6.01
-6.56
-6.74
-6.56
-6.14
-5.66
-5.23
-4.88
-4.53
-4.12
-3.66
-3.23
-2.99
-3.05
-3.33
-3.62
-3.69
-3.43
-2.88
-2.27
-1.78
-1.54
-1.57
-1.77
-2.04
-2.32
-2.58
-2.82
-2.99
-3.01
-2.85
-2.54
-2.14
-1.74
-1.39
-1.09
-0.86
-0.80
-1.03
-1.67
-2.74
-4.07
-5.33
-6.14
-6.23
-5.57
-4.40
-3.04
-1.74
-0.59
0.46
1.48
2.46
3.32
3.91
4.17
4.13
3.85
3.40
2.79
1.98
0.97
-0.08
-0.97
-1.47
-1.52
-1.24
-0.84
-0.61
-0.73
-1.27
-2.15
-3.21
-4.25
-5.10
-5.61
-5.72
-5.45
-4.92
-4.36
-3.98
-3.99
-4.46
-5.24
-6.09
-6.70
-6.87
-6.53
-5.81
-4.88
-3.89
-2.88
-1.80
-0.66
0.47
1.39
1.94
2.00
1.64
1.08
0.60
0.43
0.69
1.36
2.26
3.20
3.97
4.46
4.57
4.33
3.81
3.05
2.10
0.96
-0.37
-1.88
-3.47
-5.03
-6.46
-7.72
-8.80
-9.75
-10.55
-11.14
-11.36
-11.05
-10.15
-8.71
-6.92
-5.00
-3.15
-1.51
-0.15
0.88
1.50
1.69
1.41
0.77
-0.08
-0.92
-1.57
-1.92
-1.94
-1.72
-1.30
-0.75
-0.08
0.66
1.40
2.10
2.71
3.14
3.38
3.47
3.43
3.24
2.80
1.98
0.68
-1.07
-3.10
-5.07
-6.61
-7.45
-7.50
-6.85
-5.74
-4.46
-3.23
-2.19
-1.39
-0.79
-0.36
0.01
0.39
0.85
1.41
2.03
2.67
3.25
3.70
3.97
4.03
3.83
3.35
2.55
1.50
0.31
-0.95
-2.16
-3.31
-4.41
-5.46
-6.39
-7.13
-7.60
-7.82
-7.90
-7.95
-8.03
-8.06
-7.88
-7.31
-6.25
-4.72
-2.83
-0.83
1.05
2.60
3.67
4.21
4.25
3.91
3.40
2.90
2.57
2.51
2.72
3.18
3.83
4.53
5.11
5.36
5.19
4.57
3.66
2.70
1.85
1.23
0.78
0.38
-0.10
-0.67
-1.27
-1.81
-2.26
-2.69
-3.21
-3.90
-4.71
-5.43
-5.79
-5.58
-4.76
-3.53
-2.16
-0.93
0.04
0.73
1.27
1.70
1.99
2.07
1.84
1.31
0.61
-0.06
-0.55
-0.72
-0.52
0.04
0.91
1.94
2.94
3.74
4.20
4.27
4.05
3.67
3.20
2.68
2.02
1.17
0.13
-1.01
-2.19
-3.33
-4.47
-5.62
-6.72
-7.63
-8.15
-8.11
-7.42
-6.16
-4.46
-2.53
-0.57
1.31
2.92
4.15
4.90
5.15
4.98
4.55
4.03
3.58
3.33
3.32
3.55
4.01
4.60
5.14
5.48
5.47
5.05
4.33
3.39
2.41
1.51
0.73
0.14
-0.24
-0.41
-0.46
-0.53
-0.83
-1.48
-2.45
-3.63
-4.69
-5.39
-5.62
-5.41
-4.87
-4.12
-3.22
-2.15
-0.96
0.27
1.38
2.16
2.49
2.40
2.04
1.62
1.30
1.17
1.27
1.51
1.86
2.28
2.73
3.15
3.46
3.61
3.51
3.16
2.58
1.81
0.89
-0.13
-1.18
-2.21
-3.17
-4.05
-4.81
-5.42
-5.82
-5.99
-5.90
-5.55
-4.92
-3.97
-2.71
-1.19
0.39
1.79
2.69
3.00
2.78
2.31
1.99
2.09
2.71
3.70
4.72
5.45
5.69
5.52
5.19
5.09
5.48
6.38
7.59
8.77
9.64
10.04
9.99
9.61
9.14
9.00
9.87
12.74
18.55
27.91
40.63
55.75
71.93
87.95
103.11
117.22
130.19
141.62
150.63
156.09
157.10
153.38
145.26
133.47
118.86
102.11
83.83
64.63
45.31
26.65
9.41
-5.93
-19.22
-30.51
-39.93
-47.55
-53.25
-56.85
-58.16
-57.10
-53.66
-47.80
-39.41
-28.44
-15.14
-0.35
14.44
27.39
36.93
42.19
43.31
41.14
36.71
30.80
23.76
15.74
6.98
-2.03
-10.75
-18.94
-26.93
-35.53
-45.56
-57.36
-70.41
-83.56
-95.47
-105.21
-112.44
-117.38
-120.45
-121.92
-121.86
-120.23
-117.15
-113.01
-108.39
-103.91
-100.07
-97.29
-95.98
-96.56
-99.24
-103.80
-109.41
-114.70
-118.13
-118.41
-114.98
-108.02
-98.31
-86.69
-73.80
-59.94
-45.16
-29.56
-13.45
2.54
17.51
30.54
41.01
49.04
55.75
63.20
73.81
89.47
110.72
136.51
164.61
192.60
218.67
242.04
262.50
279.70
292.77
300.42
301.72
296.68
286.53
273.36
259.50
246.70
235.61
225.47
214.19
198.78
176.07
143.65
100.64
47.96
-11.74
-74.50
-135.59
-189.97
-232.87
-260.73
-272.00
-267.84
-251.95
-229.50
-205.57
-183.83
-165.88
-151.71
-140.63
-132.00
-125.52
-120.94
-117.62
-114.51
-110.38
-104.33
-96.11
-86.31
-76.03
-66.48
-58.56
-52.57
-48.29
-45.25
-42.96
-41.17
-39.83
-38.96
-38.41
-37.87
-36.84
-34.82
-31.51
-26.93
-21.41
-15.45
-9.56
-4.14
0.61
4.66
8.03
10.74
12.68
13.72
13.83
13.09
11.73
9.96
7.88
5.41
2.43
-1.08
-4.90
-8.60
-11.57
-13.20
-13.14
-11.23
-7.69
-3.02
2.05
6.79
10.57
13.11
14.58
15.36
15.89
16.41
16.93
17.27
17.24
16.63
15.29
13.17
10.25
6.68
2.74
-1.14
-4.53
-7.16
-9.07
-10.49
-11.77
-13.16
-14.69
-16.27
-17.64
-18.43
-18.21
-16.56
-13.30
-8.75
-3.77
0.43
2.76
2.76
0.83
-1.87
-4.04
-4.76
-3.85
-1.70
1.07
3.98
6.80
9.41
11.58
12.93
13.09
11.93
9.72
7.12
4.90
3.70
3.74
4.75
6.14
7.24
7.51
6.75
5.12
3.08
1.12
-0.40
-1.43
-2.13
-2.78
-3.59
-4.66
-5.90
-7.17
-8.37
-9.48
-10.49
-11.36
-12.06
-12.49
-12.61
-12.45
-12.08
-11.65
-11.26
-10.95
-10.70
-10.48
-10.29
-10.18
-10.19
-10.31
-10.50
-10.56
-10.34
-9.69
-8.59
-7.14
-5.40
-3.53
-1.61
0.28
2.06
3.57
4.78
5.65
6.24
6.67
7.00
7.22
7.27
7.13
6.84
6.55
6.46
6.67
7.13
7.68
8.13
8.29
8.15
7.72
7.04
6.10
4.83
3.16
1.09
-1.27
-3.69
-5.93
-7.80
-9.29
-10.45
-11.41
-12.25
-13.02
-13.66
-14.04
-13.98
-13.40
-12.25
-10.61
-8.71
-6.74
-4.83
-3.06
-1.41
0.14
1.48
2.38
2.71
2.37
1.53
0.54
-0.30
-0.76
-0.85
-0.75
-0.65
-0.69
-0.86
-1.10
-1.34
-1.56
-1.84
-2.26
-2.83
-3.47
-4.06
-4.49
-4.73
-4.86
-5.05
-5.37
-5.87
-6.48
-7.09
-7.67
-8.25
-8.89
-9.63
-10.38
-10.92
-10.93
-10.19
-8.67
-6.55
-4.24
-2.10
-0.34
1.04
2.20
3.38
4.67
6.04
7.32
8.31
8.88
9.06
8.96
8.69
8.41
8.18
8.06
8.11
8.35
8.67
8.86
8.67
7.91
6.63
5.14
3.83
3.03
2.72
2.65
2.42
1.78
0.73
-0.49
-1.60
-2.46
-3.16
-3.95
-4.99
-6.33
-7.83
-9.28
-10.47
-11.32
-11.69
-11.43
-10.43
-8.60
-6.05
-3.07
-0.14
2.26
3.78
4.35
4.10
3.40
2.64
2.18
2.24
2.90
4.08
5.56
7.12
8.50
9.60
10.41
10.96
11.25
11.27
10.95
10.26
9.27
8.12
6.94
5.77
4.61
3.39
2.20
1.20
0.63
0.61
1.03
1.58
1.74
1.11
-0.57
-3.29
-6.79
-10.66
-14.39
-17.37
-18.95
-18.58
-15.87
-10.83
-3.96
3.86
11.59
18.15
22.77
25.11
25.19
23.46
20.57
17.31
14.49
12.73
12.41
13.53
15.77
18.50
21.05
22.84
23.71
23.88
23.87
24.28
25.43
27.15
28.82
29.69
29.27
27.60
25.27
23.19
22.04
21.99
22.45
22.28
20.31
15.83
9.05
1.11
-6.31
-11.84
-14.97
-16.29
-17.19
-19.07
-22.76
-28.34
-35.34
-42.85
-49.31
-52.25
-48.54
-35.61
-13.28
14.98
42.41
61.38
66.55
57.46
38.52
16.81
-1.42
-13.25
-19.55
-23.36
-27.49
-32.93
-38.80
-43.49
-46.05
-46.80
-47.01
-48.04
-50.46
-53.66
-56.22
-56.77
-54.71
-50.60
-45.95
-42.46
-41.26
-42.47
-45.18
-47.96
-49.60
-49.57
-48.08
-45.85
-43.61
-41.65
-39.79
-37.42
-34.01
-29.38
-23.85
-18.14
-13.09
-9.36
-7.21
-6.50
-6.75
-7.36
-7.85
-7.86
-7.31
-6.25
-4.85
-3.36
-2.14
-1.50
-1.66
-2.65
-4.21
-5.85
-7.15
-7.84
-8.02
-8.02
-8.27
-9.04
-10.29
-11.78
-13.18
-14.29
-15.11
-15.89
-16.88
-18.27
-20.08
-22.08
-23.91
-25.12
-25.27
-24.05
-21.32
-17.19
-11.94
-6.01
0.17
6.14
11.54
16.05
19.46
21.69
22.81
23.06
22.83
22.52
22.43
22.67
23.18
23.70
24.02
23.99
23.66
23.15
22.60
22.02
21.30
20.26
18.71
16.63
14.08
11.26
8.35
5.54
2.88
0.43
-1.81
-3.89
-5.89
-7.96
-10.24
-12.77
-15.43
-17.90
-19.69
-20.26
-19.24
-16.47
-12.13
-6.70
-0.85
4.72
9.43
12.95
15.27
16.60
17.27
17.62
17.91
18.27
18.76
19.38
20.13
20.99
21.84
22.53
22.95
22.98
22.69
22.18
21.54
20.77
19.74
18.28
16.33
13.98
11.51
9.27
7.58
6.54
5.94
5.36
4.25
2.18
-1.05
-5.25
-9.82
-13.94
-16.75
-17.66
-16.46
-13.40
-9.00
-3.91
1.29
6.15
10.36
13.71
16.04
17.35
17.73
17.38
16.66
15.91
15.40
15.23
15.34
15.59
15.89
16.16
16.37
16.51
16.50
16.23
15.52
14.26
12.46
10.24
7.84
5.44
3.22
1.26
-0.43
-1.83
-3.00
-4.01
-5.05
-6.32
-8.07
-10.31
-12.81
-15.10
-16.51
-16.53
-14.92
-11.81
-7.66
-3.09
1.33
5.21
8.39
10.92
12.85
14.23
15.12
15.54
15.61
15.46
15.29
15.26
15.44
15.79
16.15
16.41
16.44
16.22
15.79
15.20
14.43
13.45
12.17
10.50
8.48
6.15
3.67
1.18
-1.17
-3.31
-5.18
-6.86
-8.51
-10.35
-12.55
-15.03
-17.41
-19.07
-19.37
-17.89
-14.68
-10.21
-5.20
-0.31
4.03
7.65
10.51
12.63
14.03
14.72
14.80
14.52
14.23
14.22
14.66
15.47
16.38
17.08
17.26
16.86
16.05
15.07
14.20
13.48
12.73
11.66
10.04
7.79
5.13
2.43
0.01
-1.95
-3.51
-4.87
-6.33
-8.08
-10.26
-12.86
-15.70
-18.42
-20.49
-21.34
-20.58
-18.14
-14.39
-9.93
-5.41
-1.24
2.39
5.59
8.47
10.97
12.97
14.32
15.04
15.37
15.65
16.12
16.87
17.71
18.34
18.50
18.13
17.41
16.62
16.01
15.64
15.35
14.86
13.87
12.22
9.97
7.34
4.63
2.09
-0.16
-2.15
-4.00
-5.89
-7.99
-10.41
-13.19
-16.11
-18.85
-20.88
-21.63
-20.72
-18.07
-13.98
-9.07
-4.05
0.52
4.32
7.33
9.69
11.54
12.94
13.86
14.27
14.23
13.93
13.60
13.46
13.63
14.03
14.49
14.80
14.79
14.44
13.83
13.11
12.40
11.70
10.90
9.84
8.43
6.64
4.58
2.49
0.50
-1.30
-2.95
-4.53
-6.19
-7.99
-10.03
-12.38
-14.96
-17.53
-19.64
-20.75
-20.36
-18.27
-14.69
-10.19
-5.49
-1.20
2.40
5.30
7.67
9.63
11.16
12.18
12.57
12.44
12.06
11.79
11.96
12.74
14.00
15.43
16.66
17.38
17.45
16.91
15.91
14.61
13.14
11.50
9.62
7.47
5.10
2.57
0.05
-2.32
-4.47
-6.36
-8.00
-9.38
-10.58
-11.73
-12.99
-14.53
-16.36
-18.28
-19.85
-20.47
-19.63
-17.07
-12.96
-7.83
-2.44
2.52
6.61
9.71
11.93
13.44
14.37
14.72
14.52
13.92
13.17
12.62
12.52
12.94
13.71
14.55
15.14
15.38
15.33
15.17
15.08
15.09
15.14
15.01
14.49
13.39
11.66
9.40
6.78
4.03
1.39
-0.99
-3.05
-4.82
-6.38
-7.93
-9.62
-11.57
-13.76
-15.89
-17.47
-17.91
-16.80
-14.03
-9.89
-5.00
-0.04
4.50
8.32
11.39
13.73
15.36
16.30
16.55
16.22
15.51
14.68
13.99
13.57
13.44
13.50
13.56
13.42
12.94
12.10
10.97
9.70
8.45
7.24
6.00
4.58
2.83
0.70
-1.68
-4.08
-6.22
-7.87
-8.96
-9.57
-9.92
-10.33
-11.10
-12.46
-14.49
-17.00
-19.54
-21.52
-22.28
-21.33
-18.55
-14.21
-8.94
-3.53
1.27
4.95
7.29
8.35
8.36
7.61
6.36
4.85
3.32
2.01
1.16
0.92
1.26
1.93
2.51
2.61
2.01
0.74
-0.92
-2.57
-3.88
-4.71
-5.15
-5.46
-5.86
-6.57
-7.61
-8.88
-10.22
-11.47
-12.54
-13.49
-14.41
-15.45
-16.72
-18.28
-20.04
-21.80
-23.23
-23.91
-23.45
-21.61
-18.43
-14.21
-9.44
-4.64
-0.25
3.47
6.44
8.69
10.33
11.45
12.12
12.41
12.39
12.20
11.97
11.90
12.12
12.61
13.23
13.71
13.80
13.40
12.54
11.38
10.09
8.78
7.44
6.04
4.51
2.79
0.87
-1.19
-3.26
-5.15
-6.69
-7.82
-8.61
-9.28
-10.14
-11.49
-13.41
-15.75
-18.07
-19.79
-20.33
-19.30
-16.59
-12.48
-7.52
-2.39
2.26
6.02
8.72
10.43
11.33
11.62
11.48
11.02
10.40
9.82
9.48
9.56
10.11
10.98
11.91
12.62
12.94
12.86
12.54
12.14
11.80
11.52
11.16
10.53
9.43
7.73
5.47
2.79
0.00
-2.59
-4.73
-6.36
-7.62
-8.78
-10.17
-12.01
-14.28
-16.76
-18.95
-20.31
-20.36
-18.84
-15.82
-11.69
-7.01
-2.34
1.88
5.46
8.37
10.63
12.35
13.57
14.33
14.70
14.75
14.58
14.29
14.01
13.84
13.81
13.86
13.84
13.58
12.99
12.08
10.96
9.79
8.61
7.37
5.90
4.07
1.86
-0.55
-2.85
-4.77
-6.12
-6.93
-7.42
-7.88
-8.52
-9.42
-10.57
-11.90
-13.34
-14.77
-15.97
-16.63
-16.36
-14.92
-12.30
-8.83
-5.03
-1.44
1.62
4.09
6.09
7.81
9.26
10.34
10.89
10.88
10.42
9.81
9.37
9.29
9.60
10.10
10.53
10.69
10.55
10.23
9.86
9.57
9.38
9.17
8.77
7.96
6.67
4.89
2.76
0.53
-1.51
-3.17
-4.37
-5.20
-5.86
-6.59
-7.61
-9.04
-10.89
-12.98
-15.02
-16.58
-17.16
-16.37
-14.08
-10.55
-6.35
-2.18
1.39
4.08
5.92
7.14
7.97
8.50
8.81
8.90
8.89
8.93
9.17
9.67
10.36
11.04
11.48
11.56
11.27
10.67
9.87
8.94
7.94
6.88
5.72
4.42
2.98
1.42
-0.16
-1.61
-2.75
-3.52
-3.95
-4.26
-4.76
-5.74
-7.34
-9.51
-11.98
-14.41
-16.36
-17.45
-17.32
-15.84
-13.05
-9.26
-4.92
-0.54
3.45
6.78
9.35
11.19
12.33
12.75
12.43
11.43
9.96
8.39
7.13
6.51
6.67
7.46
8.56
9.58
10.23
10.39
10.08
9.43
8.53
7.47
6.27
4.98
3.62
2.25
0.93
-0.23
-1.18
-1.87
-2.33
-2.68
-3.13
-3.93
-5.33
-7.48
-10.35
-13.77
-17.37
-20.63
-22.92
-23.70
-22.65
-19.80
-15.60
-10.70
-5.86
-1.63
1.72
4.17
5.89
7.05
7.76
8.08
8.06
7.81
7.47
7.25
7.28
7.58
8.12
8.71
9.14
9.29
9.14
8.73
8.13
7.40
6.50
5.35
3.91
2.18
0.26
-1.70
-3.52
-5.06
-6.21
-6.99
-7.45
-7.76
-8.12
-8.78
-9.93
-11.64
-13.75
-15.88
-17.56
-18.24
-17.54
-15.37
-11.95
-7.82
-3.55
0.34
3.60
6.13
8.02
9.34
10.07
10.22
9.83
9.13
8.46
8.18
8.44
9.16
10.04
10.68
10.82
10.45
9.76
9.07
8.61
8.45
8.45
8.35
7.90
6.99
5.64
3.98
2.27
0.69
-0.64
-1.71
-2.60
-3.41
-4.26
-5.24
-6.45
-7.94
-9.73
-11.72
-13.67
-15.18
-15.79
-15.08
-12.96
-9.63
-5.59
-1.44
2.32
5.47
7.98
10.00
11.56
12.52
12.70
11.97
10.45
8.51
6.69
5.45
4.97
5.12
5.54
5.87
5.89
5.64
5.31
5.07
5.03
5.08
5.03
4.72
4.03
3.00
1.68
0.19
-1.45
-3.17
-4.93
-6.70
-8.48
-10.26
-12.09
-13.98
-15.84
-17.56
-18.95
-19.74
-19.70
-18.62
-16.37
-13.05
-8.91
-4.41
-0.05
3.75
6.73
8.85
10.16
10.73
10.66
10.09
9.18
8.21
7.50
7.22
7.40
7.86
8.33
8.55
8.44
8.04
7.51
7.01
6.53
6.02
5.34
4.35
3.00
1.35
-0.45
-2.17
-3.64
-4.86
-5.89
-6.93
-8.20
-9.82
-11.78
-13.97
-16.17
-18.14
-19.67
-20.50
-20.37
-19.09
-16.64
-13.19
-9.14
-4.97
-1.07
2.35
5.28
7.77
9.82
11.35
12.23
12.43
12.05
11.39
10.76
10.44
10.51
10.86
11.31
11.64
11.72
11.55
11.26
10.93
10.60
10.17
9.48
8.32
6.61
4.40
1.91
-0.56
-2.81
-4.68
-6.16
-7.28
-8.05
-8.48
-8.56
-8.35
-7.92
-7.28
-6.21
-4.22
-0.67
4.91
12.61
22.00
32.23
42.51
52.35
61.75
70.89
79.90
88.57
96.42
102.89
107.64
110.75
112.65
113.88
114.81
115.45
115.39
113.86
110.11
103.73
95.03
85.00
75.11
66.59
59.98
54.92
50.40
45.38
39.24
32.08
24.47
17.06
10.19
3.79
-2.46
-8.88
-15.54
-22.19
-28.41
-33.74
-37.91
-40.93
-42.93
-44.10
-44.52
-44.22
-43.28
-42.00
-40.87
-40.32
-40.43
-40.71
-40.25
-38.04
-33.37
-26.15
-16.84
-6.21
5.03
16.36
27.40
37.73
46.78
53.87
58.45
60.25
59.53
56.99
53.46
49.68
45.90
41.94
37.33
31.58
24.50
16.33
7.60
-1.11
-9.34
-16.99
-24.03
-30.43
-36.00
-40.43
-43.47
-45.06
-45.45
-44.98
-44.06
-42.91
-41.66
-40.31
-38.89
-37.47
-36.11
-34.93
-34.04
-33.61
-33.84
-34.93
-36.92
-39.63
-42.59
-45.08
-46.33
-45.72
-43.03
-38.55
-33.08
-27.58
-22.96
-19.68
-17.82
-17.11
-17.25
-18.04
-19.48
-21.60
-24.28
-27.15
-29.75
-31.71
-32.96
-33.73
-34.43
-35.38
-36.68
-38.20
-39.70
-40.98
-41.93
-42.56
-42.81
-42.62
-41.84
-40.33
-38.05
-35.06
-31.53
-27.69
-23.85
-20.31
-17.36
-15.12
-13.57
-12.44
-11.41
-10.10
-8.32
-6.13
-3.78
-1.62
0.10
1.25
1.94
2.42
3.03
4.05
5.64
7.68
9.87
11.78
13.00
13.38
13.07
12.55
12.40
13.10
14.77
17.16
19.74
21.97
23.57
24.50
24.82
24.74
24.51
24.40
24.69
25.50
26.68
27.79
28.22
27.33
25.04
21.96
19.24
17.97
18.56
20.35
21.85
21.44
17.79
10.95
2.44
-5.17
-9.22
-7.97
-1.26
9.38
21.26
30.27
32.98
27.69
15.23
-1.48
-18.65
-33.02
-42.93
-48.65
-54.49
-65.45
-85.38
-115.20
-152.68
-193.91
-235.03
-273.36
-307.43
-340.38
-375.26
-413.58
-454.09
-493.31
-527.21
-552.07
-564.59
-562.02
-548.10
-529.84
-516.65
-517.54
-538.11
-578.99
-635.71
-699.94
-731.48
-699.00
-588.11
-410.44
-197.72
15.44
205.40
362.52
486.40
580.45
644.04
676.63
679.86
659.63
625.87
588.99
557.16
534.37
520.92
511.28
499.20
480.34
454.28
424.32
394.76
369.01
349.20
334.15
319.63
301.55
277.53
247.97
216.06
185.25
158.87
139.02
126.75
121.21
120.59
123.05
126.89
131.53
135.20
136.87
135.93
132.73
127.58
120.34
110.62
96.97
78.42
51.49
16.56
-24.84
-69.53
-114.09
-156.47
-195.76
-233.50
-270.75
-311.01
-355.53
-403.08
-449.75
-491.12
-524.18
-547.02
-560.54
-542.01
-478.46
-371.68
-238.97
-102.20
22.09
119.54
194.46
249.48
285.55
299.61
290.55
259.37
212.95
161.61
118.75
95.44
92.39
102.12
111.24
109.90
95.80
74.07
52.49
36.67
28.28
24.12
20.88
15.53
7.68
-1.18
-8.68
-13.48
-15.78
-16.95
-19.39
-24.16
-31.54
-40.50
-49.67
-57.67
-64.09
-69.44
-74.67
-80.91
-88.24
-95.84
-102.12
-106.38
-106.90
-102.99
-95.00
-83.94
-71.17
-57.89
-44.95
-32.74
-21.76
-12.42
-5.43
-1.37
-0.62
-3.13
-8.53
-16.20
-25.10
-34.37
-43.35
-51.79
-59.65
-67.01
-73.95
-80.73
-87.63
-94.46
-101.14
-107.53
-113.50
-118.79
-122.89
-124.99
-123.92
-121.47
-117.96
-113.53
-108.18
-101.97
-95.05
-87.61
-79.91
-72.33
-65.29
-58.71
-52.64
-47.17
-42.37
-38.34
-35.19
-32.99
-31.85
-31.88
-32.81
-34.46
-36.64
-39.16
-41.82
-44.41
-46.75
-48.66
-50.05
-50.63
-50.27
-48.88
-46.48
-43.15
-39.08
-34.51
-29.70
-24.95
-20.39
-16.16
-12.30
-8.76
-5.48
-2.39
0.62
3.58
6.50
9.44
12.40
15.42
18.53
21.71
24.91
28.00
30.78
33.05
34.68
35.63
36.06
36.28
36.62
37.35
38.57
40.22
42.11
44.08
46.11
48.37
51.24
55.04
59.93
65.75
72.04
78.23
83.92
89.08
94.18
100.09
107.70
117.61
129.83
143.85
158.85
174.03
188.92
203.54
218.36
234.20
252.11
273.12
297.61
324.77
352.10
375.63
390.88
394.36
384.78
363.69
334.73
302.33
270.24
240.62
214.06
190.17
168.37
148.26
129.77
112.82
97.24
82.73
69.02
56.01
43.74
32.40
22.15
13.10
5.22
-1.60
-7.48
-12.54
-16.84
-20.37
-23.06
-24.77
-25.40
-25.00
-23.77
-22.21
-20.97
-20.55
-21.18
-22.62
-24.30
-25.63
-26.27
-26.32
-26.32
-26.91
-28.50
-31.08
-34.20
-37.19
-39.50
-40.95
-41.73
-42.23
-42.88
-43.82
-45.07
-46.51
-48.04
-49.61
-51.08
-52.23
-52.76
-52.38
-50.98
-48.75
-46.09
-43.46
-41.15
-39.18
-37.42
-35.66
-33.72
-31.54
-29.10
-26.44
-23.63
-20.67
-17.56
-14.33
-11.10
-8.12
-5.70
-4.17
-3.80
-4.59
-6.30
-8.44
-10.42
-11.64
-11.64
-10.09
-6.81
-1.77
4.83
12.54
20.71
28.61
35.61
41.19
44.97
46.60
45.72
42.04
35.46
26.25
15.16
3.35
-7.91
-17.57
-25.03
-30.22
-33.45
-35.23
-36.00
-36.09
-35.64
-34.71
-33.28
-31.32
-28.76
-25.53
-21.72
-17.48
-13.16
-9.20
-6.02
-3.89
-2.89
-2.91
-3.63
-4.80
-6.17
-7.61
-9.04
-10.42
-11.59
-12.31
-12.36
-11.58
-10.04
-8.08
-6.24
-5.13
-5.22
-6.77
-9.62
-13.34
-17.22
-20.50
-22.55
-23.05
-22.06
-19.91
-17.21
-14.50
-12.23
-10.61
-9.68
-9.29
-9.21
-9.21
-9.03
-8.55
-7.72
-6.63
-5.45
-4.31
-3.30
-2.36
-1.28
0.34
2.88
6.59
11.35
16.57
21.41
25.08
27.21
28.03
28.27
28.79
30.27
32.91
36.50
40.56
44.52
47.92
50.40
51.68
51.60
50.13
47.46
43.95
40.07
36.19
32.52
29.05
25.66
22.21
18.67
15.09
11.46
7.67
3.51
-1.20
-6.36
-11.51
-15.94
-18.99
-20.37
-20.22
-19.11
-17.67
-16.34
-15.26
-14.35
-13.52
-12.84
-12.66
-13.40
-15.39
-18.67
-22.98
-27.88
-32.93
-37.82
-42.46
-46.78
-50.73
-54.04
-56.33
-57.19
-56.34
-53.84
-50.04
-45.58
-41.13
-37.18
-33.90
-31.08
-28.23
-24.80
-20.37
-14.96
-9.00
-3.26
1.47
4.64
6.21
6.69
6.93
7.80
9.82
13.00
16.91
20.90
24.42
27.16
29.07
30.16
30.47
29.91
28.44
26.12
23.28
20.31
17.60
15.32
13.46
11.90
10.45
9.09
7.81
6.57
5.32
3.91
2.20
0.14
-2.13
-4.40
-6.37
-7.88
-8.93
-9.69
-10.46
-11.49
-12.86
-14.45
-16.00
-17.24
-18.03
-18.41
-18.51
-18.40
-18.04
-17.37
-16.35
-15.09
-13.78
-12.71
-12.05
-11.85
-12.09
-12.72
-13.73
-15.16
-16.95
-18.90
-20.69
-21.94
-22.24
-21.37
-19.37
-16.45
-13.10
-9.78
-6.84
-4.41
-2.38
-0.59
1.10
2.61
3.76
4.34
4.27
3.69
2.93
2.29
1.99
2.01
2.18
2.32
2.27
1.97
1.43
0.78
0.11
-0.53
-1.13
-1.79
-2.59
-3.63
-4.88
-6.20
-7.41
-8.23
-8.45
-7.84
-6.28
-3.75
-0.40
3.43
7.27
10.61
13.09
14.55
15.12
15.01
14.46
13.55
12.34
10.80
8.98
6.97
4.88
2.84
0.92
-0.79
-2.26
-3.46
-4.39
-5.13
-5.80
-6.45
-7.12
-7.76
-8.27
-8.58
-8.66
-8.57
-8.37
-8.13
-7.90
-7.76
-7.76
-7.83
-7.78
-7.31
-6.11
-4.04
-1.16
2.20
5.66
8.81
11.43
13.42
14.77
15.46
15.45
14.71
13.30
11.44
9.39
7.40
5.64
4.15
2.89
1.75
0.59
-0.68
-2.04
-3.41
-4.63
-5.54
-6.09
-6.38
-6.62
-7.11
-8.04
-9.41
-11.10
-12.88
-14.52
-15.81
-16.56
-16.60
-15.81
-14.20
-11.97
-9.38
-6.77
-4.30
-2.03
0.09
2.08
3.82
5.18
5.91
6.02
5.65
5.06
4.52
4.15
4.00
3.97
4.03
4.17
4.36
4.60
4.80
4.84
4.58
3.99
3.04
1.82
0.42
-1.10
-2.66
-4.23
-5.77
-7.28
-8.77
-10.31
-11.82
-13.19
-14.17
-14.43
-13.73
-11.98
-9.34
-6.14
-2.79
0.38
3.14
5.38
7.09
8.23
8.82
8.92
8.66
8.25
7.88
7.62
7.44
7.30
7.08
6.84
6.66
6.62
6.73
6.89
6.92
6.64
5.94
4.76
3.17
1.30
-0.67
-2.57
-4.19
-5.43
-6.28
-6.79
-7.19
-7.63
-8.24
-9.01
-9.76
-10.24
-10.22
-9.60
-8.41
-6.85
-5.18
-3.57
-2.15
-0.90
0.24
1.29
2.24
3.08
3.76
4.31
4.74
5.06
5.28
5.36
5.27
4.98
4.53
3.98
3.41
2.89
2.40
1.94
1.44
0.88
0.20
-0.61
-1.49
-2.34
-2.99
-3.30
-3.21
-2.82
-2.32
-2.00
-2.08
-2.62
-3.55
-4.67
-5.80
-6.74
-7.31
-7.31
-6.60
-5.13
-3.03
-0.61
1.77
3.73
5.14
6.00
6.51
6.84
7.09
7.27
7.41
7.52
7.63
7.73
7.73
7.50
6.92
6.02
4.93
3.90
3.06
2.48
2.01
1.52
0.87
0.07
-0.81
-1.65
-2.40
-3.06
-3.65
-4.18
-4.62
-4.98
-5.32
-5.73
-6.31
-7.07
-7.91
-8.64
-9.04
-8.93
-8.24
-7.04
-5.50
-3.88
-2.39
-1.21
-0.34
0.29
0.85
1.40
1.93
2.32
2.42
2.21
1.75
1.19
0.72
0.42
0.26
0.14
-0.06
-0.43
-0.98
-1.65
-2.36
-2.97
-3.35
-3.43
-3.21
-2.82
-2.48
-2.40
-2.68
-3.32
-4.20
-5.23
-6.30
-7.39
-8.42
-9.24
-9.64
-9.44
-8.56
-7.08
-5.27
-3.43
-1.83
-0.61
0.24
0.88
1.46
2.06
2.67
3.16
3.42
3.40
3.16
2.82
2.51
2.26
2.00
1.60
0.97
0.13
-0.81
-1.72
-2.43
-2.90
-3.17
-3.28
-3.36
-3.45
-3.56
-3.65
-3.70
-3.70
-3.71
-3.87
-4.25
-4.84
-5.54
-6.17
-6.49
-6.34
-5.69
-4.60
-3.25
-1.83
-0.46
0.76
1.78
2.59
3.16
3.45
3.44
3.16
2.68
2.13
1.62
1.23
0.95
0.68
0.35
-0.04
-0.45
-0.77
-0.92
-0.96
-1.01
-1.22
-1.71
-2.43
-3.28
-4.07
-4.73
-5.22
-5.68
-6.22
-6.93
-7.83
-8.84
-9.80
-10.54
-10.84
-10.54
-9.59
-8.02
-6.01
-3.88
-1.95
-0.50
0.25
0.37
0.04
-0.48
-0.91
-1.07
-0.96
-0.69
-0.41
-0.24
-0.17
-0.19
-0.24
-0.33
-0.54
-0.97
-1.62
-2.50
-3.50
-4.47
-5.32
-5.96
-6.35
-6.55
-6.60
-6.61
-6.70
-6.99
-7.42
-7.84
-8.01
-7.68
-6.74
-5.29
-3.59
-1.97
-0.67
0.19
0.66
0.79
0.69
0.45
0.09
-0.29
-0.62
-0.80
-0.75
-0.44
0.09
0.80
1.58
2.37
3.08
3.60
3.84
3.76
3.31
2.49
1.34
-0.14
-1.86
-3.71
-5.56
-7.28
-8.73
-9.83
-10.55
-10.88
-10.83
-10.37
-9.43
-8.04
-6.32
-4.47
-2.76
-1.36
-0.34
0.36
0.91
1.50
2.21
3.02
3.79
4.37
4.69
4.75
4.63
4.43
4.21
3.92
3.47
2.76
1.78
0.66
-0.42
-1.33
-2.00
-2.47
-2.87
-3.25
-3.64
-4.04
-4.43
-4.89
-5.52
-6.35
-7.33
-8.22
-8.73
-8.61
-7.83
-6.51
-4.93
-3.31
-1.78
-0.40
0.84
1.94
2.85
3.48
3.79
3.84
3.81
3.92
4.25
4.83
5.53
6.14
6.49
6.54
6.29
5.85
5.33
4.76
4.14
3.44
2.59
1.57
0.36
-1.03
-2.53
-4.10
-5.65
-7.12
-8.50
-9.73
-10.66
-11.14
-10.93
-9.89
-8.06
-5.64
-2.95
-0.33
1.97
3.81
5.19
6.14
6.74
7.07
7.24
7.35
7.47
7.59
7.62
7.46
7.02
6.30
5.40
4.51
3.80
3.38
3.30
3.48
3.75
3.94
3.94
3.73
3.37
2.96
2.53
2.07
1.45
0.56
-0.69
-2.26
-3.99
-5.72
-7.27
-8.51
-9.31
-9.54
-9.07
-7.89
-6.06
-3.81
-1.47
0.66
2.35
3.51
4.16
4.42
4.40
4.26
4.10
3.96
3.89
3.93
4.11
4.51
5.16
6.05
7.06
7.99
8.59
8.71
8.30
7.46
6.42
5.34
4.29
3.33
2.49
1.79
1.35
1.17
1.23
1.37
1.39
1.14
0.51
-0.50
-1.90
-3.59
-5.44
-7.28
-8.82
-9.84
-10.14
-9.68
-8.51
-6.82
-4.79
-2.66
-0.60
1.21
2.66
3.73
4.46
4.89
5.09
5.09
4.92
4.67
4.47
4.44
4.70
5.28
6.11
7.06
7.92
8.53
8.77
8.63
8.13
7.27
6.10
4.63
2.90
0.96
-1.03
-2.85
-4.31
-5.29
-5.79
-5.91
-5.79
-5.59
-5.40
-5.34
-5.46
-5.79
-6.29
-6.81
-7.14
-7.00
-6.17
-4.59
-2.41
0.03
2.32
4.13
5.25
5.70
5.67
5.33
4.92
4.54
4.27
4.12
4.15
4.38
4.79
5.31
5.77
6.02
5.99
5.74
5.37
5.01
4.72
4.45
4.08
3.53
2.79
1.92
1.03
0.19
-0.62
-1.45
-2.37
-3.39
-4.49
-5.61
-6.69
-7.74
-8.72
-9.58
-10.22
-10.44
-10.04
-8.93
-7.10
-4.77
-2.26
0.08
1.97
3.31
4.15
4.61
4.88
5.10
5.31
5.49
5.58
5.53
5.31
4.93
4.40
3.75
3.04
2.35
1.74
1.26
0.92
0.67
0.42
0.05
-0.48
-1.11
-1.70
-2.10
-2.25
-2.21
-2.16
-2.33
-2.93
-4.10
-5.79
-7.85
-10.02
-11.97
-13.33
-13.83
-13.36
-11.97
-9.93
-7.58
-5.26
-3.16
-1.37
0.13
1.38
2.41
3.18
3.66
3.87
3.85
3.71
3.58
3.43
3.25
2.96
2.56
2.05
1.51
1.05
0.74
0.60
0.57
0.53
0.35
-0.03
-0.59
-1.28
-1.97
-2.54
-2.96
-3.27
-3.57
-4.04
-4.74
-5.64
-6.60
-7.34
-7.59
-7.17
-6.05
-4.38
-2.42
-0.50
1.18
2.45
3.35
3.93
4.28
4.46
4.49
4.38
4.17
3.95
3.76
3.63
3.49
3.30
3.05
2.77
2.57
2.52
2.62
2.68
2.47
1.75
0.44
-1.27
-3.09
-4.64
-5.69
-6.16
-6.23
-6.15
-6.13
-6.27
-6.47
-6.59
-6.45
-6.01
-5.26
-4.29
-3.16
-1.96
-0.81
0.22
1.03
1.60
1.92
2.05
2.00
1.79
1.45
1.02
0.64
0.42
0.49
0.79
1.22
1.61
1.86
2.02
2.16
2.33
2.50
2.58
2.43
1.98
1.27
0.39
-0.52
-1.42
-2.37
-3.44
-4.71
-6.15
-7.69
-9.16
-10.39
-11.21
-11.46
-11.05
-9.94
-8.25
-6.22
-4.15
-2.28
-0.76
0.47
1.59
2.75
4.02
5.28
6.33
7.06
7.43
7.53
7.49
7.37
7.21
6.99
6.73
6.50
6.41
6.48
6.65
6.72
6.55
5.98
5.06
3.90
2.66
1.52
0.57
-0.18
-0.78
-1.37
-2.10
-3.11
-4.42
-5.96
-7.55
-9.01
-10.15
-10.79
-10.81
-10.14
-8.82
-7.01
-4.99
-3.02
-1.30
0.11
1.28
2.27
3.10
3.70
4.00
3.98
3.79
3.61
3.60
3.85
4.26
4.69
5.01
5.17
5.21
5.21
5.28
5.42
5.59
5.71
5.75
5.66
5.44
5.06
4.49
3.76
2.90
1.95
0.95
-0.08
-1.19
-2.38
-3.65
-4.94
-6.14
-7.16
-7.94
-8.41
-8.51
-8.15
-7.29
-5.94
-4.24
-2.44
-0.81
0.53
1.51
2.22
2.77
3.26
3.70
4.11
4.49
4.91
5.48
6.26
7.18
8.08
8.76
9.06
8.94
8.48
7.84
7.15
6.47
5.79
5.02
4.12
3.08
1.97
0.87
-0.13
-0.97
-1.67
-2.27
-2.84
-3.38
-3.92
-4.44
-4.93
-5.48
-6.16
-7.01
-7.94
-8.77
-9.20
-8.96
-7.90
-6.09
-3.82
-1.40
0.87
2.82
4.36
5.46
6.12
6.30
6.04
5.43
4.66
3.92
3.38
3.07
2.92
2.82
2.65
2.35
1.93
1.46
1.04
0.78
0.75
0.94
1.24
1.54
1.69
1.62
1.30
0.76
0.15
-0.42
-0.84
-1.07
-1.17
-1.26
-1.45
-1.86
-2.53
-3.39
-4.31
-5.13
-5.67
-5.85
-5.62
-5.02
-4.16
-3.19
-2.21
-1.29
-0.44
0.38
1.11
1.74
2.19
2.48
2.67
2.86
3.15
3.51
3.83
3.92
3.71
3.22
2.59
1.98
1.47
1.03
0.57
0.05
-0.53
-1.03
-1.37
-1.50
-1.49
-1.43
-1.38
-1.34
-1.27
-1.18
-1.11
-1.16
-1.45
-2.02
-2.79
-3.61
-4.30
-4.69
-4.73
-4.44
-3.93
-3.31
-2.64
-1.90
-1.13
-0.32
0.45
1.07
1.49
1.66
1.68
1.66
1.76
2.00
2.37
2.76
3.06
3.24
3.22
3.03
2.69
2.28
1.84
1.45
1.10
0.76
0.39
-0.07
-0.58
-1.12
-1.58
-1.93
-2.13
-2.22
-2.28
-2.36
-2.53
-2.85
-3.35
-3.99
-4.67
-5.15
-5.27
-4.95
-4.20
-3.18
-2.04
-0.92
0.16
1.21
2.24
3.16
3.81
4.12
4.02
3.67
3.24
2.92
2.71
2.54
2.33
2.02
1.67
1.32
1.08
0.90
0.71
0.38
-0.16
-0.87
-1.66
-2.41
-3.10
-3.71
-4.27
-4.85
-5.45
-6.07
-6.69
-7.31
-7.89
-8.41
-8.79
-8.86
-8.51
-7.62
-6.26
-4.59
-2.82
-1.10
0.48
1.90
3.13
4.08
4.66
4.77
4.39
3.63
2.73
1.88
1.22
0.81
0.61
0.59
0.70
0.89
1.10
1.26
1.27
1.06
0.65
0.06
-0.60
-1.28
-1.96
-2.66
-3.40
-4.22
-5.18
-6.28
-7.52
-8.83
-10.05
-10.99
-11.43
-11.25
-10.44
-9.09
-7.39
-5.52
-3.64
-1.86
-0.25
1.17
2.38
3.37
4.18
4.82
5.30
5.62
5.77
5.76
5.67
5.53
5.38
5.20
4.93
4.51
3.89
3.09
2.16
1.14
0.05
-1.11
-2.36
-3.67
-4.98
-6.21
-7.28
-8.17
-8.86
-9.35
-9.61
-9.63
-9.35
-8.74
-7.74
-6.34
-4.62
-2.73
-0.95
0.53
1.62
2.32
2.76
3.11
3.47
3.84
4.19
4.44
4.58
4.64
4.66
4.65
4.61
4.49
4.30
4.02
3.70
3.36
3.00
2.57
1.98
1.18
0.23
-0.80
-1.75
-2.46
-2.90
-3.12
-3.26
-3.45
-3.81
-4.38
-5.08
-5.77
-6.19
-6.16
-5.61
-4.55
-3.16
-1.68
-0.31
0.86
1.82
2.59
3.13
3.41
3.40
3.14
2.78
2.51
2.47
2.69
3.07
3.39
3.48
3.33
2.96
2.55
2.22
1.97
1.77
1.55
1.22
0.76
0.23
-0.29
-0.77
-1.18
-1.57
-1.97
-2.35
-2.70
-3.00
-3.22
-3.31
-3.23
-2.95
-2.47
-1.86
-1.21
-0.63
-0.15
0.25
0.62
1.04
1.53
2.01
2.42
2.73
2.94
3.17
3.46
3.85
4.28
4.65
4.85
4.85
4.67
4.38
4.06
3.74
3.40
2.99
2.48
1.92
1.39
0.95
0.56
0.09
-0.63
-1.69
-3.08
-4.62
-6.06
-7.13
-7.61
-7.42
-6.55
-5.11
-3.29
-1.33
0.51
2.05
3.17
3.87
4.16
4.08
3.71
3.12
2.51
2.04
1.87
2.05
2.52
3.09
3.60
3.91
4.01
3.97
3.83
3.63
3.36
3.00
2.54
2.07
1.69
1.48
1.39
1.29
0.97
0.29
-0.79
-2.13
-3.52
-4.72
-5.60
-6.12
-6.30
-6.14
-5.58
-4.61
-3.19
-1.45
0.37
1.97
3.18
3.95
4.36
4.58
4.74
4.88
4.95
4.90
4.69
4.36
4.00
3.68
3.42
3.21
3.00
2.77
2.50
2.19
1.80
1.34
0.77
0.11
-0.62
-1.38
-2.11
-2.81
-3.52
-4.29
-5.14
-6.04
-6.89
-7.56
-7.96
-7.97
-7.56
-6.72
-5.49
-4.00
-2.39
-0.84
0.53
1.65
2.51
3.15
3.57
3.72
3.52
2.96
2.14
1.25
0.53
0.17
0.21
0.56
1.05
1.53
1.88
2.12
2.30
2.42
2.45
2.29
1.86
1.18
0.35
-0.47
-1.15
-1.70
-2.23
-2.88
-3.71
-4.68
-5.60
-6.23
-6.38
-5.99
-5.14
-4.02
-2.81
-1.68
-0.75
-0.03
0.44
0.68
0.76
0.75
0.76
0.88
1.14
1.49
1.83
2.07
2.13
2.00
1.68
1.25
0.76
0.28
-0.17
-0.55
-0.86
-1.13
-1.39
-1.64
-1.94
-2.33
-2.88
-3.59
-4.42
-5.30
-6.14
-6.84
-7.31
-7.52
-7.38
-6.86
-5.91
-4.54
-2.79
-0.80
1.27
3.23
4.88
6.08
6.74
6.85
6.44
5.68
4.75
3.90
3.24
2.82
2.61
2.54
2.49
2.43
2.37
2.33
2.30
2.28
2.23
2.13
1.97
1.75
1.49
1.15
0.67
-0.04
-1.00
-2.20
-3.50
-4.70
-5.59
-6.02
-5.94
-5.43
-4.63
-3.69
-2.75
-1.90
-1.17
-0.60
-0.11
0.36
0.89
1.55
2.35
3.17
3.91
4.47
4.84
5.10
5.28
5.37
5.24
4.80
3.95
2.81
1.61
0.60
-0.04
-0.36
-0.54
-0.77
-1.20
-1.78
-2.32
-2.66
-2.74
-2.66
-2.63
-2.81
-3.17
-3.60
-3.84
-3.70
-3.20
-2.51
-1.88
-1.47
-1.27
-1.12
-0.83
-0.29
0.45
1.24
1.92
2.48
2.98
3.52
4.17
4.81
5.31
5.46
5.18
4.48
3.50
2.37
1.24
0.15
-0.90
-1.96
-3.07
-4.18
-5.17
-5.94
-6.41
-6.53
-6.39
-6.10
-5.79
-5.46
-5.07
-4.45
-3.51
-2.21
-0.62
1.09
2.66
3.93
4.78
5.20
5.22
4.85
4.10
2.97
1.59
0.15
-1.04
-1.70
-1.70
-1.06
0.00
1.19
2.25
3.02
3.47
3.66
3.59
3.27
2.72
1.94
0.95
-0.17
-1.39
-2.67
-3.92
-5.09
-6.10
-6.86
-7.28
-7.21
-6.58
-5.34
-3.63
-1.69
0.15
1.63
2.66
3.36
3.93
4.53
5.14
5.56
5.61
5.22
4.61
4.15
4.10
4.54
5.26
5.90
6.20
6.07
5.66
5.19
4.77
4.33
3.75
2.88
1.77
0.55
-0.61
-1.63
-2.54
-3.40
-4.26
-5.01
-5.50
-5.54
-5.02
-3.96
-2.51
-0.92
0.52
1.59
2.18
2.34
2.22
2.02
1.87
1.81
1.79
1.69
1.51
1.28
1.15
1.21
1.53
2.05
2.66
3.20
3.57
3.70
3.60
3.33
2.92
2.38
1.68
0.78
-0.30
-1.48
-2.66
-3.72
-4.58
-5.21
-5.60
-5.74
-5.62
-5.20
-4.48
-3.50
-2.37
-1.26
-0.27
0.49
1.02
1.33
1.46
1.48
1.41
1.26
1.06
0.81
0.54
0.28
0.04
-0.17
-0.35
-0.53
-0.72
-0.99
-1.40
-1.97
-2.68
-3.48
-4.28
-4.94
-5.40
-5.67
-5.80
-5.87
-5.93
-5.93
-5.79
-5.43
-4.78
-3.92
-2.93
-1.95
-1.06
-0.26
0.46
1.13
1.70
2.11
2.31
2.39
2.48
2.69
3.08
3.55
3.98
4.24
4.32
4.26
4.13
3.97
3.69
3.20
2.43
1.44
0.35
-0.74
-1.74
-2.64
-3.45
-4.19
-4.83
-5.40
-5.81
-6.04
-6.09
-5.94
-5.62
-5.12
-4.44
-3.54
-2.46
-1.25
-0.01
1.12
2.03
2.64
3.00
3.18
3.30
3.42
3.59
3.81
4.07
4.38
4.66
4.81
4.72
4.33
3.69
2.98
2.37
2.01
1.96
2.08
2.14
1.93
1.35
0.44
-0.64
-1.69
-2.62
-3.37
-4.00
-4.55
-4.98
-5.19
-5.06
-4.56
-3.78
-2.88
-1.98
-1.19
-0.50
0.14
0.75
1.33
1.88
2.32
2.68
2.95
3.10
3.10
2.93
2.62
2.23
1.91
1.68
1.58
1.55
1.55
1.57
1.65
1.77
1.92
2.00
1.88
1.48
0.77
-0.17
-1.27
-2.44
-3.64
-4.77
-5.74
-6.42
-6.69
-6.50
-5.84
-4.80
-3.48
-2.02
-0.54
0.82
1.93
2.69
3.12
3.29
3.35
3.43
3.59
3.80
4.01
4.15
4.17
4.11
3.96
3.78
3.60
3.43
3.30
3.21
3.18
3.11
2.90
2.45
1.75
0.84
-0.12
-0.96
-1.57
-1.91
-2.07
-2.18
-2.38
-2.73
-3.16
-3.54
-3.71
-3.51
-2.89
-1.95
-0.81
0.30
1.20
1.84
2.21
2.43
2.63
2.90
3.21
3.57
3.87
4.06
4.15
4.10
3.95
3.64
3.15
2.44
1.54
0.52
-0.54
-1.54
-2.39
-3.00
-3.39
-3.56
-3.59
-3.49
-3.22
-2.71
-1.88
-0.76
0.55
1.92
3.32
4.93
7.06
10.00
13.79
18.21
22.78
27.06
30.80
34.02
36.93
39.81
42.95
46.52
50.54
54.82
58.92
62.28
64.32
64.57
62.78
58.91
52.99
45.18
35.78
25.32
14.67
4.85
-3.20
-8.90
-12.17
-13.36
-12.99
-11.58
-9.50
-7.01
-4.46
-2.23
-0.81
-0.61
-1.79
-4.17
-7.20
-10.18
-12.48
-13.70
-13.75
-12.79
-11.16
-9.19
-7.11
-5.01
-2.95
-0.92
1.06
2.92
4.51
5.68
6.26
6.15
5.29
3.69
1.44
-1.27
-4.24
-7.22
-10.00
-12.57
-15.13
-18.11
-22.00
-27.14
-33.48
-40.48
-47.22
-52.60
-55.67
-56.00
-53.69
-49.40
-44.09
-38.74
-34.14
-30.74
-28.62
-27.63
-27.50
-27.93
-28.62
-29.33
-29.82
-29.88
-29.30
-28.09
-26.33
-24.22
-21.89
-19.21
-15.63
-10.39
-2.63
8.22
22.19
38.57
55.88
72.11
85.12
93.18
95.46
92.19
84.59
74.39
63.26
52.43
42.65
34.24
27.33
21.88
17.71
14.39
11.32
7.96
4.12
-0.05
-4.15
-7.78
-10.88
-13.70
-16.71
-20.44
-25.15
-30.90
-37.46
-44.41
-51.22
-57.27
-61.92
-64.65
-65.11
-63.23
-59.27
-53.79
-47.62
-41.71
-36.87
-33.70
-32.38
-32.74
-34.37
-36.80
-39.54
-42.15
-44.24
-45.48
-45.70
-44.96
-43.50
-41.71
-39.99
-38.55
-37.37
-36.27
-34.94
-33.11
-30.59
-27.32
-23.43
-19.14
-14.81
-10.80
-7.40
-4.69
-2.56
-0.72
1.11
3.04
5.00
6.79
8.19
9.15
9.80
10.42
11.27
12.47
13.87
15.22
16.15
16.42
15.92
14.66
12.77
10.37
7.62
4.64
1.59
-1.44
-4.39
-7.18
-9.72
-11.87
-13.38
-14.00
-13.49
-11.81
-9.17
-5.98
-2.71
0.19
2.45
3.97
4.83
5.16
5.11
4.87
4.61
4.53
4.77
5.41
6.35
7.50
8.72
9.85
10.83
11.55
11.86
11.63
10.80
9.36
7.48
5.41
3.47
1.93
0.92
0.40
0.20
0.05
-0.32
-1.14
-2.47
-4.29
-6.28
-8.04
-9.07
-8.99
-7.65
-5.22
-2.10
1.17
4.08
6.32
7.79
8.57
8.89
9.06
9.45
10.31
11.66
13.16
14.28
14.42
13.21
10.71
7.39
4.00
1.24
-0.50
-1.15
-0.94
-0.25
0.57
1.18
1.33
0.93
0.03
-1.15
-2.31
-3.14
-3.51
-3.46
-3.19
-2.99
-3.02
-3.24
-3.45
-3.36
-2.71
-1.44
0.37
2.52
4.74
6.84
8.63
10.04
11.00
11.53
11.67
11.56
11.33
11.03
10.63
9.98
8.96
7.54
5.85
4.19
2.86
2.09
1.91
2.19
2.65
3.04
3.26
3.25
3.05
2.69
2.18
1.50
0.65
-0.35
-1.40
-2.37
-3.17
-3.79
-4.20
-4.38
-4.29
-3.86
-3.09
-2.02
-0.77
0.52
1.81
3.01
4.06
4.89
5.40
5.55
5.39
5.09
4.86
4.90
5.27
5.85
6.42
6.78
6.80
6.49
5.95
5.30
4.62
3.95
3.23
2.45
1.59
0.68
-0.25
-1.13
-1.99
-2.85
-3.84
-4.98
-6.25
-7.49
-8.49
-9.00
-8.87
-8.10
-6.82
-5.31
-3.82
-2.54
-1.56
-0.79
-0.07
0.73
1.69
2.72
3.70
4.53
5.18
5.67
6.10
6.53
6.96
7.36
7.64
7.71
7.50
6.95
6.02
4.78
3.36
1.92
0.59
-0.56
-1.60
-2.62
-3.73
-4.99
-6.37
-7.77
-9.09
-10.20
-10.94
-11.13
-10.55
-9.13
-6.94
-4.24
-1.35
1.37
3.73
5.63
7.09
8.22
9.01
9.45
9.55
9.31
8.84
8.29
7.76
7.24
6.68
5.98
5.08
4.04
2.99
2.08
1.46
1.07
0.80
0.47
-0.03
-0.74
-1.54
-2.31
-2.94
-3.36
-3.65
-3.91
-4.18
-4.38
-4.33
-3.80
-2.73
-1.17
0.61
2.29
3.65
4.58
5.20
5.64
5.96
6.17
6.20
5.97
5.50
4.92
4.38
3.99
3.80
3.78
3.87
4.03
4.25
4.53
4.85
5.15
5.36
5.41
5.28
4.98
4.54
3.97
3.32
2.64
1.99
1.42
0.91
0.35
-0.34
-1.23
-2.22
-3.08
-3.57
-3.49
-2.82
-1.72
-0.44
0.78
1.83
2.67
3.33
3.77
3.98
3.95
3.77
3.61
3.65
4.00
4.58
5.17
5.53
5.52
5.20
4.75
4.38
4.21
4.20
4.19
4.06
3.75
3.29
2.75
2.14
1.43
0.55
-0.51
-1.66
-2.80
-3.83
-4.72
-5.47
-6.08
-6.46
-6.48
-6.00
-5.01
-3.56
-1.87
-0.19
1.30
2.44
3.19
3.55
3.57
3.37
3.04
2.65
2.28
1.95
1.71
1.62
1.69
1.95
2.42
3.08
3.85
4.59
5.15
5.37
5.18
4.62
3.81
2.94
2.15
1.48
0.88
0.28
-0.38
-1.13
-1.93
-2.79
-3.68
-4.51
-5.18
-5.50
-5.31
-4.56
-3.30
-1.75
-0.17
1.15
2.08
2.58
2.79
2.88
3.04
3.39
3.93
4.56
5.10
5.41
5.40
5.08
4.57
4.01
3.52
3.18
3.00
2.94
2.98
3.13
3.42
3.86
4.45
5.18
6.09
7.30
8.96
11.17
14.04
17.60
21.84
26.68
31.95
37.45
42.89
47.97
52.41
56.02
58.61
60.04
60.09
58.67
55.90
52.15
47.95
43.65
39.32
34.47
28.44
20.59
10.81
-0.32
-11.65
-21.85
-29.97
-35.73
-39.61
-42.58
-45.61
-49.13
-52.75
-55.35
-55.53
-52.33
-45.71
-36.60
-26.50
-16.74
-7.95
0.11
8.36
17.99
30.20
45.96
65.71
88.92
113.65
136.59
153.80
162.14
160.73
151.50
138.55
126.31
117.62
112.63
109.05
103.52
93.36
77.65
57.29
34.05
9.54
-15.61
-41.95
-70.65
-102.83
-138.73
-177.48
-216.84
-253.18
-281.54
-296.31
-292.56
-267.73
-223.08
-163.94
-98.63
-36.09
16.53
55.39
79.94
91.84
93.38
86.61
73.35
55.60
36.02
17.58
2.82
-6.93
-11.76
-12.85
-11.86
-9.99
-7.55
-4.02
1.63
10.18
21.78
35.91
51.54
67.34
81.91
93.80
101.55
104.08
101.04
93.25
82.63
71.64
62.33
55.62
51.10
47.51
43.49
38.19
31.62
24.41
17.70
13.14
12.62
17.76
28.74
43.05
55.12
57.69
44.67
14.28
-29.45
-77.75
-120.44
-149.94
-163.70
-164.10
-156.21
-144.73
-132.21
-119.06
-104.93
-90.20
-76.45
-65.69
-59.02
-56.02
-55.00
-54.03
-51.93
-48.65
-44.76
-40.60
-35.81
-29.20
-19.50
-6.18
10.24
28.20
45.56
60.26
70.69
75.91
75.67
70.35
60.96
48.90
35.74
22.91
11.47
2.13
-4.80
-9.33
-11.88
-13.11
-13.76
-14.38
-15.14
-15.79
-15.88
-15.17
-13.78
-12.23
-11.15
-10.93
-11.52
-12.37
-12.84
-12.53
-11.49
-10.20
-9.34
-9.42
-10.53
-12.30
-14.03
-15.03
-14.90
-13.68
-11.72
-9.49
-7.31
-5.26
-3.33
-1.50
0.12
1.41
2.32
2.94
3.47
4.07
4.75
5.37
5.73
5.75
5.58
5.52
5.86
6.67
7.78
8.84
9.53
9.69
9.38
8.76
7.95
6.84
5.23
2.89
-0.11
-3.39
-6.38
-8.49
-9.47
-9.53
-9.16
-8.93
-9.19
-9.91
-10.85
-11.63
-12.02
-11.98
-11.63
-11.20
-10.90
-10.86
-11.24
-12.10
-13.47
-15.27
-17.30
-19.32
-21.13
-22.66
-23.97
-25.22
-26.51
-27.79
-28.90
-29.57
-29.63
-29.05
-28.02
-26.79
-25.56
-24.27
-22.62
-20.18
-16.66
-12.12
-7.08
-2.37
1.27
3.47
4.43
4.77
5.21
6.24
7.86
9.71
11.25
12.10
12.12
11.41
10.10
8.17
5.46
1.69
-3.23
-9.14
-15.62
-22.08
-28.04
-33.19
-37.40
-40.69
-43.20
-45.15
-46.93
-48.85
-50.95
-52.91
-53.96
-53.17
-49.72
-43.18
-33.54
-21.17
-6.76
8.76
24.24
38.49
50.64
60.48
68.43
75.16
81.05
85.68
87.85
86.07
79.36
68.02
53.86
39.70
28.32
21.29
18.28
17.25
15.49
11.08
3.85
-4.55
-11.51
-14.92
-14.28
-10.71
-6.21
-2.44
0.13
2.15
4.66
8.19
12.33
15.91
17.71
17.27
15.27
13.22
12.89
15.41
20.84
28.10
35.42
41.07
43.95
43.84
41.17
36.64
30.83
24.07
16.62
8.80
1.12
-5.76
-11.37
-15.56
-18.43
-20.25
-21.20
-21.33
-20.58
-19.05
-16.97
-14.68
-12.43
-10.20
-7.75
-4.83
-1.30
2.64
6.47
9.60
11.49
11.81
10.47
7.50
3.03
-2.76
-9.65
-17.38
-25.52
-33.55
-40.81
-46.55
-50.05
-50.79
-48.46
-43.12
-35.23
-25.59
-15.26
-5.36
3.09
9.38
13.19
14.61
14.01
11.91
8.90
5.49
2.10
-0.98
-3.64
-5.97
-8.19
-10.54
-13.14
-15.87
-18.52
-20.80
-22.57
-23.85
-24.68
-25.05
-24.73
-23.41
-20.81
-16.91
-12.05
-6.79
-1.79
2.46
5.68
7.82
8.88
8.92
8.01
6.37
4.36
2.44
1.06
0.41
0.41
0.70
0.86
0.58
-0.22
-1.32
-2.37
-2.98
-2.91
-2.13
-0.77
0.87
2.45
3.68
4.34
4.30
3.58
2.36
0.96
-0.27
-1.02
-1.17
-0.80
-0.11
0.63
1.23
1.59
1.73
1.72
1.62
1.47
1.32
1.20
1.14
1.16
1.19
1.17
1.01
0.67
0.17
-0.40
-0.95
-1.43
-1.84
-2.27
-2.84
-3.67
-4.77
-5.98
-7.05
-7.64
-7.50
-6.53
-4.83
-2.73
-0.62
1.16
2.44
3.22
3.69
4.04
4.43
4.92
5.46
5.92
6.21
6.22
5.91
5.37
4.68
4.00
3.43
3.04
2.79
2.63
2.48
2.31
2.11
1.82
1.39
0.80
0.02
-0.90
-1.81
-2.60
-3.20
-3.59
-3.81
-3.88
-3.75
-3.38
-2.68
-1.59
-0.14
1.58
3.44
5.26
6.90
8.28
9.33
10.03
10.37
10.34
9.99
9.45
8.90
8.54
8.55
8.95
9.65
10.45
11.13
11.51
11.48
11.00
10.12
8.87
7.30
5.51
3.57
1.53
-0.59
-2.80
-5.16
-7.63
-10.14
-12.53
-14.56
-16.07
-16.92
-17.07
-16.55
-15.45
-13.88
-11.97
-9.85
-7.64
-5.49
-3.51
-1.78
-0.32
0.85
1.76
2.39
2.72
2.70
2.32
1.66
0.86
0.10
-0.48
-0.80
-0.89
-0.88
-0.90
-1.06
-1.39
-1.85
-2.41
-3.07
-3.84
-4.75
-5.85
-7.06
-8.30
-9.37
-10.10
-10.34
-10.09
-9.45
-8.61
-7.73
-6.87
-6.00
-5.03
-3.92
-2.72
-1.56
-0.61
0.05
0.44
0.66
0.76
0.73
0.53
0.15
-0.30
-0.62
-0.64
-0.33
0.19
0.62
0.69
0.27
-0.57
-1.70
-2.94
-4.18
-5.44
-6.68
-7.84
-8.76
-9.28
-9.36
-9.07
-8.61
-8.15
-7.79
-7.45
-6.94
-6.13
-4.95
-3.50
-1.99
-0.62
0.41
0.98
1.09
0.81
0.26
-0.38
-0.89
-1.06
-0.75
0.06
1.20
2.46
3.54
4.18
4.29
3.88
3.15
2.31
1.54
0.90
0.40
-0.03
-0.51
-1.10
-1.89
-2.89
-4.03
-5.16
-6.10
-6.60
-6.55
-5.91
-4.74
-3.20
-1.47
0.29
1.93
3.27
4.18
4.57
4.48
4.05
3.42
2.68
1.82
0.78
-0.44
-1.67
-2.66
-3.10
-2.84
-1.99
-0.93
-0.02
0.41
0.30
-0.20
-0.85
-1.41
-1.76
-1.90
-1.93
-1.97
-2.14
-2.49
-3.06
-3.78
-4.56
-5.24
-5.66
-5.69
-5.27
-4.37
-3.08
-1.47
0.26
1.91
3.29
4.26
4.77
4.90
4.76
4.50
4.25
4.02
3.85
3.73
3.67
3.68
3.74
3.81
3.79
3.58
3.10
2.31
1.23
-0.05
-1.42
-2.74
-3.86
-4.63
-4.94
-4.79
-4.32
-3.79
-3.49
-3.57
-3.99
-4.51
-4.80
-4.57
-3.83
-2.72
-1.51
-0.35
0.80
2.15
3.86
5.89
7.93
9.47
10.05
9.48
7.95
5.92
3.89
2.32
1.40
1.13
1.35
1.90
2.55
3.16
3.61
3.82
3.70
3.22
2.38
1.21
-0.17
-1.62
-2.98
-4.12
-5.05
-5.87
-6.81
-8.05
-9.73
-11.78
-13.93
-15.73
-16.66
-16.30
-14.40
-11.02
-6.44
-1.15
4.27
9.28
13.44
16.42
18.01
18.09
16.71
14.04
10.53
6.78
3.40
0.86
-0.64
-1.21
-1.14
-0.72
-0.11
0.67
1.68
2.90
4.22
5.44
6.36
6.85
6.90
6.51
5.64
4.22
2.20
-0.32
-3.06
-5.56
-7.37
-8.24
-8.14
-7.30
-6.07
-4.73
-3.45
-2.33
-1.43
-0.81
-0.56
-0.72
-1.26
-2.03
-2.83
-3.47
-3.82
-3.76
-3.28
-2.38
-1.13
0.30
1.70
2.82
3.45
3.48
3.00
2.15
1.13
0.14
-0.71
-1.41
-2.05
-2.71
-3.45
-4.17
-4.72
-4.91
-4.60
-3.81
-2.67
-1.38
-0.09
1.13
2.24
3.18
3.87
4.22
4.22
3.93
3.54
3.21
3.08
3.17
3.44
3.82
4.24
4.59
4.80
4.72
4.22
3.23
1.72
-0.22
-2.43
-4.70
-6.79
-8.47
-9.56
-10.00
-9.86
-9.28
-8.50
-7.74
-7.11
-6.62
-6.16
-5.56
-4.70
-3.53
-2.05
-0.41
1.26
2.84
4.21
5.29
6.07
6.53
6.70
6.60
6.33
6.04
5.86
5.89
6.11
6.36
6.45
6.22
5.64
4.77
3.81
2.87
1.99
1.13
0.24
-0.70
-1.57
-2.27
-2.71
-2.87
-2.81
-2.63
-2.31
-1.77
-0.95
0.24
1.73
3.36
4.85
5.90
6.23
5.67
4.20
1.95
-0.73
-3.38
-5.55
-6.89
-7.22
-6.60
-5.24
-3.46
-1.58
0.16
1.55
2.52
3.03
3.11
2.76
2.10
1.21
0.20
-0.80
-1.73
-2.57
-3.21
-3.60
-3.58
-3.04
-1.93
-0.37
1.44
3.25
4.77
5.92
6.59
6.83
6.71
6.31
5.73
5.09
4.47
3.94
3.59
3.38
3.31
3.32
3.32
3.23
3.00
2.57
1.96
1.20
0.27
-0.81
-2.01
-3.26
-4.48
-5.55
-6.42
-7.02
-7.37
-7.51
-7.47
-7.24
-6.79
-6.09
-5.08
-3.83
-2.48
-1.25
-0.35
0.10
0.11
-0.18
-0.57
-0.92
-1.14
-1.22
-1.14
-0.86
-0.34
0.36
1.16
1.89
2.39
2.55
2.37
1.96
1.37
0.71
-0.05
-0.96
-2.05
-3.32
-4.67
-5.92
-6.81
-7.13
-6.76
-5.75
-4.24
-2.44
-0.53
1.40
3.28
5.02
6.47
7.42
7.72
7.31
6.32
5.02
3.77
2.82
2.30
2.07
1.92
1.66
1.16
0.49
-0.25
-0.90
-1.44
-1.95
-2.53
-3.28
-4.15
-5.10
-6.01
-6.88
-7.77
-8.71
-9.63
-10.28
-10.36
-9.62
-8.01
-5.68
-2.97
-0.24
2.23
4.28
5.87
6.98
7.64
7.87
7.82
7.63
7.47
7.41
7.44
7.45
7.33
7.05
6.65
6.25
5.92
5.66
5.42
5.07
4.50
3.63
2.48
1.09
-0.49
-2.22
-4.01
-5.82
-7.57
-9.17
-10.43
-11.15
-11.12
-10.20
-8.38
-5.85
-2.88
0.19
3.06
5.56
7.57
9.07
10.02
10.46
10.41
9.98
9.36
8.77
8.38
8.27
8.48
8.90
9.49
10.16
10.81
11.31
11.50
11.23
10.45
9.25
7.83
6.37
5.00
3.75
2.52
1.29
0.01
-1.31
-2.68
-4.16
-5.80
-7.57
-9.35
-10.91
-11.93
-12.23
-11.74
-10.51
-8.69
-6.41
-3.81
-1.05
1.65
4.04
5.92
7.21
8.03
8.58
9.07
9.63
10.28
10.98
11.65
12.29
12.87
13.43
13.90
14.24
14.36
14.21
13.83
13.26
12.58
11.77
10.69
9.17
7.05
4.39
1.43
-1.40
-3.72
-5.29
-6.12
-6.46
-6.64
-6.93
-7.47
-8.23
-9.14
-10.06
-10.88
-11.45
-11.63
-11.26
-10.26
-8.59
-6.36
-3.74
-0.98
1.70
4.12
6.16
7.80
9.01
9.84
10.38
10.71
10.93
11.12
11.33
11.60
11.87
12.09
12.15
11.96
11.47
10.72
9.78
8.77
7.79
6.91
6.12
5.38
4.59
3.76
2.90
2.08
1.35
0.69
0.03
-0.74
-1.68
-2.81
-4.04
-5.22
-6.20
-6.80
-6.92
-6.53
-5.60
-4.18
-2.38
-0.34
1.72
3.64
5.30
6.64
7.71
8.53
9.10
9.40
9.42
9.16
8.71
8.25
7.93
7.89
8.15
8.63
9.19
9.69
10.01
10.04
9.73
9.12
8.27
7.31
6.33
5.40
4.55
3.76
3.04
2.38
1.75
1.13
0.48
-0.27
-1.19
-2.35
-3.76
-5.38
-7.14
-8.85
-10.31
-11.24
-11.43
-10.82
-9.47
-7.60
-5.46
-3.29
-1.25
0.51
1.96
3.10
3.95
4.61
5.13
5.60
6.10
6.69
7.41
8.25
9.17
10.07
10.84
11.33
11.45
11.20
10.66
9.99
9.33
8.77
8.28
7.78
7.12
6.21
5.04
3.65
2.17
0.72
-0.65
-1.90
-3.07
-4.20
-5.34
-6.53
-7.75
-8.90
-9.85
-10.35
-10.22
-9.33
-7.73
-5.58
-3.13
-0.67
1.57
3.44
4.91
5.94
6.54
6.69
6.44
5.88
5.20
4.59
4.20
4.10
4.15
4.23
4.19
3.99
3.73
3.50
3.33
3.17
2.93
2.54
1.99
1.40
0.82
0.30
-0.27
-0.96
-1.83
-2.84
-3.84
-4.71
-5.42
-6.09
-6.86
-7.82
-8.85
-9.72
-10.11
-9.79
-8.68
-6.90
-4.77
-2.69
-1.05
-0.16
-0.10
-0.81
-1.97
-3.14
-3.96
-4.28
-4.26
-4.31
-4.86
-6.16
-8.06
-10.11
-11.72
-12.50
-12.40
-11.78
-11.19
-11.15
-12.00
-13.79
-16.27
-18.83
-20.33
-19.10
-13.36
-1.76
15.72
37.39
60.10
80.20
94.80
102.74
104.61
101.96
96.40
88.78
79.32
68.09
55.71
43.44
32.87
25.19
20.83
19.47
20.54
23.73
29.27
37.67
49.13
63.08
77.93
91.45
101.47
106.43
105.87
100.34
91.00
79.22
66.16
52.80
39.94
28.41
18.89
11.83
7.21
4.61
3.27
2.42
1.36
-0.48
-3.57
-8.34
-14.92
-23.13
-32.37
-41.75
-50.48
-58.03
-64.26
-69.27
-73.19
-75.96
-77.41
-77.34
-75.71
-72.67
-68.40
-63.00
-56.50
-48.94
-40.62
-32.22
-24.63
-18.72
-14.99
-13.46
-13.80
-15.48
-17.93
-20.59
-22.80
-23.78
-22.76
-19.38
-13.91
-7.34
-1.09
3.58
6.08
6.71
6.44
6.48
7.73
10.48
14.46
19.03
23.57
27.57
30.64
32.44
32.63
31.05
27.89
23.74
19.36
15.31
11.60
7.67
2.65
-4.15
-12.89
-23.11
-33.95
-44.50
-54.04
-62.11
-68.40
-72.79
-75.24
-75.87
-74.84
-72.24
-67.96
-61.66
-53.03
-42.10
-29.45
-16.28
-4.07
5.96
13.24
17.95
20.82
22.75
24.39
26.07
27.78
29.32
30.41
30.82
30.29
28.71
26.24
23.40
21.02
19.91
20.58
22.91
26.34
30.10
33.64
36.66
39.10
40.91
41.80
41.25
38.67
33.75
26.58
17.81
8.30
-1.06
-9.64
-17.14
-23.74
-29.97
-36.51
-43.94
-52.26
-60.89
-68.66
-74.27
-76.98
-77.01
-75.56
-74.40
-74.88
-77.24
-80.31
-81.85
-79.47
-71.46
-57.28
-37.91
-15.41
7.63
28.76
46.04
58.58
66.88
72.88
79.03
86.74
94.97
99.94
96.55
80.87
52.67
16.29
-20.71
-50.51
-68.28
-73.84
-71.03
-65.33
-61.26
-60.61
-62.54
-64.92
-65.84
-64.59
-61.59
-57.87
-54.16
-50.27
-45.29
-38.23
-28.94
-18.44
-8.64
-1.49
1.96
2.14
0.86
0.38
2.42
7.30
13.93
20.46
25.19
27.43
27.64
27.05
26.78
27.22
27.76
27.15
24.03
17.64
8.12
-3.48
-15.60
-26.57
-35.17
-40.75
-43.23
-43.08
-40.94
-37.61
-33.74
-29.85
-26.29
-23.31
-20.99
-19.29
-18.04
-16.94
-15.66
-13.99
-11.93
-9.70
-7.68
-6.23
-5.54
-5.57
-6.05
-6.71
-7.30
-7.72
-7.96
-8.07
-8.13
-8.20
-8.40
-8.75
-9.34
-10.22
-11.36
-12.71
-14.10
-15.32
-16.18
-16.45
-16.04
-14.96
-13.35
-11.36
-9.12
-6.67
-4.00
-1.19
1.63
4.19
6.20
7.52
8.19
8.45
8.59
8.87
9.31
9.83
10.21
10.28
10.01
9.46
8.73
7.92
7.02
5.98
4.77
3.37
1.77
0.01
-1.99
-4.26
-6.81
-9.44
-11.75
-13.20
-13.33
-12.01
-9.39
-6.01
-2.43
0.90
3.80
6.29
8.46
10.33
11.83
12.85
13.39
13.56
13.56
13.56
13.65
13.77
13.81
13.71
13.46
13.06
12.52
11.78
10.82
9.63
8.27
6.89
5.54
4.20
2.76
1.12
-0.77
-2.84
-4.83
-6.50
-7.48
-7.51
-6.43
-4.24
-1.14
2.53
6.32
9.87
12.84
15.11
16.63
17.47
17.76
17.67
17.35
16.92
16.46
16.01
15.61
15.26
15.03
14.94
14.97
15.06
15.04
14.75
14.05
12.92
11.38
9.55
7.66
5.86
4.28
2.85
1.41
-0.29
-2.39
-4.86
-7.44
-9.64
-10.97
-11.08
-9.87
-7.54
-4.47
-1.06
2.30
5.37
7.96
9.95
11.24
11.82
11.78
11.38
10.96
10.79
11.02
11.58
12.27
12.86
13.22
13.35
13.33
13.31
13.31
13.29
13.19
12.89
12.30
11.41
10.19
8.66
6.88
4.94
2.97
1.02
-0.87
-2.73
-4.49
-6.00
-6.93
-6.99
-6.03
-4.11
-1.59
1.12
3.59
5.56
6.88
7.57
7.74
7.54
7.21
6.91
6.80
6.90
7.12
7.34
7.48
7.57
7.70
7.95
8.29
8.61
8.72
8.50
7.93
7.13
6.24
5.38
4.55
3.66
2.55
1.13
-0.57
-2.38
-4.12
-5.71
-7.16
-8.53
-9.82
-10.80
-11.19
-10.66
-9.09
-6.59
-3.52
-0.31
2.68
5.22
7.18
8.43
8.92
8.66
7.85
6.82
6.01
5.71
6.06
6.91
7.89
8.61
8.74
8.20
7.11
5.77
4.46
3.39
2.65
2.13
1.69
1.18
0.58
-0.09
-0.70
-1.29
-1.97
-2.93
-4.29
-5.99
-7.70
-8.95
-9.29
-8.46
-6.58
-4.01
-1.27
1.24
3.33
4.93
6.13
6.96
7.35
7.20
6.47
5.23
3.70
2.16
0.85
-0.07
-0.64
-1.01
-1.43
-2.09
-3.04
-4.18
-5.21
-5.83
-5.81
-5.11
-3.91
-2.59
-1.58
-1.27
-1.98
-3.80
-6.63
-10.12
-13.75
-16.84
-18.80
-19.29
-18.31
-16.28
-13.79
-11.45
-9.63
-8.39
-7.50
-6.65
-5.67
-4.53
-3.45
-2.61
-2.08
-1.73
-1.24
-0.28
1.30
3.29
5.25
6.59
6.97
6.40
5.34
4.48
4.46
5.66
8.00
11.06
14.28
17.11
19.14
20.19
20.19
19.22
17.46
15.16
12.62
10.16
8.06
6.52
5.63
5.39
5.63
6.10
6.50
6.60
6.22
5.29
3.84
1.90
-0.37
-2.85
-5.34
-7.65
-9.58
-10.98
-11.84
-12.26
-12.51
-12.90
-13.62
-14.71
-16.01
-17.28
-18.24
-18.75
-18.77
-18.35
-17.55
-16.44
-15.17
-13.93
-13.02
-12.59
-12.60
-12.76
-12.67
-12.07
-10.95
-9.49
-7.81
-5.90
-3.46
-0.21
3.94
8.68
13.39
17.39
20.18
21.60
21.72
20.72
18.79
16.06
12.76
9.11
5.42
1.91
-1.31
-4.32
-7.23
-10.15
-13.00
-15.59
-17.58
-18.71
-18.78
-17.80
-15.96
-13.61
-11.22
-9.18
-7.75
-6.98
-6.67
-6.50
-6.12
-5.34
-4.07
-2.45
-0.61
1.28
3.13
4.88
6.41
7.60
8.29
8.42
8.02
7.29
6.45
5.70
5.09
4.58
4.01
3.30
2.41
1.39
0.35
-0.60
-1.41
-2.04
-2.46
-2.67
-2.65
-2.47
-2.27
-2.24
-2.49
-3.05
-3.76
-4.35
-4.51
-4.01
-2.79
-1.00
1.13
3.30
5.29
6.93
8.16
8.99
9.43
9.54
9.32
8.79
7.94
6.81
5.51
4.13
2.79
1.56
0.47
-0.52
-1.42
-2.27
-3.12
-4.00
-4.98
-6.11
-7.38
-8.67
-9.83
-10.67
-11.16
-11.45
-11.82
-12.60
-13.92
-15.66
-17.42
-18.67
-18.95
-18.02
-15.94
-13.02
-9.64
-6.17
-2.85
0.16
2.71
4.68
5.97
6.52
6.39
5.74
4.78
3.70
2.67
1.79
1.11
0.61
0.25
-0.04
-0.28
-0.53
-0.79
-1.10
-1.50
-2.08
-2.89
-3.90
-5.01
-6.02
-6.76
-7.15
-7.25
-7.16
-7.00
-6.76
-6.36
-5.72
-4.80
-3.65
-2.42
-1.21
-0.10
0.91
1.87
2.80
3.65
4.35
4.84
5.06
5.03
4.86
4.72
4.85
5.39
6.40
7.78
9.28
10.61
11.53
11.88
11.66
10.95
9.85
8.51
7.06
5.63
4.35
3.30
2.42
1.55
0.50
-0.95
-2.77
-4.78
-6.70
-8.21
-9.07
-9.22
-8.68
-7.51
-5.75
-3.41
-0.56
2.61
5.83
8.78
11.15
12.78
13.63
13.87
13.75
13.54
13.42
13.46
13.55
13.50
13.11
12.25
10.95
9.36
7.62
5.85
4.14
2.49
0.96
-0.37
-1.42
-2.20
-2.73
-3.12
-3.40
-3.59
-3.67
-3.60
-3.38
-3.08
-2.71
-2.21
-1.47
-0.40
1.00
2.60
4.15
5.48
6.49
7.22
7.77
8.16
8.36
8.29
7.94
7.43
6.98
6.76
6.80
6.90
6.74
5.98
4.47
2.27
-0.35
-3.08
-5.70
-8.11
-10.30
-12.24
-13.81
-14.84
-15.30
-15.30
-15.11
-15.02
-15.12
-15.23
-14.94
-13.86
-11.78
-8.83
-5.40
-1.99
1.04
3.51
5.45
6.94
8.02
8.67
8.87
8.62
8.01
7.20
6.34
5.49
4.65
3.74
2.67
1.46
0.09
-1.33
-2.66
-3.74
-4.48
-4.85
-5.00
-5.13
-5.44
-6.09
-7.10
-8.37
-9.74
-11.00
-11.87
-12.17
-11.71
-10.41
-8.34
-5.72
-2.89
-0.14
2.30
4.37
6.05
7.37
8.31
8.79
8.83
8.39
7.55
6.40
5.04
3.52
1.89
0.25
-1.31
-2.60
-3.47
-3.90
-3.93
-3.72
-3.47
-3.32
-3.28
-3.31
-3.28
-3.19
-3.18
-3.43
-4.05
-4.90
-5.61
-5.78
-5.09
-3.48
-1.19
1.39
3.92
6.21
8.20
9.90
11.28
12.21
12.57
12.36
11.74
10.94
10.18
9.55
9.04
8.52
7.92
7.22
6.48
5.79
5.21
4.74
4.32
3.87
3.28
2.51
1.54
0.36
-1.03
-2.59
-4.25
-5.86
-7.18
-7.93
-7.87
-6.86
-4.95
-2.40
0.43
3.13
5.30
6.65
7.06
6.64
5.71
4.72
4.06
3.91
4.21
4.67
4.98
4.88
4.34
3.43
2.33
1.22
0.19
-0.66
-1.29
-1.66
-1.75
-1.63
-1.44
-1.28
-1.24
-1.33
-1.49
-1.65
-1.79
-1.91
-2.05
-2.25
-2.50
-2.75
-2.91
-2.87
-2.57
-1.93
-0.89
0.56
2.33
4.20
5.92
7.17
7.78
7.70
7.07
6.18
5.31
4.64
4.25
4.07
3.98
3.91
3.82
3.71
3.57
3.39
3.09
2.63
1.98
1.18
0.34
-0.43
-1.02
-1.44
-1.80
-2.27
-3.02
-4.08
-5.28
-6.31
-6.77
-6.34
-4.97
-2.82
-0.27
2.25
4.35
5.81
6.55
6.60
6.08
5.13
3.94
2.66
1.47
0.50
-0.24
-0.75
-1.11
-1.39
-1.61
-1.69
-1.60
-1.35
-0.99
-0.67
-0.54
-0.65
-0.97
-1.38
-1.69
-1.83
-1.84
-1.84
-1.99
-2.39
-2.97
-3.64
-4.20
-4.45
-4.26
-3.59
-2.54
-1.37
-0.32
0.42
0.80
0.87
0.81
0.70
0.63
0.60
0.59
0.64
0.82
1.18
1.72
2.41
3.14
3.82
4.35
4.61
4.57
4.26
3.72
3.08
2.46
1.93
1.50
1.18
0.89
0.63
0.40
0.16
-0.10
-0.49
-1.18
-2.23
-3.56
-4.94
-5.99
-6.38
-5.93
-4.72
-2.99
-1.07
0.78
2.48
3.97
5.28
6.32
6.96
7.12
6.83
6.20
5.48
4.87
4.45
4.21
4.04
3.82
3.50
3.11
2.72
2.43
2.27
2.18
2.06
1.80
1.34
0.72
0.06
-0.51
-0.95
-1.30
-1.71
-2.29
-3.06
-3.89
-4.59
-4.99
-4.96
-4.52
-3.77
-2.87
-1.95
-1.07
-0.23
0.64
1.63
2.83
4.22
5.70
7.07
8.09
8.64
8.73
8.53
8.23
7.97
7.75
7.47
7.01
6.28
5.28
4.04
2.64
1.11
-0.49
-2.03
-3.37
-4.33
-4.87
-5.02
-4.97
-4.90
-4.95
-5.17
-5.50
-5.89
-6.23
-6.44
-6.38
-5.91
-4.86
-3.12
-0.78
1.89
4.46
6.50
7.69
7.93
7.35
6.24
4.91
3.66
2.61
1.81
1.26
0.96
0.89
1.00
1.19
1.27
1.08
0.60
-0.07
-0.66
-0.95
-0.82
-0.40
0.01
0.10
-0.31
-1.19
-2.33
-3.54
-4.72
-5.86
-6.96
-7.93
-8.55
-8.53
-7.71
-6.15
-4.11
-2.02
-0.22
1.10
1.93
2.39
2.60
2.61
2.39
1.93
1.24
0.48
-0.17
-0.50
-0.38
0.19
1.08
2.10
3.04
3.81
4.38
4.73
4.84
4.69
4.24
3.47
2.45
1.25
-0.05
-1.37
-2.71
-4.06
-5.37
-6.60
-7.62
-8.31
-8.51
-8.21
-7.41
-6.22
-4.77
-3.23
-1.68
-0.19
1.13
2.19
2.90
3.21
3.18
2.97
2.74
2.61
2.58
2.58
2.54
2.46
2.42
2.47
2.65
2.87
2.98
2.83
2.34
1.55
0.61
-0.36
-1.24
-2.01
-2.68
-3.27
-3.84
-4.40
-4.96
-5.51
-6.05
-6.53
-6.89
-7.06
-6.97
-6.56
-5.78
-4.61
-3.12
-1.44
0.27
1.82
3.02
3.83
4.27
4.46
4.53
4.62
4.79
5.06
5.32
5.40
5.20
4.65
3.84
2.95
2.19
1.67
1.35
1.09
0.74
0.21
-0.43
-1.10
-1.70
-2.22
-2.74
-3.32
-3.97
-4.64
-5.20
-5.63
-5.92
-6.06
-6.04
-5.79
-5.19
-4.17
-2.78
-1.12
0.62
2.25
3.60
4.59
5.11
5.16
4.75
3.99
3.06
2.15
1.41
0.91
0.62
0.50
0.48
0.51
0.59
0.72
0.87
1.00
1.09
1.13
1.09
0.99
0.80
0.47
-0.02
-0.69
-1.51
-2.35
-3.16
-3.97
-4.84
-5.89
-7.14
-8.40
-9.31
-9.48
-8.64
-6.83
-4.35
-1.67
0.72
2.46
3.46
3.76
3.48
2.82
1.97
1.15
0.61
0.50
0.87
1.62
2.55
3.41
4.00
4.24
4.14
3.87
3.63
3.61
3.93
4.51
5.16
5.60
5.59
5.03
3.99
2.68
1.32
0.04
-1.10
-2.15
-3.08
-3.79
-4.10
-3.87
-3.06
-1.85
-0.49
0.69
1.47
1.76
1.63
1.27
0.89
0.67
0.74
1.16
1.89
2.78
3.68
4.42
4.91
5.15
5.17
5.03
4.76
4.37
3.89
3.42
3.06
2.91
3.00
3.30
3.64
3.86
3.76
3.25
2.33
1.10
-0.30
-1.71
-3.03
-4.28
-5.47
-6.61
-7.63
-8.35
-8.59
-8.22
-7.21
-5.66
-3.73
-1.70
0.20
1.70
2.66
3.01
2.83
2.27
1.46
0.54
-0.42
-1.31
-2.06
-2.53
-2.71
-2.58
-2.18
-1.59
-0.88
-0.17
0.38
0.58
0.36
-0.29
-1.14
-1.88
-2.26
-2.26
-2.11
-2.20
-2.90
-4.27
-6.05
-7.78
-8.95
-9.26
-8.72
-7.66
-6.51
-5.62
-5.14
-4.94
-4.81
-4.52
-3.99
-3.21
-2.28
-1.30
-0.36
0.45
1.08
1.45
1.52
1.29
0.94
0.64
0.56
0.77
1.21
1.73
2.17
2.36
2.15
1.46
0.30
-1.26
-3.05
-4.87
-6.56
-7.99
-9.11
-9.90
-10.24
-10.03
-9.18
-7.69
-5.80
-3.84
-2.12
-0.77
0.21
1.03
1.89
2.90
4.15
5.62
7.22
8.85
10.31
11.30
11.51
10.79
9.17
6.96
4.60
2.44
0.60
-1.03
-2.76
-4.80
-7.16
-9.65
-11.90
-13.68
-14.84
-15.43
-15.65
-15.65
-15.47
-15.04
-14.25
-12.96
-11.14
-8.82
-6.05
-2.97
0.30
3.57
6.60
9.15
11.03
12.15
12.51
12.27
11.54
10.33
8.54
6.03
2.70
-1.29
-5.62
-9.81
-13.38
-16.03
-17.54
-17.81
-16.84
-14.62
-11.21
-6.86
-2.00
2.74
6.49
8.46
8.08
5.20
0.27
-5.76
-11.62
-16.02
-18.01
-17.21
-13.80
-8.44
-2.10
4.18
9.49
13.18
15.04
15.27
14.35
12.98
11.88
11.69
12.91
15.82
20.38
26.24
32.72
38.95
44.09
47.44
48.60
47.48
44.19
38.99
32.26
24.59
16.76
9.77
4.52
1.56
0.90
1.90
3.45
4.30
3.40
0.21
-5.17
-12.01
-19.21
-25.53
-29.91
-31.72
-30.89
-27.88
-23.48
-18.47
-13.39
-8.42
-3.59
1.12
5.53
9.27
11.96
13.28
13.20
11.90
9.65
6.76
3.50
0.13
-3.00
-5.57
-7.28
-8.05
-7.98
-7.39
-6.66
-6.15
-6.05
-6.39
-7.05
-7.80
-8.51
-9.14
-9.76
-10.46
-11.20
-11.71
-11.62
-10.55
-8.38
-5.39
-2.13
0.81
3.02
4.50
5.52
6.42
7.34
8.19
8.67
8.52
7.71
6.42
4.99
3.80
3.03
2.62
2.33
1.90
1.15
0.09
-1.17
-2.51
-3.84
-5.19
-6.63
-8.23
-10.02
-11.96
-13.94
-15.81
-17.38
-18.44
-18.82
-18.44
-17.27
-15.45
-13.14
-10.51
-7.73
-4.94
-2.24
0.25
2.46
4.34
5.86
7.12
8.27
9.51
11.00
12.87
15.06
17.39
19.52
21.10
21.82
21.53
20.25
18.16
15.51
12.53
9.45
6.42
3.56
0.83
-1.83
-4.45
-6.83
-8.52
-8.81
-6.92
-2.47
4.35
12.57
20.78
27.52
31.82
33.35
32.50
29.94
26.36
22.18
17.56
12.57
7.35
2.19
-2.56
-6.57
-9.67
-11.88
-13.28
-13.99
-14.08
-13.56
-12.50
-10.98
-9.17
-7.25
-5.39
-3.71
-2.33
-1.36
-0.89
-1.02
-1.79
-3.13
-4.86
-6.74
-8.45
-9.71
-10.32
-10.21
-9.46
-8.29
-6.93
-5.57
-4.30
-3.12
-2.04
-1.08
-0.39
-0.08
-0.18
-0.66
-1.30
-1.82
-1.98
-1.65
-0.87
0.16
1.19
2.03
2.58
2.86
2.92
2.76
2.35
1.64
0.69
-0.38
-1.37
-2.11
-2.58
-2.88
-3.22
-3.75
-4.51
-5.29
-5.76
-5.62
-4.66
-2.95
-0.73
1.64
3.81
5.62
7.02
8.08
8.86
9.37
9.55
9.41
9.00
8.51
8.08
7.81
7.66
7.52
7.26
6.87
6.45
6.16
6.07
6.15
6.26
6.19
5.82
5.17
4.33
3.50
2.78
2.12
1.35
0.22
-1.44
-3.63
-6.14
-8.63
-10.73
-12.15
-12.78
-12.58
-11.60
-9.87
-7.51
-4.63
-1.48
1.69
4.58
7.00
8.80
9.97
10.46
10.26
9.42
7.98
6.13
4.17
2.43
1.24
0.77
1.01
1.75
2.68
3.47
3.89
3.92
3.61
3.13
2.60
2.10
1.63
1.14
0.59
-0.09
-0.93
-2.03
-3.46
-5.25
-7.31
-9.46
-11.45
-13.10
-14.24
-14.77
-14.67
-13.92
-12.58
-10.73
-8.54
-6.21
-4.02
-2.20
-0.95
-0.42
-0.59
-1.33
-2.39
-3.42
-4.13
-4.37
-4.13
-3.53
-2.79
-2.09
-1.54
-1.20
-1.04
-1.02
-1.06
-1.10
-1.15
-1.28
-1.56
-1.99
-2.53
-3.02
-3.29
-3.20
-2.81
-2.32
-1.98
-1.97
-2.35
-3.02
-3.79
-4.44
-4.77
-4.66
-4.04
-2.90
-1.31
0.58
2.55
4.38
5.90
7.08
7.97
8.62
9.11
9.42
9.52
9.42
9.16
8.79
8.38
7.95
7.48
6.94
6.28
5.48
4.55
3.51
2.36
1.17
0.01
-0.98
-1.72
-2.26
-2.73
-3.34
-4.23
-5.42
-6.75
-8.02
-9.04
-9.73
-10.13
-10.31
-10.19
-9.65
-8.49
-6.63
-4.17
-1.45
1.14
3.23
4.56
5.07
4.83
4.04
3.00
1.97
1.21
0.94
1.23
2.00
3.07
4.19
5.15
5.76
5.96
5.74
5.20
4.47
3.70
3.01
2.49
2.13
1.87
1.58
1.15
0.53
-0.28
-1.17
-2.04
-2.80
-3.51
-4.27
-5.18
-6.23
-7.24
-7.95
-8.06
-7.41
-6.06
-4.26
-2.32
-0.52
0.99
2.14
2.93
3.37
3.48
3.35
3.17
3.13
3.38
3.97
4.77
5.67
6.49
7.11
7.51
7.67
7.58
7.22
6.55
5.55
4.28
2.82
1.24
-0.35
-1.91
-3.39
-4.75
-5.99
-7.14
-8.20
-9.16
-9.99
-10.51
-10.53
-9.83
-8.32
-6.05
-3.30
-0.42
2.25
4.45
6.12
7.25
7.89
8.08
7.87
7.33
6.61
5.87
5.28
4.92
4.72
4.50
4.13
3.52
2.68
1.69
0.60
-0.56
-1.81
-3.16
-4.57
-5.87
-6.90
-7.52
-7.71
-7.59
-7.36
-7.23
-7.29
-7.52
-7.74
-7.75
-7.38
-6.51
-5.16
-3.37
-1.19
1.31
4.01
6.76
9.33
11.43
12.89
13.64
13.80
13.53
13.00
12.35
11.70
11.19
11.04
11.42
12.40
13.89
15.58
17.08
18.01
18.13
17.43
15.99
14.01
11.65
9.07
6.33
3.48
0.60
-2.21
-4.85
-7.26
-9.36
-11.15
-12.53
-13.32
-13.34
-12.42
-10.60
-8.14
-5.52
-3.21
-1.56
-0.64
-0.36
-0.50
-0.89
-1.46
-2.16
-2.92
-3.65
-4.26
-4.70
-4.95
-5.06
-5.09
-5.07
-5.03
-4.99
-4.96
-4.93
-4.86
-4.66
-4.30
-3.80
-3.29
-2.98
-3.06
-3.60
-4.54
-5.67
-6.70
-7.35
-7.44
-6.88
-5.70
-4.02
-2.05
-0.03
1.78
3.18
4.05
4.40
4.27
3.78
3.05
2.19
1.34
0.59
0.01
-0.41
-0.74
-1.07
-1.53
-2.17
-3.01
-3.99
-5.02
-5.98
-6.75
-7.24
-7.41
-7.33
-7.16
-7.13
-7.43
-8.14
-9.19
-10.30
-11.17
-11.46
-10.97
-9.65
-7.57
-4.98
-2.14
0.66
3.15
5.14
6.56
7.39
7.70
7.54
6.96
6.08
5.03
3.96
3.04
2.45
2.25
2.38
2.67
2.91
2.91
2.56
1.83
0.76
-0.54
-1.93
-3.33
-4.63
-5.85
-7.02
-8.22
-9.48
-10.76
-11.94
-12.87
-13.41
-13.41
-12.84
-11.74
-10.20
-8.38
-6.45
-4.59
-2.97
-1.70
-0.79
-0.22
0.12
0.33
0.51
0.67
0.81
0.93
1.04
1.26
1.64
2.19
2.80
3.27
3.40
3.13
2.52
1.75
1.01
0.35
-0.30
-1.13
-2.35
-4.09
-6.32
-8.91
-11.61
-14.15
-16.29
-17.79
-18.53
-18.43
-17.52
-15.83
-13.47
-10.60
-7.47
-4.42
-1.75
0.30
1.63
2.31
2.55
2.60
2.68
2.98
3.57
4.51
5.79
7.27
8.78
10.05
10.81
10.91
10.31
9.12
7.57
5.90
4.29
2.85
1.60
0.50
-0.53
-1.52
-2.47
-3.31
-3.94
-4.22
-4.01
-3.27
-2.04
-0.45
1.34
3.19
4.96
6.55
7.87
8.82
9.38
9.61
9.67
9.77
10.09
10.78
11.76
12.92
14.05
14.94
15.43
15.41
14.81
13.64
11.99
9.94
7.59
5.03
2.36
-0.30
-2.79
-4.96
-6.73
-8.07
-9.04
-9.74
-10.27
-10.69
-11.03
-11.34
-11.61
-11.82
-11.90
-11.73
-11.20
-10.27
-9.03
-7.58
-6.07
-4.58
-3.16
-1.85
-0.70
0.21
0.83
1.17
1.34
1.51
1.85
2.45
3.32
4.38
5.48
6.45
7.16
7.53
7.54
7.24
6.72
6.05
5.34
4.60
3.84
3.00
2.10
1.13
0.15
-0.76
-1.51
-1.92
-1.85
-1.16
0.19
2.12
4.38
6.62
8.48
9.70
10.25
10.27
9.96
9.59
9.24
8.99
8.81
8.67
8.51
8.33
8.07
7.68
7.16
6.50
5.78
5.08
4.47
3.98
3.66
3.47
3.36
3.30
3.19
2.99
2.64
2.12
1.43
0.62
-0.22
-1.03
-1.81
-2.64
-3.62
-4.79
-6.10
-7.34
-8.36
-9.04
-9.43
-9.69
-9.95
-10.24
-10.39
-10.18
-9.39
-7.98
-6.04
-3.81
-1.55
0.50
2.16
3.32
3.93
4.06
3.81
3.42
3.16
3.21
3.66
4.40
5.23
5.94
6.40
6.53
6.41
6.09
5.69
5.22
4.68
4.05
3.34
2.60
1.90
1.33
0.91
0.63
0.39
0.06
-0.48
-1.32
-2.46
-3.86
-5.38
-6.87
-8.10
-8.84
-8.93
-8.29
-7.04
-5.37
-3.51
-1.65
0.11
1.72
3.12
4.25
5.10
5.59
5.80
5.83
5.78
5.72
5.69
5.69
5.69
5.73
5.75
5.73
5.64
5.46
5.20
4.90
4.57
4.22
3.79
3.20
2.43
1.58
0.78
0.17
-0.21
-0.50
-0.89
-1.67
-3.08
-5.17
-7.86
-10.91
-14.02
-16.91
-19.45
-21.58
-23.32
-24.78
-25.98
-26.97
-27.70
-28.12
-28.11
-27.57
-26.41
-24.67
-22.48
-20.08
-17.70
-15.47
-13.45
-11.59
-9.85
-8.26
-6.86
-5.73
-4.86
-4.18
-3.60
-3.02
-2.43
-1.83
-1.24
-0.54
0.39
1.69
3.42
5.61
8.27
11.46
15.34
20.15
26.04
32.97
40.58
48.35
55.71
62.23
67.79
72.44
76.35
79.65
82.39
84.58
86.29
87.67
88.90
90.02
90.72
90.39
88.17
83.26
75.25
64.28
51.00
36.44
21.67
7.55
-5.30
-16.40
-25.38
-31.89
-35.71
-36.99
-36.31
-34.57
-32.79
-31.73
-31.66
-32.42
-33.66
-35.02
-36.27
-37.28
-37.77
-37.19
-34.83
-30.09
-22.74
-13.12
-2.05
9.45
20.46
30.32
38.68
45.43
50.51
53.85
55.27
54.55
51.58
46.42
39.34
30.77
21.17
10.96
0.44
-10.05
-20.04
-28.85
-35.75
-40.12
-41.76
-40.95
-38.34
-34.72
-30.70
-26.53
-22.20
-17.59
-12.71
-7.82
-3.40
-0.01
1.98
2.48
1.66
-0.12
-2.55
-5.39
-8.49
-11.73
-14.89
-17.71
-19.86
-21.13
-21.42
-20.81
-19.51
-17.87
-16.43
-15.85
-16.90
-20.17
-25.95
-33.93
-43.32
-52.96
-61.70
-68.66
-73.29
-75.42
-75.01
-72.14
-66.96
-59.82
-51.36
-42.41
-33.88
-26.47
-20.51
-15.95
-12.55
-9.94
-7.89
-6.35
-5.48
-5.51
-6.67
-8.92
-12.02
-15.43
-18.46
-20.46
-21.04
-20.16
-18.08
-15.20
-11.92
-8.50
-5.10
-1.86
1.04
3.34
4.85
5.47
5.28
4.50
3.49
2.54
1.92
1.78
2.13
2.95
4.06
5.25
6.33
7.13
7.56
7.61
7.27
6.58
5.65
4.63
3.72
3.17
3.12
3.52
4.24
4.99
5.46
5.43
4.79
3.58
1.98
0.33
-0.92
-1.33
-0.63
1.10
3.51
6.03
8.17
9.64
10.47
10.85
11.00
11.00
10.72
9.99
8.71
6.97
5.05
3.34
2.14
1.61
1.69
2.16
2.81
3.44
3.91
4.18
4.19
3.90
3.29
2.42
1.40
0.45
-0.29
-0.74
-0.91
-0.84
-0.67
-0.52
-0.49
-0.65
-0.92
-1.14
-1.09
-0.63
0.33
1.68
3.24
4.79
6.11
7.09
7.64
7.77
7.51
6.94
6.18
5.39
4.66
4.07
3.66
3.45
3.47
3.70
4.06
4.45
4.74
4.84
4.72
4.37
3.82
3.07
2.11
0.99
-0.22
-1.38
-2.36
-3.06
-3.46
-3.61
-3.58
-3.43
-3.15
-2.72
-2.06
-1.11
0.13
1.58
3.08
4.48
5.61
6.46
7.03
7.39
7.58
7.59
7.36
6.85
6.09
5.22
4.46
4.00
3.99
4.39
5.01
5.60
5.87
5.65
4.92
3.79
2.41
0.93
-0.61
-2.21
-3.86
-5.54
-7.12
-8.51
-9.70
-10.77
-11.90
-13.13
-14.39
-15.40
-15.79
-15.26
-13.73
-11.33
-8.41
-5.35
-2.48
0.04
2.14
3.81
5.06
5.82
6.06
5.82
5.24
4.51
3.85
3.38
3.15
3.07
3.04
2.98
2.92
2.93
3.07
3.32
3.57
3.67
3.48
2.98
2.21
1.35
0.56
-0.07
-0.56
-1.02
-1.61
-2.45
-3.57
-4.91
-6.35
-7.74
-8.94
-9.79
-10.20
-10.08
-9.42
-8.32
-6.95
-5.55
-4.29
-3.20
-2.22
-1.20
-0.07
1.19
2.47
3.66
4.70
5.59
6.38
7.08
7.61
7.84
7.77
7.45
7.08
6.88
6.90
6.99
6.86
6.22
4.94
3.13
1.01
-1.13
-3.17
-5.12
-7.06
-9.00
-10.79
-12.21
-13.04
-13.30
-13.11
-12.78
-12.50
-12.31
-12.00
-11.26
-9.83
-7.63
-4.79
-1.66
1.37
3.97
6.01
7.46
8.43
8.98
9.20
9.15
8.89
8.52
8.20
8.05
8.13
8.36
8.61
8.69
8.47
7.92
7.15
6.35
5.75
5.45
5.39
5.43
5.34
4.96
4.32
3.54
2.84
2.34
2.03
1.76
1.35
0.66
-0.38
-1.74
-3.35
-5.18
-7.18
-9.21
-11.05
-12.35
-12.81
-12.27
-10.77
-8.58
-6.06
-3.54
-1.25
0.68
2.21
3.32
4.01
4.34
4.37
4.26
4.12
4.03
4.05
4.17
4.40
4.70
5.05
5.37
5.58
5.63
5.51
5.28
5.03
4.89
4.90
5.06
5.30
5.52
5.61
5.49
5.14
4.62
3.98
3.27
2.48
1.58
0.59
-0.48
-1.55
-2.53
-3.33
-3.91
-4.23
-4.23
-3.90
-3.17
-1.99
-0.42
1.43
3.32
5.05
6.39
7.27
7.68
7.73
7.58
7.33
7.02
6.70
6.40
6.19
6.17
6.36
6.72
7.12
7.39
7.42
7.23
6.91
6.54
6.15
5.62
4.81
3.61
2.01
0.20
-1.60
-3.13
-4.27
-5.03
-5.53
-5.96
-6.46
-7.16
-8.05
-9.11
-10.21
-11.22
-11.95
-12.21
-11.88
-10.88
-9.35
-7.46
-5.53
-3.81
-2.52
-1.71
-1.33
-1.25
-1.24
-1.16
-0.84
-0.24
0.62
1.65
2.73
3.72
4.55
5.17
5.56
5.74
5.70
5.45
4.97
4.24
3.26
2.03
0.59
-1.01
-2.63
-4.09
-5.23
-5.93
-6.23
-6.26
-6.26
-6.47
-7.04
-8.01
-9.27
-10.65
-11.92
-12.86
-13.26
-12.96
-11.95
-10.28
-8.08
-5.52
-2.79
-0.10
2.32
4.28
5.64
6.40
6.68
6.70
6.61
6.49
6.32
6.06
5.69
5.24
4.81
4.50
4.35
4.34
4.39
4.38
4.23
3.87
3.26
2.46
1.54
0.59
-0.30
-1.09
-1.81
-2.51
-3.29
-4.24
-5.39
-6.72
-8.18
-9.68
-11.11
-12.32
-13.18
-13.53
-13.25
-12.32
-10.83
-8.95
-6.92
-4.92
-3.14
-1.63
-0.43
0.50
1.20
