1540297143.00
64.000000
-0.00
-0.00
-0.00
-0.00
-0.00
-0.00
-0.00
-0.00
-0.00
-0.00
0.00
0.01
0.01
-0.00
-0.03
-0.05
-0.05
0.00
0.13
0.36
0.66
1.01
1.37
1.72
2.06
2.40
2.79
3.24
3.80
4.42
5.06
5.66
6.20
6.68
7.15
7.68
8.31
9.14
10.09
11.04
11.88
12.56
13.14
13.76
14.66
15.97
17.93
20.35
22.95
25.46
27.69
29.73
31.88
34.58
38.13
42.93
48.61
54.65
60.46
65.69
70.39
75.04
80.33
86.79
94.94
104.29
114.03
123.27
131.45
138.58
145.30
152.93
160.16
169.26
180.83
194.97
210.48
224.44
232.53
230.09
213.75
182.62
139.11
87.06
30.81
-26.41
-83.03
-138.82
-193.89
-247.97
-300.20
-349.09
-393.72
-433.37
-467.46
-495.09
-514.90
-525.14
-524.05
-510.52
-484.30
-446.61
-399.55
-345.78
-288.01
-228.56
-169.30
-111.69
-56.90
-6.01
39.78
79.42
112.18
137.79
156.53
169.16
176.36
179.20
178.71
175.72
170.90
164.77
157.81
150.46
143.15
136.18
129.78
124.02
118.86
114.18
109.86
105.82
102.01
98.45
95.09
91.96
89.07
86.43
84.01
81.82
79.85
78.10
76.58
75.22
73.95
72.71
71.42
69.93
68.14
65.88
62.94
59.62
56.04
52.30
48.45
44.52
40.56
36.61
32.71
28.92
25.33
21.94
18.78
15.84
13.13
10.67
8.43
6.43
4.66
3.11
1.75
0.50
-0.63
-1.68
-2.65
-3.53
-4.31
-4.95
-5.44
-5.79
-6.01
-6.15
-6.20
-6.20
-6.13
-6.00
-5.80
-5.52
-5.16
-4.69
-4.09
-3.34
-2.39
-1.21
0.23
1.92
3.89
6.13
8.59
11.27
14.16
17.25
20.55
24.07
27.84
31.88
36.24
40.96
46.09
51.69
57.79
64.41
71.57
79.25
87.45
96.10
105.13
114.47
123.97
133.42
142.62
151.28
159.11
165.80
171.11
174.81
176.73
176.76
174.90
171.23
165.91
159.19
151.37
142.75
133.64
124.33
115.05
106.00
97.30
89.02
81.21
73.86
66.92
60.32
53.99
47.86
41.86
35.95
30.13
24.38
18.75
13.27
7.97
2.88
-1.96
-6.54
-10.80
-14.67
-18.02
-20.76
-22.80
-24.08
-24.67
-24.69
-24.28
-23.55
-22.61
-21.51
-20.29
-19.02
-17.86
-16.98
-16.61
-16.88
-17.83
-19.33
-21.09
-22.82
-24.30
-25.52
-26.71
-28.22
-30.43
-33.50
-37.25
-41.23
-44.91
-47.93
-50.35
-52.73
-55.94
-60.70
-67.30
-75.28
-83.63
-91.20
-97.33
-102.24
-107.04
-113.36
-122.44
-134.61
-148.94
-163.66
-177.08
-188.43
-198.38
-208.65
-221.13
-236.90
-255.89
-277.31
-300.42
-324.84
-349.88
-373.58
-392.08
-400.48
-395.12
-375.91
-347.12
-315.62
-287.67
-265.70
-247.54
-228.51
-205.03
-177.54
-150.47
-129.52
-117.84
-113.74
-111.36
-104.17
-88.78
-67.11
-45.37
-30.40
-25.71
-29.30
-34.70
-34.69
-25.44
-8.74
8.90
20.13
21.00
13.37
3.90
0.18
6.33
20.52
35.98
44.94
43.14
32.26
18.98
11.18
13.42
24.33
37.53
45.30
43.09
32.16
18.88
10.96
12.98
23.58
36.31
43.31
40.03
27.92
13.66
5.23
7.30
18.49
32.04
39.95
37.53
26.19
12.47
4.31
6.41
17.42
30.77
38.53
35.90
24.05
9.47
0.20
1.20
11.47
24.72
32.95
31.18
20.42
7.01
-1.15
0.89
12.05
25.88
34.31
32.40
21.11
6.90
-2.09
-0.77
9.94
23.69
32.40
30.90
20.00
6.01
-3.13
-2.29
7.79
20.93
29.26
27.79
17.41
4.27
-3.80
-1.83
9.21
22.99
31.48
29.51
17.84
2.78
-7.47
-7.49
2.22
15.64
24.65
23.86
13.76
0.33
-8.46
-7.25
3.40
17.46
26.81
26.10
15.68
1.51
-8.30
-8.27
1.41
14.97
24.49
24.49
15.13
2.10
-6.80
-6.19
3.76
17.30
26.59
26.10
16.00
1.96
-8.11
-8.55
0.66
13.95
23.38
23.29
13.57
-0.18
-9.95
-9.95
-0.08
14.10
24.40
24.89
15.28
1.08
-9.69
-11.12
-2.75
10.11
19.71
20.36
11.73
-0.95
-10.06
-9.98
-0.51
13.00
22.77
23.06
13.58
-0.26
-10.53
-11.33
-2.29
11.30
21.42
22.20
13.22
-0.20
-10.15
-10.73
-1.56
12.01
22.05
22.61
13.16
-1.05
-12.02
-13.65
-5.15
8.38
19.07
20.70
12.44
-0.69
-10.81
-11.73
-2.66
11.29
22.05
23.31
14.19
-0.22
-11.78
-14.01
-5.86
7.80
18.95
21.14
13.16
-0.27
-11.26
-13.43
-5.50
7.92
19.02
21.39
13.69
0.54
-10.31
-12.37
-4.26
9.44
20.92
23.52
15.70
1.86
-10.15
-13.55
-6.60
6.47
17.83
20.69
13.20
-0.36
-12.13
-15.20
-7.68
6.14
18.25
21.68
14.51
1.00
-10.93
-14.33
-7.40
5.57
16.73
19.36
11.77
-1.66
-13.07
-15.82
-8.21
5.43
17.39
20.86
14.02
1.02
-10.54
-13.88
-7.02
6.07
17.65
20.93
13.82
0.29
-11.89
-15.69
-8.84
4.69
17.16
21.42
15.23
2.43
-9.28
-12.84
-6.11
7.07
18.94
22.48
15.41
1.68
-10.94
-15.30
-8.97
4.27
16.68
20.93
14.45
0.92
-11.86
-16.46
-10.11
3.64
16.81
21.83
15.78
2.13
-11.26
-16.72
-11.23
1.75
14.55
19.59
13.91
0.87
-11.90
-17.00
-11.56
1.20
13.81
19.00
13.87
1.63
-10.42
-15.05
-9.38
3.43
15.95
20.82
15.04
1.76
-11.41
-16.87
-11.38
1.96
15.57
21.74
17.12
4.70
-8.06
-13.55
-8.48
4.22
17.08
22.56
17.32
4.24
-9.25
-15.54
-11.05
1.56
15.02
21.57
17.41
4.92
-8.79
-15.96
-12.69
-1.18
11.52
17.77
13.86
2.11
-10.36
-15.97
-11.18
1.31
14.20
19.79
14.56
1.36
-12.27
-18.48
-13.62
-0.39
13.64
20.43
16.07
3.05
-11.23
-18.63
-14.95
-2.38
11.84
19.65
16.81
5.32
-7.79
-14.66
-11.20
0.55
13.66
20.43
16.88
5.15
-7.87
-14.54
-10.98
0.69
13.59
20.03
16.03
3.68
-10.05
-17.38
-14.14
-2.25
11.30
18.66
15.60
4.00
-9.21
-16.14
-12.51
-0.18
13.98
22.04
19.55
8.10
-5.69
-14.01
-12.35
-2.07
10.46
17.57
14.84
3.63
-9.65
-17.27
-14.71
-3.37
10.18
18.05
15.62
4.30
-9.29
-17.14
-14.51
-2.67
11.81
20.92
19.81
9.50
-3.76
-12.20
-10.98
-1.02
11.67
19.43
17.49
6.71
-6.85
-15.45
-14.18
-3.79
9.65
18.30
17.13
6.88
-6.35
-14.70
-13.06
-2.20
11.71
20.66
19.46
8.72
-5.49
-15.18
-15.01
-5.41
7.80
16.76
16.19
6.45
-6.67
-15.33
-14.24
-3.82
10.06
19.44
18.91
8.79
-5.09
-14.81
-14.94
-5.64
7.32
16.19
15.61
5.89
-7.30
-16.16
-15.32
-5.07
8.83
18.45
18.23
8.30
-5.53
-15.23
-15.12
-5.30
8.51
18.14
17.96
8.12
-5.62
-15.21
-15.07
-5.33
8.20
17.54
17.19
7.19
-6.77
-16.64
-16.83
-7.30
6.42
16.35
16.75
7.51
-5.84
-15.36
-15.23
-5.27
8.90
19.20
19.77
10.43
-3.21
-12.98
-13.01
-3.23
10.71
20.61
20.57
10.40
-4.20
-15.03
-16.11
-7.07
6.59
16.76
17.44
8.27
-5.41
-15.58
-16.21
-6.90
7.01
17.47
18.42
9.37
-4.28
-14.44
-14.97
-5.37
8.89
19.56
20.45
10.99
-3.39
-14.43
-15.89
-7.11
6.67
17.34
18.65
9.79
-4.15
-15.22
-17.16
-8.89
4.77
15.97
18.29
10.45
-2.98
-14.27
-16.89
-9.32
4.00
15.29
17.95
10.42
-2.93
-14.28
-16.97
-9.49
3.76
14.93
17.48
9.92
-3.22
-14.12
-16.33
-8.47
4.91
16.06
18.46
10.75
-2.55
-13.68
-16.10
-8.25
5.47
17.23
20.36
13.10
-0.28
-11.99
-15.24
-8.21
4.91
16.34
19.30
11.94
-1.57
-13.47
-16.96
-10.15
2.91
14.58
18.02
11.23
-1.85
-13.61
-17.22
-10.48
2.78
14.92
19.00
12.72
-0.17
-12.02
-15.79
-9.08
4.26
16.55
20.64
14.16
0.91
-11.37
-15.51
-9.12
4.08
16.33
20.48
14.02
0.57
-12.19
-17.09
-11.43
1.36
13.78
18.57
12.92
0.12
-12.43
-17.40
-11.89
0.90
13.50
18.56
13.08
0.25
-12.47
-17.69
-12.37
0.29
12.82
17.86
12.40
-0.35
-12.85
-17.72
-11.93
1.38
14.68
20.40
15.36
2.57
-10.50
-16.26
-11.34
1.39
14.54
20.43
15.66
3.02
-10.11
-16.08
-11.46
0.95
13.74
19.30
14.18
1.23
-12.12
-18.19
-13.52
-0.82
12.49
18.67
14.07
1.30
-12.30
-18.96
-14.84
-2.40
11.14
17.90
14.00
1.81
-11.46
-17.95
-13.77
-1.32
12.13
18.78
14.75
2.48
-10.76
-17.12
-12.76
-0.04
13.71
20.53
16.42
3.65
-10.46
-17.80
-14.06
-1.35
13.11
21.11
18.20
6.24
-7.69
-15.50
-12.77
-1.34
11.82
18.76
15.23
3.16
-10.46
-17.75
-14.48
-2.55
11.06
18.44
15.28
3.43
-10.20
-17.63
-14.41
-2.28
11.87
19.95
17.46
5.99
-7.65
-15.49
-12.98
-1.70
11.62
19.09
16.24
4.68
-8.90
-16.60
-13.93
-2.39
11.33
19.24
16.74
5.23
-8.62
-16.78
-14.48
-3.08
10.79
19.00
16.73
5.24
-8.89
-17.56
-15.85
-4.83
9.05
17.86
16.63
6.24
-7.14
-15.71
-14.50
-4.27
9.03
17.61
16.47
6.24
-7.16
-15.94
-14.97
-4.86
8.38
16.85
15.33
4.48
-9.56
-18.66
-17.43
-6.44
8.17
18.16
18.05
8.16
-5.54
-14.99
-14.73
-4.98
8.47
17.78
17.48
7.74
-5.77
-15.26
-15.22
-5.66
7.90
17.57
17.73
8.28
-5.32
-15.16
-15.52
-6.20
7.31
17.08
17.37
7.91
-5.81
-15.82
-16.36
-7.18
6.28
16.12
16.54
7.25
-6.31
-16.23
-16.70
-7.30
6.59
16.96
17.89
8.92
-4.59
-14.60
-15.08
-5.56
8.52
19.05
19.90
10.52
-3.75
-14.78
-16.39
-7.87
5.69
16.33
17.88
9.44
-4.06
-14.86
-16.74
-8.67
4.62
15.40
17.39
9.44
-3.74
-14.40
-16.21
-8.03
5.38
16.18
18.01
9.81
-3.61
-14.36
-16.07
-7.76
5.71
16.38
17.96
9.39
-4.47
-15.65
-17.79
-9.70
3.78
14.75
16.65
8.25
-5.68
-17.11
-19.34
-10.92
3.48
15.66
18.82
11.32
-2.29
-13.93
-16.70
-8.93
4.86
16.71
19.82
12.49
-0.82
-12.22
-14.99
-7.50
5.85
17.18
19.72
11.77
-2.26
-14.41
-17.78
-10.45
3.27
15.36
18.72
11.30
-2.69
-15.22
-19.08
-12.05
1.87
14.75
19.41
13.49
0.76
-11.23
-15.48
-9.63
2.74
14.27
18.12
11.91
-0.84
-12.81
-17.09
-11.21
1.39
13.33
17.62
11.69
-0.97
-12.87
-16.88
-10.39
3.08
15.89
20.71
14.79
1.48
-11.59
-17.02
-11.82
0.89
13.66
19.08
13.97
1.22
-11.91
-17.98
-13.66
-1.58
11.13
17.06
12.77
0.86
-11.58
-17.14
-12.42
-0.09
12.69
18.42
13.76
1.43
-11.31
-16.95
-12.19
0.19
12.86
18.32
13.20
0.31
-12.96
-19.08
-14.56
-2.06
11.20
17.48
13.22
0.90
-12.30
-18.67
-14.44
-1.99
11.44
18.15
14.33
2.31
-10.72
-17.05
-12.86
-0.56
12.80
19.51
15.74
3.79
-9.39
-16.13
-12.60
-0.76
12.58
19.79
16.79
5.33
-7.97
-15.46
-12.81
-1.52
11.92
19.73
17.42
6.36
-7.06
-15.08
-13.12
-2.50
10.29
17.52
14.69
3.17
-10.49
-18.51
-16.35
-5.42
7.86
15.77
13.73
3.03
-10.02
-17.79
-15.71
-4.92
8.46
16.75
15.29
5.01
-8.10
-16.42
-15.10
-4.86
8.34
16.90
15.84
5.84
-7.17
-15.51
-14.14
-3.76
9.73
18.52
17.56
7.42
-6.02
-14.97
-14.40
-4.81
7.96
16.29
15.08
4.90
-8.38
-17.01
-15.78
-5.12
9.10
18.84
18.64
8.70
-5.20
-14.99
-15.01
-5.31
8.32
17.87
17.66
7.69
-6.32
-16.35
-16.69
-7.33
6.24
16.14
16.69
7.69
-5.52
-15.25
-15.86
-6.95
6.37
16.44
17.45
8.84
-4.43
-14.67
-15.90
-7.37
5.98
16.34
17.60
8.93
-4.73
-15.51
-17.15
-8.78
4.70
15.38
17.06
8.73
-4.78
-15.67
-17.79
-10.07
2.81
13.29
15.20
7.46
-5.33
-15.67
-17.38
-9.29
4.12
15.13
17.45
9.69
-3.67
-14.89
-17.45
-9.72
3.85
15.64
18.97
12.20
-0.44
-11.31
-13.82
-6.41
6.73
17.88
20.48
12.77
-0.98
-13.03
-16.61
-9.76
3.40
15.13
18.40
11.09
-2.81
-15.46
-19.64
-12.95
0.78
13.63
18.27
12.08
-1.27
-13.95
-18.62
-12.60
0.52
13.08
17.85
12.17
-0.51
-12.71
-17.33
-11.80
0.55
12.43
16.82
11.14
-1.28
-13.16
-17.45
-11.42
1.69
14.41
19.51
14.00
1.08
-11.77
-17.10
-11.75
1.15
14.15
19.69
14.65
2.03
-10.74
-16.16
-11.13
1.37
13.90
19.01
13.43
0.16
-13.40
-19.68
-15.25
-2.86
10.24
16.34
11.94
-0.32
-13.18
-18.96
-14.04
-0.98
12.83
19.63
15.64
3.32
-10.09
-16.79
-12.96
-0.95
12.17
18.75
14.95
3.04
-10.00
-16.62
-13.02
-1.36
11.51
17.97
14.14
2.14
-11.18
-18.08
-14.49
-2.38
11.33
18.81
15.81
4.17
-9.23
-16.55
-13.47
-1.77
11.77
19.29
16.45
4.89
-8.77
-16.74
-14.60
-3.82
9.22
16.85
14.61
3.77
-9.38
-17.20
-15.10
-4.22
9.20
17.46
15.87
5.52
-7.34
-14.99
-12.69
-1.57
12.02
20.17
18.12
6.88
-7.15
-16.06
-14.95
-4.73
8.39
16.55
14.77
3.84
-10.10
-19.19
-18.24
-7.80
6.17
15.74
15.56
5.98
-7.26
-16.30
-15.78
-6.02
7.20
16.03
15.17
4.99
-8.65
-17.81
-17.18
-7.12
6.53
15.86
15.52
5.78
-7.59
-16.76
-16.34
-6.42
7.32
17.05
17.20
7.73
-5.85
-15.66
-15.99
-6.69
6.78
16.51
16.79
7.45
-5.97
-15.47
-15.31
-5.39
8.70
18.85
19.14
9.31
-5.10
-15.97
-17.21
-8.22
5.74
16.64
18.27
9.83
-3.69
-14.35
-15.86
-7.26
6.56
17.66
19.70
11.52
-2.13
-13.46
-16.16
-9.08
3.18
13.02
14.28
5.90
-7.40
-17.94
-19.49
-10.88
3.20
14.83
17.48
9.73
-3.89
-15.46
-18.27
-10.64
3.04
14.97
18.39
11.53
-1.44
-12.88
-16.14
-9.45
3.15
14.18
17.07
9.99
-3.06
-14.62
-17.99
-11.08
2.33
14.78
19.36
13.66
1.21
-10.61
-14.86
-9.05
3.40
15.12
19.11
12.84
-0.25
-12.69
-17.36
-11.54
1.39
14.02
19.07
13.63
0.77
-12.18
-17.94
-13.39
-1.35
11.08
16.70
12.31
0.65
-11.31
-16.45
-11.67
0.19
12.09
16.90
11.64
-0.69
-12.84
-17.54
-11.85
1.13
13.93
19.14
13.55
0.19
-13.44
-19.71
-15.12
-2.36
11.30
18.08
14.28
2.27
-10.93
-17.64
-14.02
-2.26
10.65
17.13
13.38
1.64
-11.12
-17.30
-13.16
-1.07
12.00
18.45
14.53
2.59
-10.38
-16.84
-13.11
-1.41
11.34
17.60
13.63
1.65
-11.46
-18.11
-14.41
-2.48
10.73
17.52
13.86
1.76
-11.84
-19.12
-15.84
-3.83
10.14
18.27
16.20
5.47
-7.43
-14.89
-12.55
-1.81
11.04
18.47
16.09
5.12
-8.22
-16.36
-14.73
-4.40
8.51
16.42
14.64
4.17
-8.86
-16.77
-14.78
-3.86
9.79
18.32
16.83
6.19
-7.37
-15.92
-14.40
-3.56
10.45
19.63
18.70
8.17
-5.95
-15.69
-15.61
-5.95
7.53
16.93
16.79
7.24
-6.15
-15.59
-15.67
-6.49
6.38
15.19
14.60
4.75
-8.76
-18.12
-17.95
-8.36
5.08
14.62
14.71
5.42
-7.73
-16.96
-16.71
-6.90
6.94
16.85
17.10
7.51
-6.40
-16.56
-17.06
-7.59
6.38
16.79
17.69
8.69
-4.82
-14.88
-15.62
-6.72
6.49
16.10
16.35
6.94
-6.70
-16.60
-16.87
-7.08
7.33
18.27
19.50
10.36
-3.95
-15.30
-17.32
-9.10
4.39
15.12
16.77
8.34
-5.23
-16.06
-17.84
-9.55
4.00
14.96
17.01
9.03
-4.27
-15.06
-16.98
-8.74
5.01
16.48
19.06
11.32
-2.25
-13.82
-16.71
-9.34
3.97
15.33
18.06
10.48
-2.99
-14.47
-17.18
-9.45
4.31
16.09
18.92
10.96
-3.40
-16.07
-19.90
-12.78
1.10
13.72
17.86
11.27
-2.06
-14.29
-18.30
-11.79
1.41
13.59
17.73
11.52
-1.29
-13.14
-17.06
-10.68
2.43
14.75
19.20
13.20
0.20
-12.35
-17.27
-11.80
0.75
12.94
17.51
11.66
-1.32
-13.97
-19.00
-13.60
-1.04
11.21
15.96
10.41
-2.15
-14.29
-18.79
-12.80
0.50
13.71
19.43
14.52
1.88
-11.20
-17.22
-12.74
-0.45
12.47
18.45
13.98
1.62
-11.44
-17.67
-13.53
-1.54
11.17
17.18
13.05
1.33
-10.93
-16.35
-11.56
0.88
13.92
20.04
15.68
3.24
-10.19
-17.02
-13.37
-1.49
11.60
18.19
14.34
2.18
-11.30
-18.33
-14.85
-2.86
10.78
18.39
15.83
4.88
-7.93
-15.13
-12.62
-1.97
10.53
17.48
14.68
3.55
-9.68
-17.57
-15.69
-5.21
7.71
15.53
13.61
3.04
-10.04
-17.92
-15.85
-4.83
8.93
17.57
16.19
5.61
-8.02
-16.84
-15.82
-5.66
7.66
16.33
15.25
5.00
-8.47
-17.36
-16.44
-6.15
7.65
17.07
16.75
6.97
-6.49
-15.74
-15.37
-5.64
7.66
16.66
15.98
5.96
-7.52
-16.51
-15.69
-5.47
8.26
17.46
16.69
6.25
-7.96
-17.87
-17.89
-8.02
6.05
16.26
16.85
7.63
-5.91
-15.80
-16.19
-6.85
6.81
16.81
17.35
8.08
-5.57
-15.69
-16.42
-7.47
5.91
15.89
16.67
7.87
-5.25
-14.95
-15.44
-6.28
7.30
17.42
18.14
8.88
-5.14
-15.97
-17.41
-8.71
5.09
16.08
18.04
10.01
-3.20
-13.92
-16.06
-8.62
3.83
13.86
15.55
7.86
-4.71
-14.80
-16.45
-8.53
4.47
15.01
16.86
8.75
-4.79
-15.97
-18.22
-10.09
3.94
15.93
19.11
11.73
-1.92
-14.10
-18.04
-11.84
0.47
11.45
14.57
8.00
-4.32
-15.00
-17.59
-10.28
2.92
14.46
17.69
10.70
-2.45
-14.09
-17.36
-10.21
3.37
15.66
19.71
13.34
0.35
-11.74
-16.01
-10.10
2.41
14.23
18.47
12.65
0.07
-12.08
-16.89
-11.69
0.38
12.18
16.71
11.20
-1.24
-13.37
-18.08
-12.50
0.24
12.82
18.02
12.91
0.56
-11.81
-16.99
-11.97
0.32
12.76
18.17
13.40
1.21
-11.37
-17.18
-12.92
-1.20
11.11
16.79
12.44
0.60
-11.87
-17.68
-13.43
-1.59
10.87
16.59
12.14
0.01
-12.74
-18.66
-14.16
-1.74
11.55
18.07
14.01
1.62
-12.15
-19.58
-16.63
-5.15
8.16
15.79
13.70
3.68
-7.78
-13.35
-9.16
2.82
15.89
22.53
18.74
6.42
-7.65
-15.76
-13.60
-2.82
10.07
17.37
14.70
3.49
-9.84
-17.61
-15.38
-4.51
8.57
16.10
13.54
2.25
-11.28
-19.19
-16.81
-5.35
8.72
17.52
16.23
5.86
-7.41
-15.83
-14.62
-4.71
7.91
15.56
13.51
2.68
-10.83
-19.22
-17.57
-6.72
7.19
16.24
15.32
5.10
-8.32
-17.04
-15.91
-5.49
8.22
17.42
16.94
7.24
-5.89
-14.76
-14.21
-4.65
8.23
16.77
15.83
5.79
-7.57
-16.43
-15.52
-5.23
8.65
18.06
17.54
7.30
-6.85
-16.86
-17.12
-7.56
6.11
16.00
16.40
7.18
-6.19
-15.83
-16.00
-6.42
7.49
17.82
18.61
9.43
-4.42
-14.98
-16.21
-7.59
5.73
15.77
16.56
7.61
-5.82
-15.84
-16.50
-7.36
6.25
16.32
16.78
7.00
-7.74
-19.31
-21.32
-12.69
1.64
13.69
16.83
9.71
-3.12
-13.87
-16.00
-8.11
5.33
16.50
18.89
11.08
-2.42
-13.76
-16.36
-8.71
4.74
16.13
18.79
11.01
-2.83
-14.93
-18.48
-11.57
1.64
13.39
16.79
9.89
-3.29
-15.00
-18.34
-11.34
1.92
13.68
17.06
10.02
-3.29
-15.09
-18.43
-11.26
2.45
14.92
19.15
12.84
-0.19
-12.31
-16.44
-10.03
3.29
15.98
20.80
15.03
2.01
-10.82
-16.19
-11.25
0.80
12.63
17.04
11.16
-1.85
-14.63
-19.84
-14.49
-1.60
11.48
17.31
12.52
-0.10
-13.31
-19.59
-15.34
-3.09
10.06
16.52
12.68
1.03
-11.35
-16.94
-12.22
0.23
13.18
19.02
14.17
1.26
-12.42
-19.13
-15.11
-2.74
10.80
17.72
14.11
2.18
-11.04
-17.79
-14.04
-1.90
11.62
18.70
15.22
3.16
-10.51
-17.93
-14.91
-3.37
9.91
17.23
14.43
3.41
-9.16
-15.70
-12.23
-0.61
12.43
19.21
15.63
3.53
-10.28
-17.97
-15.13
-3.46
10.26
18.05
15.31
3.51
-10.69
-19.28
-17.55
-6.74
6.71
15.01
13.55
3.51
-8.88
-16.03
-13.45
-2.35
10.99
18.90
16.73
5.60
-8.17
-16.73
-15.14
-4.33
9.49
18.30
17.02
6.38
-7.50
-16.70
-16.05
-6.14
7.01
15.58
14.41
4.08
-9.43
-18.22
-17.04
-6.31
8.04
17.99
17.96
8.06
-5.95
-16.04
-16.48
-7.21
6.24
15.86
15.98
6.49
-7.10
-16.92
-17.30
-8.10
5.22
14.88
15.25
6.13
-7.12
-16.69
-16.87
-7.25
6.85
17.51
18.70
9.76
-4.19
-15.18
-16.93
-8.56
5.00
15.76
17.43
8.96
-4.76
-15.80
-17.78
-9.58
4.05
15.28
17.71
10.13
-2.80
-13.32
-15.09
-6.81
6.85
18.03
20.25
12.12
-1.77
-13.50
-16.45
-9.09
4.10
15.31
17.90
10.23
-3.36
-15.15
-18.49
-11.63
1.28
12.68
15.95
9.28
-3.35
-14.41
-17.26
-9.93
3.54
15.55
19.16
12.15
-1.60
-14.41
-19.16
-13.39
-0.65
11.49
16.00
10.39
-1.82
-13.28
-17.07
-10.76
2.05
13.93
17.86
11.36
-1.97
-14.51
-19.01
-12.70
0.88
14.05
19.22
13.43
-0.04
-13.51
-19.39
-14.54
-2.01
10.65
16.03
11.04
-1.26
-13.52
-18.39
-12.83
0.15
13.19
18.85
13.90
1.18
-12.02
-18.15
-13.72
-1.35
11.79
18.11
14.01
1.98
-10.90
-17.10
-13.01
-1.03
11.80
17.99
13.89
1.88
-11.08
-17.45
-13.50
-1.42
11.86
18.76
15.30
3.53
-9.71
-16.72
-13.33
-1.48
12.07
19.45
16.40
4.66
-8.98
-16.69
-14.13
-3.01
9.97
17.03
13.83
2.03
-11.62
-19.26
-16.40
-4.46
9.93
18.81
17.36
6.67
-6.95
-15.66
-14.57
-4.63
8.10
15.86
13.90
3.19
-10.10
-18.19
-16.25
-5.29
8.47
17.16
15.76
5.08
-8.71
-17.62
-16.44
-5.71
8.50
18.11
17.64
7.37
-6.83
-16.91
-17.27
-8.07
5.05
14.14
13.78
4.16
-9.02
-17.91
-17.16
-7.06
6.67
16.12
15.84
5.95
-7.86
-17.63
-17.65
-7.66
6.86
17.89
19.38
10.75
-2.87
-13.52
-15.00
-6.51
7.00
17.60
19.13
10.65
-2.95
-13.86
-15.89
-8.10
4.77
14.99
16.39
7.97
-5.50
-16.24
-17.96
-9.47
4.47
15.88
18.14
9.79
-4.52
-16.70
-19.82
-12.13
1.96
14.41
18.26
11.58
-1.44
-13.07
-16.52
-9.89
2.74
13.76
16.53
9.22
-4.07
-15.67
-18.81
-11.54
2.05
14.27
18.09
11.36
-1.93
-14.03
-17.87
-11.19
2.16
14.38
18.41
11.96
-1.11
-13.08
-16.84
-10.05
3.51
16.10
20.51
14.12
0.52
-12.63
-18.01
-12.74
-0.14
12.35
17.37
11.97
-0.70
-13.25
-18.37
-13.13
-0.69
11.50
16.13
10.24
-2.95
-15.87
-21.00
-15.21
-1.51
12.48
19.07
14.72
2.21
-11.15
-17.62
-13.54
-1.47
11.45
17.56
13.27
1.15
-11.58
-17.29
-12.42
0.35
13.68
19.77
14.94
1.78
-12.30
-19.39
-15.60
-3.23
10.47
17.60
14.10
2.16
-11.06
-17.69
-13.63
-1.01
13.01
20.41
16.91
4.48
-9.86
-18.07
-15.65
-4.34
9.17
16.94
14.50
3.31
-10.06
-17.79
-15.34
-4.02
9.68
17.93
16.04
5.22
-8.15
-16.25
-14.38
-3.64
9.60
17.56
15.47
4.40
-9.36
-18.03
-16.75
-6.50
6.65
14.94
13.55
3.32
-9.68
-17.72
-15.90
-5.08
8.63
17.35
16.06
5.51
-8.19
-17.14
-16.21
-5.96
7.60
16.71
16.26
6.73
-6.13
-14.72
-13.98
-4.42
8.30
16.59
15.41
5.25
-8.07
-16.78
-15.68
-5.21
8.78
18.26
17.80
7.59
-6.60
-16.80
-17.38
-8.23
5.16
15.05
15.84
7.31
-5.34
-14.53
-14.70
-5.55
7.76
17.59
18.20
9.13
-4.50
-14.89
-16.10
-7.52
5.83
16.01
17.00
8.12
-5.50
-15.96
-17.16
-8.36
5.30
15.82
17.02
8.02
-6.13
-17.41
-19.45
-11.16
2.62
14.06
16.66
9.14
-3.91
-14.76
-17.01
-9.30
3.90
14.85
17.09
9.17
-4.54
-16.29
-19.41
-12.19
1.18
13.01
16.61
10.08
-2.55
-13.62
-16.46
-9.16
4.19
15.90
19.11
11.81
-1.95
-14.47
-18.77
-12.62
0.17
12.10
16.24
10.30
-2.11
-13.61
-17.32
-10.87
2.17
14.37
18.76
12.85
0.15
-11.86
-16.10
-10.00
3.02
15.41
20.01
14.09
0.98
-11.93
-17.44
-12.67
-0.77
11.12
15.98
11.01
-0.68
-11.97
-15.85
-9.60
3.51
16.13
20.96
15.02
1.46
-12.27
-18.68
-14.55
-2.70
9.59
14.99
10.36
-1.46
-13.36
-18.07
-12.49
0.47
13.56
19.33
14.38
1.42
-12.30
-19.15
-15.41
-3.51
9.53
16.05
12.32
0.67
-11.89
-17.81
-13.45
-1.24
11.70
17.71
13.16
0.54
-12.95
-19.50
-15.28
-2.56
11.48
19.02
15.87
4.05
-9.50
-16.98
-14.12
-2.73
10.45
17.60
14.47
2.86
-10.43
-17.60
-14.28
-2.29
11.57
19.30
16.39
4.42
-9.88
-18.42
-16.50
-5.35
8.49
17.06
15.52
4.93
-8.36
-16.51
-14.69
-4.00
9.26
17.21
15.13
4.17
-9.28
-17.31
-15.22
-4.23
9.21
17.15
14.79
3.35
-10.63
-19.13
-17.12
-5.58
9.06
18.56
17.65
6.98
-7.21
-16.72
-16.05
-5.67
8.34
17.80
17.21
6.93
-7.05
-16.63
-16.40
-6.74
6.43
15.13
14.09
3.81
-9.71
-18.49
-17.28
-6.52
7.71
17.33
16.85
6.59
-7.48
-17.24
-17.00
-6.88
7.36
17.56
17.98
8.49
-5.37
-15.67
-16.62
-7.92
5.17
14.97
15.78
7.23
-5.59
-15.08
-15.60
-6.70
6.54
16.45
17.25
8.42
-4.92
-15.00
-15.86
-6.88
6.82
17.34
18.62
9.85
-4.01
-15.16
-17.43
-9.84
2.95
13.35
15.26
7.52
-5.37
-15.95
-18.09
-10.52
2.38
13.10
15.40
7.97
-4.73
-15.03
-16.56
-8.01
6.08
17.79
20.56
12.89
-0.78
-12.64
-16.11
-9.51
2.92
13.68
16.30
9.14
-3.72
-14.86
-17.80
-10.85
1.92
12.98
15.77
8.46
-4.79
-16.26
-19.21
-11.74
2.04
14.29
18.10
11.41
-1.74
-13.66
-17.41
-10.80
2.29
14.40
18.61
12.68
0.18
-11.51
-15.55
-9.58
2.88
14.48
18.25
11.70
-1.62
-14.19
-18.83
-12.86
0.27
12.95
17.90
12.26
-0.67
-13.42
-18.71
-13.62
-1.36
10.80
15.67
10.43
-1.75
-13.57
-17.85
-11.80
1.31
14.01
18.95
13.27
0.24
-12.54
-17.60
-11.94
1.28
14.49
20.24
15.38
2.94
-9.78
-15.50
-11.13
0.44
12.13
16.86
11.70
-0.44
-12.36
-16.89
-11.06
2.08
15.17
20.66
15.26
1.85
-12.15
-19.06
-15.31
-3.45
9.32
15.43
11.34
-0.47
-12.97
-18.64
-13.93
-1.32
12.06
18.62
14.52
2.06
-11.67
-18.90
-15.60
-3.83
9.49
16.52
13.16
1.42
-11.83
-18.79
-15.35
-3.46
9.99
17.17
13.86
1.87
-11.95
-19.70
-17.01
-5.46
8.27
16.35
14.23
3.39
-9.59
-16.90
-14.04
-2.41
11.34
19.32
16.94
5.62
-8.06
-16.16
-14.03
-3.09
10.12
17.71
15.00
3.28
-10.90
-19.61
-18.09
-7.50
5.79
13.86
11.87
0.85
-12.90
-21.57
-20.22
-9.71
3.72
12.17
10.59
-0.40
-14.70
-24.35
-24.15
-14.53
-1.43
7.25
6.14
-4.38
-18.40
-28.00
-27.80
-18.20
-5.16
3.31
1.72
-9.61
-24.74
-35.45
-35.85
-25.78
-10.66
1.63
5.33
0.04
-9.07
-14.42
-10.55
2.66
19.68
32.58
35.43
27.84
15.13
5.29
4.32
12.79
25.50
34.61
34.30
24.14
9.45
-1.82
-3.69
4.40
17.23
26.90
27.29
17.67
3.09
-8.64
-11.33
-4.08
8.24
17.87
18.68
9.78
-3.92
-14.55
-15.90
-7.04
7.01
18.23
20.09
11.45
-2.89
-14.90
-17.95
-10.63
2.65
14.11
17.27
10.52
-1.85
-12.38
-14.76
-7.55
4.94
15.23
17.04
9.07
-4.20
-15.06
-17.10
-8.88
5.10
17.04
20.25
12.98
-0.56
-12.68
-16.54
-10.17
2.59
14.18
17.82
11.36
-1.42
-13.04
-16.71
-10.27
2.46
13.93
17.30
10.42
-2.82
-14.82
-18.68
-12.17
0.91
13.01
17.21
11.21
-1.42
-13.28
-17.52
-11.80
0.46
11.99
16.04
10.17
-2.18
-13.79
-17.86
-11.93
0.66
12.74
17.41
12.12
0.04
-11.76
-16.44
-11.31
0.58
12.28
16.95
11.78
-0.35
-12.54
-17.87
-13.36
-1.64
10.52
16.17
12.17
1.08
-10.50
-15.70
-11.50
-0.44
10.87
15.61
10.87
-0.71
-12.39
-17.32
-12.52
-0.66
11.52
17.08
12.91
1.50
-10.49
-16.16
-12.30
-1.20
10.60
16.22
12.38
1.29
-10.60
-16.43
-12.85
-1.98
9.81
15.63
12.09
1.25
-10.55
-16.40
-12.76
-1.63
10.74
17.33
14.45
3.84
-8.32
-15.05
-12.53
-2.33
9.48
15.92
13.16
2.71
-9.37
-16.08
-13.52
-3.15
9.00
15.94
13.72
3.75
-8.10
-14.93
-12.75
-2.91
8.81
15.54
13.33
3.47
-8.23
-14.82
-12.28
-1.92
10.35
17.30
14.68
3.71
-9.59
-17.79
-16.42
-6.40
6.35
14.49
13.45
4.06
-8.03
-15.64
-14.26
-4.70
7.42
14.96
13.44
3.70
-8.55
-16.07
-14.29
-4.07
8.83
16.98
15.71
5.77
-7.08
-15.46
-14.60
-5.08
7.49
15.83
15.14
5.87
-6.63
-15.15
-14.84
-5.97
6.23
14.62
14.19
5.11
-7.41
-16.18
-16.07
-7.17
5.34
14.14
14.07
5.16
-7.36
-16.16
-16.01
-6.90
6.06
15.51
16.14
7.67
-4.97
-14.53
-15.65
-7.82
4.26
13.55
14.68
7.14
-4.42
-13.01
-13.34
-4.98
7.36
16.53
17.17
8.73
-4.14
-14.30
-16.22
-9.14
2.67
12.25
14.13
7.26
-4.27
-13.78
-15.80
-9.21
2.07
11.49
13.61
7.32
-3.50
-12.28
-13.65
-6.52
5.14
14.67
16.48
9.34
-2.88
-13.44
-16.50
-10.55
0.93
11.26
14.59
9.11
-1.81
-11.63
-14.50
-8.65
2.57
12.57
15.44
9.43
-2.02
-12.27
-15.39
-9.57
1.74
11.99
15.24
9.66
-1.47
-11.61
-14.86
-9.36
1.66
11.70
14.81
9.07
-2.22
-12.47
-15.66
-9.80
1.82
12.55
16.23
10.80
-0.53
-11.17
-14.98
-9.83
1.18
11.55
15.22
9.98
-1.16
-11.78
-15.77
-10.85
0.16
10.94
15.34
10.93
0.38
-10.09
-14.34
-9.87
0.71
11.19
15.40
10.84
0.09
-10.57
-14.90
-10.28
0.72
11.79
16.56
12.20
1.16
-10.34
-15.82
-12.34
-2.13
8.70
13.72
9.94
-0.43
-11.31
-16.30
-12.41
-1.83
9.33
14.65
11.13
0.91
-9.89
-14.87
-10.95
-0.28
11.10
16.62
13.06
2.37
-9.44
-15.71
-13.03
-3.06
8.27
14.36
11.65
1.77
-9.45
-15.42
-12.63
-2.72
8.43
14.27
11.32
1.27
-10.04
-16.03
-13.22
-3.24
8.19
14.49
12.11
2.51
-8.66
-14.85
-12.38
-2.55
9.07
15.87
13.98
4.58
-6.81
-13.54
-11.68
-2.27
9.14
15.89
13.96
4.37
-7.42
-14.71
-13.37
-4.29
7.22
14.44
13.20
4.20
-7.33
-14.72
-13.68
-4.83
6.69
14.19
13.31
4.62
-6.76
-14.13
-13.12
-4.22
7.46
15.19
14.50
5.77
-6.04
-14.22
-14.16
-6.03
5.40
13.48
13.58
5.73
-5.39
-13.14
-12.90
-4.71
6.66
14.48
14.01
5.28
-6.86
-15.61
-16.08
-8.14
3.47
12.00
12.58
5.05
-5.99
-13.88
-13.80
-5.61
6.05
14.42
14.56
6.31
-5.62
-14.33
-14.72
-6.53
5.57
14.59
15.34
7.40
-4.68
-14.02
-15.41
-8.29
2.98
11.71
12.79
5.64
-5.41
-13.73
-14.22
-6.30
5.66
14.87
16.04
8.48
-3.45
-12.87
-14.34
-7.02
4.80
14.21
15.74
8.42
-3.56
-13.38
-15.48
-8.80
2.68
12.25
14.38
7.93
-3.23
-12.41
-14.09
-7.05
4.82
14.80
17.16
10.53
-1.31
-11.62
-14.62
-8.86
2.04
11.40
13.58
7.21
-4.00
-13.41
-15.42
-8.65
3.09
13.08
15.55
8.97
-3.02
-13.65
-16.95
-11.11
0.42
11.00
14.54
9.13
-1.90
-11.98
-15.09
-9.35
1.89
11.96
14.89
8.89
-2.59
-12.82
-15.73
-9.51
2.43
13.31
16.98
11.32
-0.42
-11.59
-15.94
-11.16
-0.22
10.43
14.56
9.89
-0.63
-10.58
-13.84
-8.19
3.29
14.01
17.70
12.04
0.05
-11.68
-16.73
-12.56
-1.81
9.14
14.00
10.10
-0.08
-10.40
-14.70
-10.33
0.25
10.92
15.41
10.89
-0.25
-11.91
-17.61
-14.24
-3.85
7.63
13.73
11.20
1.83
-8.58
-13.64
-10.13
0.11
11.15
16.50
12.89
2.32
-9.06
-14.59
-10.99
-0.31
11.15
16.64
12.80
1.74
-10.31
-16.56
-13.55
-3.26
8.20
14.08
10.91
0.56
-10.83
-16.46
-12.76
-1.62
10.80
17.45
14.59
3.96
-8.25
-14.97
-12.41
-2.17
9.55
15.71
12.52
1.68
-10.61
-17.17
-14.10
-3.00
9.85
17.12
14.57
3.60
-9.58
-17.48
-15.57
-5.00
8.16
16.37
15.01
5.03
-7.59
-15.42
-13.85
-3.82
8.73
16.38
14.54
4.17
-8.77
-16.81
-15.24
-4.87
8.37
16.91
15.83
5.79
-7.37
-16.05
-15.21
-5.41
7.63
16.24
15.36
5.50
-7.61
-16.37
-15.68
-5.99
7.01
15.71
15.00
5.17
-8.18
-17.40
-17.23
-7.71
5.72
15.46
16.00
7.18
-5.76
-15.29
-15.90
-7.36
5.22
14.33
14.57
5.78
-6.80
-15.69
-15.43
-5.96
7.44
17.13
17.50
8.27
-5.38
-15.74
-17.07
-8.75
4.23
14.32
15.71
7.75
-4.72
-14.22
-14.99
-6.43
6.55
16.41
17.29
8.54
-4.98
-15.64
-17.46
-9.48
3.72
14.60
17.13
10.06
-2.26
-12.59
-14.96
-8.11
3.73
13.41
15.01
7.38
-5.13
-15.19
-16.78
-8.65
4.77
16.00
18.72
11.42
-1.73
-13.30
-16.81
-10.55
1.61
12.41
15.49
9.09
-2.92
-13.29
-15.68
-8.41
4.52
15.70
18.66
11.57
-1.59
-13.44
-17.45
-11.61
0.29
11.06
14.25
7.93
-4.16
-14.83
-17.59
-10.51
2.60
14.35
18.03
11.50
-1.46
-13.42
-17.56
-11.74
0.43
11.54
15.00
8.77
-3.41
-14.34
-17.55
-11.08
1.36
12.65
16.33
10.33
-1.84
-13.11
-16.96
-11.09
1.25
13.09
17.72
12.59
0.72
-10.96
-15.70
-10.83
0.70
11.97
16.20
10.75
-1.31
-12.97
-17.34
-11.73
0.81
13.13
18.23
13.15
0.85
-11.60
-17.05
-12.39
-0.36
12.09
17.75
13.41
1.66
-10.59
-16.18
-11.84
-0.12
12.08
17.46
12.63
0.02
-13.46
-20.33
-16.93
-5.34
7.65
14.71
11.96
1.38
-10.46
-16.28
-12.27
-0.37
12.88
20.06
17.17
5.99
-7.08
-14.61
-12.40
-2.00
10.36
17.32
14.79
4.22
-8.15
-14.97
-12.15
-1.29
11.26
17.98
14.68
2.97
-10.63
-18.50
-16.28
-5.38
7.71
15.41
13.29
2.70
-10.08
-17.46
-14.94
-3.75
9.86
18.23
16.60
5.94
-7.68
-16.58
-15.89
-6.39
6.12
14.06
12.71
2.93
-9.43
-16.93
-14.95
-4.42
8.66
16.75
15.14
4.63
-8.81
-17.54
-16.64
-6.63
6.71
15.77
15.36
5.80
-7.37
-16.58
-16.57
-7.46
5.38
14.39
14.27
5.03
-8.02
-17.33
-17.44
-8.20
5.28
15.45
16.78
8.83
-3.43
-12.64
-13.26
-4.83
7.75
17.07
17.55
8.67
-4.62
-14.89
-16.45
-8.57
3.97
13.86
15.40
7.86
-4.22
-13.62
-14.68
-6.65
5.89
15.69
16.89
8.57
-4.70
-15.52
-17.84
-10.51
2.14
12.63
14.91
7.78
-4.38
-14.17
-15.52
-7.27
6.04
16.84
18.89
10.84
-2.94
-14.77
-18.21
-11.59
0.98
12.12
15.31
8.82
-3.35
-13.94
-16.53
-9.40
3.44
14.60
17.56
10.53
-2.51
-14.03
-17.37
-10.56
2.54
14.39
18.22
11.87
-0.96
-12.79
-16.82
-10.74
1.88
13.69
17.83
11.89
-0.73
-12.84
-17.63
-12.52
-0.72
10.81
15.38
10.47
-0.82
-11.60
-15.26
-9.37
2.80
14.22
18.07
11.80
-1.26
-13.85
-18.93
-13.79
-1.52
10.64
15.64
10.75
-0.97
-12.47
-16.82
-11.33
0.88
12.74
17.32
11.82
-0.69
-13.08
-18.29
-13.34
-1.11
11.38
16.96
12.48
0.70
-11.44
-16.79
-12.07
0.11
12.84
18.83
14.69
2.84
-9.88
-16.08
-12.23
-0.57
12.03
18.18
14.18
2.21
-10.84
-17.51
-14.02
-2.43
10.43
17.10
13.72
2.32
-10.46
-17.24
-14.08
-2.89
9.78
16.61
13.61
2.54
-10.13
-16.95
-13.87
-2.54
10.59
17.93
15.28
4.25
-8.69
-15.96
-13.31
-2.32
10.45
17.33
14.06
2.16
-11.84
-20.12
-18.21
-7.43
5.85
14.00
12.46
2.43
-9.87
-17.00
-14.54
-3.65
9.52
17.50
15.87
5.78
-6.78
-14.44
-12.72
-2.71
9.60
16.88
14.60
3.78
-9.58
-17.96
-16.66
-6.52
6.63
15.15
14.27
4.75
-7.59
-15.25
-13.46
-2.99
10.25
18.63
17.28
6.77
-7.07
-16.53
-16.53
-7.38
5.31
14.03
13.68
4.60
-7.62
-15.52
-14.10
-3.77
9.71
18.67
17.88
7.69
-6.21
-16.01
-16.28
-7.12
5.97
15.28
15.31
6.02
-7.20
-16.64
-16.79
-7.64
5.49
14.81
14.88
5.64
-7.49
-16.81
-16.86
-7.53
5.73
15.20
15.39
6.09
-7.36
-17.22
-17.84
-8.85
4.58
14.83
16.11
7.94
-4.60
-13.89
-14.19
-4.99
8.63
18.87
19.77
10.69
-3.43
-14.81
-17.29
-9.96
2.52
12.58
14.28
6.69
-5.51
-14.80
-15.34
-6.42
7.10
17.46
18.64
9.84
-4.01
-15.08
-17.24
-9.42
3.54
13.98
15.77
7.85
-5.14
-15.58
-17.28
-9.12
4.32
15.44
17.86
10.28
-2.89
-14.02
-16.75
-9.62
3.10
13.80
16.08
8.44
-4.82
-16.14
-18.98
-11.73
1.42
12.83
15.97
9.05
-3.83
-15.03
-17.95
-10.72
2.65
14.57
18.30
11.82
-0.98
-12.67
-16.59
-10.60
1.59
12.74
16.30
10.26
-1.73
-12.44
-15.29
-8.29
4.77
16.51
20.09
13.28
-0.16
-12.68
-17.25
-11.48
1.10
12.92
16.98
10.88
-1.81
-13.59
-17.46
-10.99
2.21
14.58
19.02
12.84
-0.58
-13.71
-19.32
-14.44
-2.12
10.42
15.91
11.25
-0.71
-12.93
-18.22
-13.40
-1.21
11.34
17.02
12.69
1.03
-10.93
-15.94
-10.85
1.51
13.98
19.18
13.87
0.87
-12.52
-18.78
-14.55
-2.45
10.32
16.34
12.21
0.47
-11.90
-17.65
-13.37
-1.56
10.95
16.93
12.96
1.39
-10.96
-16.81
-12.64
-0.80
11.86
17.92
13.77
1.68
-11.46
-18.16
-14.68
-3.14
9.66
16.31
13.06
2.00
-10.24
-16.38
-12.72
-1.28
11.29
17.68
14.06
2.44
-10.50
-17.28
-13.88
-2.28
10.85
17.79
14.47
2.74
-10.63
-17.97
-15.09
-3.76
9.32
16.51
13.72
2.71
-9.92
-16.58
-13.17
-1.35
12.25
19.98
17.47
6.23
-7.23
-15.19
-13.11
-2.36
10.69
18.24
15.73
4.49
-9.04
-17.09
-15.06
-4.29
8.78
16.32
13.70
2.21
-11.71
-20.17
-18.43
-7.50
6.27
15.02
13.78
3.40
-9.97
-18.45
-17.00
-6.38
7.29
16.09
14.99
4.76
-8.40
-16.57
-14.71
-3.69
10.22
18.96
17.42
6.36
-7.98
-17.51
-16.97
-6.89
6.72
15.96
15.58
6.03
-6.86
-15.36
-14.32
-4.19
9.22
18.18
17.45
7.35
-6.41
-16.11
-16.35
-7.26
5.75
15.03
15.21
6.26
-6.43
-15.26
-14.86
-5.29
8.00
17.24
16.96
7.15
-6.63
-16.54
-16.98
-7.76
5.64
15.46
16.07
7.25
-5.74
-15.20
-15.53
-6.47
6.69
16.24
16.48
7.11
-6.51
-16.53
-17.12
-8.00
5.50
15.42
15.94
6.79
-6.64
-16.48
-16.98
-7.86
5.52
15.32
15.83
6.71
-6.78
-16.85
-17.71
-8.81
4.77
15.34
16.92
8.78
-4.23
-14.49
-15.98
-7.91
4.95
14.98
16.25
7.99
-4.94
-14.89
-15.89
-7.24
6.15
16.50
17.72
8.96
-4.85
-15.89
-17.87
-9.68
3.92
15.12
17.45
9.63
-3.79
-15.05
-17.67
-10.27
2.68
13.48
15.75
8.16
-4.77
-15.35
-17.18
-9.01
4.64
15.96
18.50
10.81
-2.64
-14.07
-16.95
-9.67
3.40
14.62
17.36
10.00
-3.18
-14.54
-17.48
-10.30
2.80
14.22
17.32
10.34
-2.67
-14.18
-17.53
-10.92
1.67
12.72
15.63
8.55
-4.46
-15.78
-18.68
-11.24
2.54
14.97
19.15
12.95
0.15
-11.77
-16.03
-10.36
1.63
12.76
16.45
10.57
-1.31
-12.02
-15.03
-8.27
4.52
16.04
19.50
12.72
-0.60
-12.95
-17.38
-11.54
1.04
12.86
17.00
11.04
-1.49
-13.24
-17.35
-11.35
1.24
13.10
17.29
11.24
-1.72
-14.23
-19.28
-14.07
-1.80
10.39
15.37
10.35
-1.53
-13.09
-17.31
-11.44
1.30
13.57
18.17
12.29
-0.92
-14.06
-19.76
-14.98
-2.56
10.24
16.18
11.99
0.43
-11.48
-16.58
-11.66
0.58
13.17
18.85
14.30
2.13
-10.71
-16.90
-12.94
-1.21
11.52
17.89
14.24
2.66
-10.21
-17.03
-14.02
-3.09
9.18
15.51
12.11
0.99
-11.22
-17.16
-13.05
-0.96
12.32
19.26
15.93
4.26
-9.03
-16.41
-13.82
-3.01
9.55
16.44
13.57
2.54
-10.26
-17.45
-14.90
-4.18
8.36
15.31
12.57
1.80
-10.53
-16.96
-13.37
-1.52
11.93
19.32
16.44
4.95
-8.56
-16.41
-14.25
-3.59
9.13
16.32
13.63
2.49
-10.73
-18.42
-16.15
-5.26
7.94
15.82
13.95
3.62
-8.83
-15.84
-12.93
-1.44
12.23
20.39
18.45
7.59
-5.95
-14.47
-13.24
-3.22
9.62
17.65
16.14
5.83
-7.37
-15.92
-15.01
-5.36
7.17
15.06
13.52
3.39
-9.38
-17.16
-15.20
-4.43
8.98
17.25
15.54
4.72
-9.00
-17.79
-16.61
-6.18
7.50
16.60
15.95
5.96
-7.63
-17.12
-17.24
-8.17
4.61
13.55
13.45
4.50
-7.83
-16.04
-15.00
-5.08
8.03
16.63
15.54
5.19
-8.50
-17.65
-16.93
-6.78
6.89
16.10
15.42
5.21
-8.60
-17.98
-17.43
-7.14
7.05
17.06
17.21
7.57
-6.19
-16.02
-16.22
-6.76
6.75
16.35
16.39
6.84
-6.71
-16.39
-16.58
-7.29
6.02
15.51
15.62
6.29
-6.99
-16.39
-16.33
-6.63
7.23
17.30
17.73
8.24
-5.77
-16.27
-17.21
-8.14
5.64
16.08
17.17
8.36
-5.11
-15.32
-16.33
-7.65
5.54
15.45
16.21
7.39
-5.85
-15.70
-16.33
-7.21
6.43
16.70
17.60
8.53
-5.33
-16.01
-17.33
-8.56
5.24
16.05
17.68
9.24
-4.31
-15.13
-17.05
-9.12
3.89
14.36
16.18
8.33
-4.58
-15.01
-16.87
-9.04
3.97
14.58
16.63
8.90
-4.10
-14.74
-16.72
-8.72
4.71
15.87
18.34
10.78
-2.31
-13.20
-15.47
-7.78
5.44
16.45
18.87
11.21
-2.16
-13.66
-16.86
-10.14
2.33
13.14
15.81
8.62
-4.43
-15.94
-19.33
-12.66
0.26
11.99
15.86
9.74
-2.63
-13.89
-17.28
-10.72
2.02
13.44
16.77
9.90
-3.28
-15.16
-18.81
-12.11
1.09
13.11
16.92
10.32
-2.79
-14.68
-18.23
-11.11
2.77
15.52
19.86
13.31
-0.32
-13.16
-17.84
-11.77
1.36
13.82
18.36
12.37
-0.62
-13.08
-17.91
-12.49
-0.14
11.92
16.67
11.45
-0.59
-12.37
-16.97
-11.66
0.54
12.53
17.35
12.13
-0.09
-12.17
-17.04
-11.73
0.70
13.13
18.36
13.45
1.39
-10.66
-15.53
-10.40
1.75
13.65
18.17
12.34
-0.74
-13.71
-19.23
-14.12
-1.31
11.86
17.81
13.11
0.50
-12.78
-19.11
-14.88
-2.65
10.37
16.60
12.45
0.39
-12.46
-18.56
-14.37
-2.40
10.36
16.50
12.53
0.96
-11.26
-16.82
-12.31
-0.21
12.55
18.55
14.29
2.21
-10.71
-16.99
-12.94
-0.89
12.08
18.41
14.26
1.94
-11.48
-18.24
-14.37
-1.98
11.99
19.76
17.22
6.14
-6.87
-14.25
-11.90
-1.43
10.76
17.27
13.98
2.51
-10.72
-18.18
-15.59
-4.43
8.85
16.53
14.15
3.12
-10.08
-17.65
-15.07
-3.78
9.64
17.32
14.74
3.34
-10.30
-18.28
-16.09
-5.16
8.00
15.64
13.25
2.25
-10.86
-18.38
-15.82
-4.54
9.07
17.15
15.17
4.39
-8.80
-16.58
-14.33
-3.28
10.02
17.77
15.28
3.84
-9.97
-18.20
-16.03
-4.71
9.34
18.13
16.75
6.15
-7.51
-16.45
-15.74
-6.05
6.77
15.14
14.18
4.49
-8.13
-16.11
-14.50
-3.90
9.79
18.75
17.81
7.48
-6.28
-15.49
-14.78
-4.52
9.32
18.64
17.91
7.35
-7.13
-17.39
-17.76
-8.27
5.37
15.11
15.18
5.52
-8.24
-18.10
-18.28
-8.60
5.35
15.46
15.92
6.51
-7.21
-17.20
-17.59
-8.22
5.39
15.29
15.81
6.77
-6.33
-15.66
-15.73
-6.52
6.52
15.73
15.62
6.25
-6.91
-16.15
-16.04
-6.51
6.99
16.64
16.80
7.31
-6.44
-16.50
-17.04
-7.68
6.21
16.71
17.91
9.25
-4.08
-14.25
-15.33
-6.73
6.56
16.82
18.08
9.53
-4.00
-14.89
-17.07
-9.45
3.42
14.00
16.13
8.56
-4.24
-14.79
-16.83
-9.08
3.98
14.72
16.82
9.04
-4.06
-14.74
-16.65
-8.62
4.63
15.24
16.88
8.36
-5.51
-16.77
-18.99
-10.92
2.74
14.11
16.59
8.80
-4.65
-15.97
-18.52
-10.74
2.98
14.77
17.99
10.97
-2.02
-13.21
-15.93
-8.46
4.84
16.28
19.16
11.76
-1.62
-13.27
-16.51
-9.63
3.24
14.48
17.48
10.41
-2.67
-14.23
-17.66
-10.99
1.93
13.62
17.35
11.00
-1.71
-13.35
-17.10
-10.71
2.13
13.91
17.69
11.17
-1.97
-14.14
-18.31
-12.18
0.51
12.15
15.81
9.16
-4.02
-16.13
-20.28
-14.16
-1.35
10.84
15.53
10.41
-1.17
-12.19
-16.02
-10.34
1.63
12.87
16.84
11.20
-0.76
-11.99
-15.78
-9.69
2.89
14.84
19.26
13.64
1.24
-10.76
-15.45
-10.23
1.73
13.36
17.89
12.67
0.79
-10.84
-15.51
-10.58
1.02
12.50
17.10
12.11
0.35
-11.48
-16.61
-12.16
-0.80
10.78
15.80
11.26
-0.27
-12.19
-17.69
-13.70
-2.68
8.92
14.38
10.64
0.05
-11.02
-16.02
-11.93
-1.07
10.31
15.57
11.69
0.92
-10.54
-16.06
-12.50
-1.92
9.49
15.16
11.88
1.64
-9.49
-15.00
-11.62
-1.35
9.92
15.66
12.64
2.68
-8.36
-14.07
-11.22
-1.53
9.19
14.60
11.33
1.16
-10.10
-15.94
-12.88
-2.62
8.99
15.14
12.25
1.92
-9.87
-16.22
-13.30
-2.64
9.63
16.55
14.16
3.89
-8.23
-15.19
-13.01
-3.08
8.79
15.69
13.59
3.70
-8.30
-15.57
-14.02
-4.59
7.30
14.83
13.81
4.95
-6.49
-13.75
-12.52
-3.46
8.10
15.29
13.68
3.99
-8.30
-16.13
-14.89
-5.34
6.96
14.72
13.39
3.63
-8.87
-16.76
-15.42
-5.52
7.19
15.34
14.11
4.18
-8.65
-16.90
-15.61
-5.38
8.04
16.84
16.00
6.02
-7.26
-15.98
-14.87
-4.34
9.59
19.06
18.61
8.62
-5.05
-14.40
-13.94
-4.07
9.49
18.72
18.23
8.25
-5.46
-14.95
-14.89
-5.48
7.47
16.11
14.99
4.41
-9.74
-19.47
-19.20
-9.09
5.12
15.23
15.55
6.00
-7.85
-17.96
-18.50
-9.13
4.64
14.96
15.95
7.27
-5.77
-15.33
-15.55
-6.20
7.43
17.33
17.70
8.17
-5.85
-16.30
-17.27
-8.24
5.45
15.90
16.99
8.13
-5.52
-16.11
-17.54
-9.09
4.33
14.78
16.21
7.74
-5.73
-16.34
-17.90
-9.41
4.18
15.05
16.89
8.75
-4.52
-15.06
-16.56
-8.13
5.41
16.12
17.78
9.30
-4.47
-15.67
-18.00
-10.24
2.97
13.99
16.41
8.95
-3.92
-14.61
-16.74
-8.93
4.48
15.76
18.52
11.18
-1.90
-13.07
-15.74
-8.26
4.97
16.26
18.87
11.16
-2.59
-14.55
-17.93
-11.02
2.01
13.42
16.56
9.65
-3.13
-14.15
-16.87
-9.55
3.66
15.22
18.43
11.46
-1.71
-13.62
-17.57
-11.42
1.17
12.78
16.69
10.59
-1.98
-13.74
-17.83
-11.82
0.78
12.60
16.66
10.47
-2.50
-14.80
-19.36
-13.59
-0.94
11.20
15.79
10.16
-2.31
-14.31
-18.86
-13.27
-0.69
11.75
16.99
12.18
0.25
-11.83
-17.05
-12.32
-0.36
11.95
17.41
12.82
0.74
-11.82
-17.53
-12.94
-0.58
12.43
18.61
14.44
2.43
-10.30
-16.19
-11.68
0.65
13.76
20.09
16.05
4.06
-8.87
-15.27
-11.63
-0.25
11.94
17.53
12.93
0.55
-12.59
-18.97
-14.82
-2.46
11.07
18.00
14.43
2.58
-10.56
-17.24
-13.48
-1.39
11.98
18.89
15.34
3.41
-9.95
-17.00
-13.71
-2.17
10.73
17.26
13.41
1.22
-12.42
-19.75
-16.70
-5.13
8.24
15.81
13.37
2.57
-10.14
-17.38
-14.97
-4.37
8.23
15.46
13.11
2.53
-10.15
-17.49
-15.03
-3.97
9.47
17.58
15.67
4.81
-8.73
-17.08
-15.34
-4.51
9.03
17.39
15.71
5.01
-8.32
-16.39
-14.44
-3.57
9.94
18.29
16.63
5.96
-7.55
-16.24
-15.24
-5.26
7.81
16.34
15.34
5.36
-7.89
-16.81
-16.25
-6.56
6.60
15.47
14.83
4.97
-8.36
-17.26
-16.36
-5.93
8.11
17.76
17.51
7.48
-6.48
-16.35
-16.52
-7.09
6.45
16.22
16.66
7.67
-5.34
-14.70
-14.96
-5.93
7.02
16.24
16.14
6.53
-7.22
-17.29
-17.87
-8.64
5.13
15.43
16.34
7.40
-6.17
-16.37
-17.23
-8.17
5.48
15.86
16.93
8.03
-5.68
-16.36
-17.94
-9.66
3.68
14.34
16.24
8.43
-4.41
-14.68
-16.32
-8.14
5.23
16.20
18.41
10.53
-2.95
-14.36
-17.17
-9.86
3.22
14.24
16.66
8.91
-4.63
-16.11
-18.87
-11.27
2.23
13.90
17.05
10.05
-2.80
-13.78
-16.35
-8.99
4.09
15.23
17.92
10.53
-2.71
-14.17
-17.29
-10.25
2.88
14.54
17.95
11.13
-1.97
-13.80
-17.46
-10.79
2.41
14.40
18.25
11.61
-1.70
-13.96
-18.05
-11.52
1.77
14.15
18.44
12.28
-0.59
-12.48
-16.35
-10.00
2.75
14.33
17.81
11.02
-2.18
-14.30
-18.47
-12.40
0.35
12.43
17.02
11.65
-0.36
-11.91
-16.25
-10.79
1.38
13.19
17.74
12.29
-0.16
-12.48
-17.53
-12.35
0.09
12.52
17.65
12.40
-0.20
-12.80
-17.94
-12.43
0.69
13.98
19.92
15.15
2.49
-10.71
-16.97
-12.99
-1.41
10.69
15.97
11.10
-1.30
-14.22
-20.23
-15.84
-3.46
9.96
16.84
13.38
1.77
-11.12
-17.70
-13.97
-1.96
11.39
18.36
14.86
2.89
-10.60
-17.79
-14.44
-2.45
11.23
18.65
15.56
3.69
-10.10
-17.90
-15.35
-4.15
9.01
16.35
13.53
2.27
-10.73
-17.70
-14.39
-2.54
11.12
18.86
16.32
5.09
-8.20
-15.90
-13.66
-2.98
9.77
16.96
14.20
2.90
-10.62
-18.74
-16.84
-5.99
7.63
16.28
15.04
4.69
-8.82
-17.79
-17.13
-7.33
5.73
14.27
13.14
2.81
-10.76
-19.57
-18.20
-7.09
7.69
17.98
18.18
8.55
-4.96
-14.24
-13.72
-3.73
9.93
19.23
18.73
8.68
-5.05
-14.59
-14.60
-5.30
7.64
16.45
15.78
5.81
-7.89
-17.56
-17.73
-8.28
5.44
15.63
16.54
7.72
-5.83
-16.44
-18.14
-10.13
2.80
13.07
14.75
6.95
-5.60
-15.27
-16.08
-7.22
6.42
17.15
18.90
10.85
-2.11
-12.23
-13.42
-4.90
8.41
18.72
19.86
10.89
-3.30
-14.88
-17.60
-10.23
2.65
13.37
15.57
7.82
-5.50
-16.81
-19.64
-12.36
0.92
12.60
16.01
9.29
-3.57
-15.01
-18.18
-11.08
2.24
14.10
17.60
10.75
-2.31
-13.77
-16.65
-9.05
4.77
16.83
20.12
12.66
-1.38
-14.00
-18.25
-12.07
0.56
11.98
15.33
8.51
-4.62
-16.52
-20.35
-13.86
-0.67
11.82
16.67
11.35
-0.78
-12.50
-16.90
-11.29
1.20
13.32
17.95
12.24
-0.77
-13.74
-19.31
-14.28
-1.52
11.63
17.73
13.47
1.58
-10.72
-15.98
-10.85
1.87
15.00
21.06
16.68
4.54
-8.18
-14.08
-9.90
1.69
13.55
18.31
12.69
-0.47
-13.90
-20.08
-15.56
-2.98
10.44
17.01
13.06
0.95
-12.30
-19.03
-15.37
-3.41
9.90
16.89
13.56
1.85
-11.40
-18.45
-15.08
-3.16
10.48
18.00
15.11
3.53
-9.94
-17.42
-14.52
-2.92
10.76
18.65
16.28
5.14
-8.21
-16.06
-13.94
-3.18
9.82
17.44
15.13
4.22
-9.01
-16.90
-14.85
-4.07
9.21
17.16
15.11
4.12
-9.49
-17.83
-15.99
-4.87
9.16
18.10
16.86
6.23
-7.58
-16.54
-15.49
-5.27
7.98
16.24
14.42
3.28
-10.99
-20.36
-19.69
-9.51
4.24
13.76
13.78
4.62
-8.10
-16.79
-16.19
-6.38
7.26
17.10
17.66
8.74
-4.47
-14.33
-15.06
-6.18
7.19
17.23
18.02
8.94
-4.81
-15.26
-16.23
-7.04
7.02
17.80
19.03
9.90
-4.38
-15.60
-17.40
-8.98
4.54
15.15
16.51
7.74
-6.18
-17.36
-19.55
-11.68
1.56
12.54
15.09
8.01
-4.24
-14.27
-16.02
-8.26
4.74
15.52
17.87
10.32
-2.98
-14.52
-17.75
-10.76
2.49
14.47
18.32
11.83
-1.29
-13.57
-18.00
-12.14
0.42
12.22
16.33
10.28
-2.28
-13.82
-17.36
-10.55
2.89
15.36
19.75
13.62
0.52
-11.95
-16.70
-11.13
1.44
13.67
18.46
13.04
0.57
-11.75
-16.86
-11.83
0.35
12.58
17.60
12.42
-0.07
-12.65
-17.94
-12.72
0.16
13.30
19.19
14.41
1.67
-11.72
-18.14
-13.98
-1.88
11.07
17.31
13.24
1.30
-11.48
-17.69
-13.81
-2.23
10.15
15.94
11.53
-0.78
-14.11
-20.91
-17.36
-5.46
8.14
15.81
13.46
2.80
-9.74
-16.70
-13.86
-2.69
10.42
17.96
15.53
4.48
-8.88
-16.95
-15.08
-4.42
8.80
16.90
15.21
4.70
-8.38
-16.23
-14.03
-2.79
11.22
19.98
18.48
7.56
-6.62
-16.01
-15.50
-5.75
7.20
15.58
14.29
4.02
-9.25
-17.76
-16.47
-6.01
7.62
16.65
15.92
5.90
-7.47
-16.40
-15.65
-5.57
8.08
17.36
16.86
6.69
-7.54
-17.90
-18.68
-9.59
4.11
14.57
15.91
7.54
-5.53
-15.65
-16.88
-8.50
4.52
14.49
15.48
6.84
-6.29
-16.01
-16.18
-6.15
8.74
20.25
21.99
13.08
-1.29
-12.87
-15.26
-7.51
5.40
15.50
16.46
7.42
-6.65
-17.81
-19.73
-11.36
2.56
14.19
17.06
9.77
-3.27
-14.46
-17.37
-10.33
2.57
13.84
16.95
10.10
-2.80
-14.25
-17.59
-10.72
2.53
14.63
18.60
12.11
-1.18
-13.80
-18.57
-12.93
-0.30
11.88
16.55
11.07
-1.14
-12.64
-16.36
-9.76
3.61
16.11
20.50
14.09
0.35
-13.05
-18.76
-13.91
-1.71
10.54
15.53
10.39
-1.84
-13.98
-18.89
-13.60
-0.95
11.98
17.95
13.67
1.76
-10.90
-17.04
-13.16
-1.57
10.88
16.84
12.73
0.85
-11.84
-17.87
-13.46
-0.92
12.67
19.54
15.77
3.48
-10.29
-17.67
-14.54
-2.90
10.31
17.28
13.76
1.66
-12.16
-19.81
-16.94
-5.16
8.86
17.27
15.57
5.12
-7.60
-14.93
-12.38
-1.31
11.92
19.59
17.10
5.71
-8.30
-17.19
-16.12
-5.93
7.33
15.98
15.06
5.21
-7.78
-16.31
-15.35
-5.39
7.77
16.44
15.43
5.12
-8.65
-17.91
-17.22
-6.84
7.38
17.34
17.44
7.80
-5.84
-15.45
-15.46
-5.97
7.31
16.53
16.12
6.20
-7.57
-17.35
-17.65
-8.44
4.87
14.54
15.04
6.16
-6.82
-16.30
-16.72
-7.78
5.41
15.20
15.87
6.99
-6.37
-16.52
-17.49
-8.60
5.13
15.86
17.42
8.89
-4.82
-15.84
-17.78
-9.48
4.26
15.59
18.07
10.36
-2.99
-14.15
-16.63
-9.04
4.20
15.41
18.10
10.76
-2.31
-13.50
-16.38
-9.38
3.36
14.38
17.23
10.21
-2.58
-13.76
-16.88
-10.12
2.55
13.72
16.83
9.94
-3.01
-14.57
-18.01
-11.27
1.86
13.80
17.65
11.16
-2.04
-14.42
-18.95
-13.11
-0.44
11.70
16.24
10.57
-1.91
-13.79
-17.97
-11.78
1.47
14.36
19.74
14.74
2.46
-9.85
-15.21
-10.81
0.35
11.31
15.27
9.61
-2.55
-14.16
-18.36
-12.47
0.38
13.04
18.33
13.24
0.63
-12.47
-18.70
-14.69
-2.84
9.98
16.48
13.10
2.07
-9.90
-15.61
-11.43
0.48
13.34
19.77
16.01
4.07
-9.30
-16.53
-13.60
-2.33
10.60
17.52
14.23
2.39
-11.32
-19.06
-16.40
-4.92
8.82
16.92
14.88
4.19
-8.62
-15.73
-12.73
-1.18
12.25
19.75
16.77
4.77
-9.62
-18.60
-17.48
-7.34
5.65
13.90
12.77
3.14
-9.07
-16.47
-14.49
-4.05
9.01
17.10
15.52
5.04
-8.51
-17.50
-16.89
-7.08
6.31
15.65
15.67
6.48
-6.52
-15.83
-16.05
-7.09
5.77
15.04
15.23
6.12
-7.05
-16.73
-17.25
-8.31
4.92
14.72
15.43
6.63
-6.39
-15.80
-15.76
-5.84
8.68
19.72
21.12
12.11
-2.29
-14.04
-16.83
-9.62
2.89
13.03
14.63
6.71
-5.99
-15.88
-16.88
-8.07
5.70
16.74
18.75
10.65
-2.87
-14.13
-16.82
-9.61
3.13
13.84
16.29
9.01
-3.78
-14.65
-17.29
-10.15
2.72
13.90
16.95
10.13
-2.68
-14.07
-17.44
-10.73
2.28
14.23
18.24
12.02
-0.91
-13.15
-17.66
-11.84
0.95
13.37
18.25
12.78
0.17
-12.32
-17.51
-12.58
-0.61
11.07
15.43
9.68
-2.90
-14.88
-19.08
-12.71
0.96
14.39
20.22
15.36
2.83
-10.03
-15.89
-11.56
0.15
12.22
17.40
12.55
0.39
-12.19
-17.99
-13.74
-1.95
10.56
16.60
12.72
1.27
-11.04
-16.98
-12.89
-0.87
12.32
19.26
15.97
4.32
-9.10
-16.76
-14.41
-3.60
9.23
16.51
13.89
2.77
-10.45
-18.03
-15.44
-4.03
9.76
18.00
15.93
4.71
-9.26
-18.03
-16.70
-6.26
6.98
15.20
13.51
2.83
-10.61
-19.04
-17.62
-7.12
6.46
15.46
15.02
5.77
-6.44
-14.13
-12.45
-2.08
11.20
19.73
18.50
8.03
-5.95
-15.72
-15.94
-6.71
6.52
16.08
16.38
7.24
-6.18
-16.31
-17.46
-9.13
3.70
13.51
14.60
6.30
-6.45
-16.07
-16.74
-7.79
5.80
16.26
17.54
8.85
-4.90
-15.87
-17.89
-10.02
2.97
13.44
15.27
7.50
-5.12
-14.98
-16.04
-7.40
6.13
16.90
18.66
10.29
-3.62
-15.48
-18.92
-12.43
-0.08
10.82
14.05
7.86
-3.90
-14.20
-16.83
-10.02
2.54
13.78
17.35
11.29
-0.86
-12.03
-15.73
-9.79
2.33
13.54
17.16
10.90
-1.83
-13.81
-18.11
-12.14
0.77
13.42
18.71
13.80
1.80
-10.11
-14.83
-9.48
2.91
15.04
19.78
14.12
1.10
-12.00
-17.98
-13.75
-2.14
9.85
15.11
10.63
-0.85
-12.41
-17.11
-12.00
0.09
12.28
17.48
12.61
0.38
-12.41
-18.57
-14.73
-3.14
9.55
16.17
13.04
2.13
-10.16
-16.68
-13.59
-2.57
10.07
17.14
14.64
4.08
-8.29
-15.16
-12.38
-1.39
11.56
18.91
16.31
5.06
-8.54
-16.78
-15.04
-4.48
8.70
16.83
15.21
4.92
-7.95
-15.78
-13.97
-3.65
8.99
16.36
13.83
2.58
-11.07
-19.39
-17.63
-6.77
7.08
16.20
15.69
6.22
-6.42
-14.83
-14.27
-5.32
6.53
14.08
12.75
3.14
-9.22
-17.15
-15.90
-5.94
7.30
16.42
16.35
7.21
-5.84
-15.41
-16.13
-7.66
5.10
14.90
16.22
8.49
-3.66
-13.07
-14.19
-6.29
6.07
15.70
16.95
8.94
-3.78
-13.91
-15.58
-7.82
4.86
15.02
16.66
8.69
-4.33
-14.82
-16.66
-8.67
4.61
15.53
17.84
10.27
-2.79
-13.78
-16.51
-9.72
2.30
12.25
14.05
6.49
-6.07
-16.33
-18.19
-10.36
2.94
14.40
17.76
11.34
-0.97
-12.12
-15.86
-10.30
1.10
11.48
14.65
8.58
-3.33
-14.25
-17.87
-11.97
0.20
11.77
16.16
10.94
-0.82
-12.17
-16.33
-10.61
1.92
14.22
19.23
14.05
1.60
-11.08
-16.82
-12.57
-1.15
10.45
15.19
10.01
-2.13
-14.09
-18.73
-13.06
0.01
13.28
19.47
15.41
3.80
-8.36
-14.04
-10.14
0.72
11.89
16.46
11.46
-0.54
-13.01
-19.09
-15.53
-4.43
7.95
14.79
12.45
2.58
-8.94
-15.35
-12.78
-2.51
9.61
16.62
14.38
3.98
-8.70
-16.39
-14.59
-4.23
8.78
16.95
15.61
5.56
-7.34
-15.59
-14.49
-4.86
7.48
15.16
13.53
3.50
-9.04
-16.64
-14.61
-3.81
9.84
18.82
18.19
8.51
-4.52
-13.46
-13.37
-4.57
7.52
15.47
14.33
4.35
-9.06
-18.45
-18.59
-9.43
3.89
13.87
15.02
7.00
-5.32
-14.64
-15.41
-7.10
5.45
14.91
15.66
7.08
-6.04
-16.32
-17.95
-10.10
2.59
12.75
14.64
7.29
-4.83
-14.46
-15.94
-8.42
3.73
13.44
15.16
8.14
-3.22
-11.89
-12.44
-4.24
8.13
17.58
18.51
10.19
-2.79
-13.33
-15.69
-8.82
3.07
13.03
15.38
8.80
-2.78
-12.70
-15.32
-9.24
1.95
11.62
14.12
7.87
-3.72
-14.08
-17.37
-11.70
-0.27
10.45
14.41
9.60
-0.94
-10.73
-13.68
-7.69
4.06
14.93
18.66
13.05
1.34
-9.72
-13.71
-8.30
3.32
14.30
18.15
12.38
0.01
-12.12
-17.49
-13.45
-2.74
8.19
12.91
8.74
-1.81
-12.49
-17.01
-12.72
-2.11
8.73
13.50
9.44
-1.09
-12.11
-17.37
-13.88
-3.62
7.59
13.53
11.04
1.85
-8.50
-13.89
-11.10
-1.73
8.79
14.28
11.56
2.11
-8.55
-14.12
-11.21
-1.32
10.02
16.38
14.19
4.86
-6.15
-12.40
-10.28
-1.14
9.56
15.41
12.73
2.75
-9.04
-16.17
-14.81
-5.92
5.34
12.60
11.95
4.12
-5.97
-12.13
-10.58
-2.09
8.42
14.66
12.79
3.57
-7.97
-15.39
-14.44
-5.56
6.34
14.71
14.94
7.12
-4.13
-12.30
-12.68
-5.12
5.86
13.77
13.90
6.01
-5.34
-13.48
-13.48
-5.13
6.96
15.81
16.29
8.02
-4.37
-13.78
-14.96
-7.42
4.21
12.97
13.47
5.28
-6.99
-16.28
-17.21
-9.25
3.02
12.59
14.07
6.78
-4.79
-13.83
-15.01
-7.62
4.07
13.25
14.60
7.28
-4.54
-14.11
-15.95
-8.96
2.94
13.01
15.54
9.08
-2.73
-13.22
-16.40
-10.47
1.11
11.72
15.25
9.77
-1.36
-11.52
-14.59
-8.63
2.93
13.30
16.33
10.00
-2.21
-13.42
-17.36
-11.94
-0.39
10.69
15.10
10.71
0.50
-9.15
-12.28
-6.79
4.33
14.80
18.56
13.39
2.14
-8.96
-13.79
-9.88
0.26
10.51
14.78
10.45
-0.07
-10.70
-15.30
-11.09
-0.41
10.61
15.58
11.59
0.80
-10.60
-16.01
-12.27
-1.51
10.12
15.90
12.57
2.16
-9.28
-15.11
-12.09
-2.26
8.32
13.16
9.06
-1.86
-13.45
-19.20
-15.90
-5.59
5.71
11.48
8.51
-1.33
-12.15
-17.59
-14.57
-5.05
5.12
9.62
5.37
-5.70
-17.88
-24.99
-23.85
-16.12
-7.21
-3.08
-6.78
-16.80
-28.13
-35.31
-35.54
-30.21
-24.07
-22.21
-27.18
-37.40
-48.19
-54.53
-54.12
-48.65
-42.85
-41.77
-47.80
-59.18
-70.74
-76.66
-73.61
-62.46
-47.53
-34.23
-26.15
-23.29
-22.45
-18.56
-7.06
13.83
42.13
73.09
101.47
123.68
138.56
147.29
152.10
154.83
156.06
155.08
150.73
142.39
130.60
116.92
103.80
93.67
87.74
85.63
85.19
83.31
77.27
67.14
51.78
31.09
5.93
-22.04
-50.32
-75.56
-94.39
-104.68
-106.74
-103.33
-99.33
-99.52
-105.95
-117.30
-129.96
-140.88
-148.36
-151.58
-149.51
-139.66
-118.45
-82.38
-30.03
36.43
110.50
182.36
240.47
274.49
278.54
253.26
206.90
153.56
109.37
87.07
91.04
115.80
147.39
169.63
170.39
147.00
104.00
53.69
10.03
-18.98
-34.03
-40.94
-44.82
-49.01
-53.21
-58.84
-71.18
-96.33
-136.69
-187.95
-236.46
-266.86
-269.31
-243.51
-194.84
-137.98
-89.41
-60.49
-53.90
-64.71
-84.80
-107.11
-126.78
-141.32
-150.26
-153.58
-151.63
-144.92
-136.35
-125.47
-110.88
-90.86
-64.14
-30.89
7.71
48.78
87.91
119.97
140.59
147.03
139.56
121.59
97.91
74.94
58.20
50.19
49.56
52.21
53.12
49.03
40.04
29.13
20.68
17.69
20.06
24.64
27.43
25.72
20.08
13.95
11.52
15.16
23.65
32.61
37.01
34.21
25.47
15.54
9.93
11.73
19.70
28.83
33.06
28.95
17.64
4.30
-4.66
-5.28
1.83
11.73
18.08
16.56
7.47
-4.50
-12.97
-13.46
-5.93
5.15
13.44
14.29
7.41
-3.01
-10.84
-11.61
-5.02
4.85
11.96
11.89
4.39
-6.48
-14.67
-15.62
-8.80
1.98
10.69
12.53
6.63
-3.55
-12.17
-14.35
-8.96
0.69
8.82
10.56
4.77
-5.18
-13.36
-14.76
-8.25
2.69
11.92
14.26
8.42
-2.22
-11.53
-14.20
-8.85
1.29
10.25
12.73
7.23
-3.14
-12.47
-15.46
-10.39
-0.15
9.44
12.93
8.35
-1.60
-11.23
-15.02
-10.80
-0.99
8.76
12.87
9.09
-0.29
-9.65
-13.38
-9.13
0.79
10.75
15.01
11.15
1.44
-8.53
-13.01
-9.47
-0.10
9.50
13.65
9.77
-0.01
-10.09
-14.73
-11.32
-1.90
8.01
12.58
9.13
-0.41
-10.49
-15.20
-11.74
-1.95
8.65
14.06
11.20
1.78
-8.77
-14.42
-11.91
-2.74
7.80
13.64
11.43
2.55
-7.78
-13.52
-11.25
-2.18
8.47
14.60
12.65
3.62
-7.40
-14.26
-13.25
-5.21
4.97
11.23
9.84
1.59
-8.67
-14.85
-13.20
-4.50
6.42
13.37
12.51
4.47
-5.87
-12.35
-11.04
-2.53
8.39
15.46
14.58
6.14
-5.24
-13.35
-13.92
-7.01
3.10
10.38
10.61
3.80
-5.91
-12.63
-12.21
-4.62
5.87
13.22
13.11
5.42
-5.54
-13.53
-13.94
-6.50
4.59
13.05
14.15
7.44
-3.01
-10.96
-11.68
-4.69
5.96
14.08
14.84
7.68
-3.46
-12.45
-14.51
-8.84
0.91
8.88
10.38
4.56
-5.06
-12.77
-13.94
-7.70
2.62
11.26
13.52
8.31
-1.26
-9.57
-11.87
-6.87
2.43
10.57
12.70
7.48
-2.14
-10.64
-13.01
-7.75
2.24
11.34
14.40
9.67
-0.06
-9.16
-12.39
-7.88
1.68
10.61
13.63
8.80
-1.26
-10.83
-14.50
-10.24
-0.50
9.15
13.23
9.52
0.28
-9.10
-13.21
-9.77
-0.93
8.08
11.93
8.32
-0.56
-9.47
-13.09
-9.09
0.41
10.09
14.48
11.01
1.63
-8.43
-13.57
-11.02
-2.37
7.32
12.43
10.05
1.48
-8.36
-13.83
-11.77
-3.36
6.59
12.37
10.70
2.65
-6.93
-12.26
-9.93
-1.07
9.40
15.54
13.87
5.38
-4.93
-11.16
-9.80
-1.85
7.83
13.30
11.07
2.09
-8.77
-15.51
-14.44
-6.22
4.45
11.55
11.08
3.46
-6.85
-13.82
-13.30
-5.44
5.33
12.88
12.94
5.57
-4.75
-11.79
-11.21
-3.09
7.94
15.53
15.28
7.28
-3.82
-11.61
-11.61
-3.95
6.79
14.23
13.88
5.76
-5.62
-13.94
-14.69
-7.67
2.87
10.73
11.32
4.23
-6.46
-14.63
-15.59
-8.74
2.11
10.82
12.56
6.48
-3.79
-12.26
-13.98
-7.92
2.46
11.19
13.33
7.75
-2.21
-10.71
-12.82
-7.28
2.63
11.17
13.43
8.08
-1.76
-10.38
-12.85
-7.83
1.69
10.08
12.37
7.15
-2.61
-11.19
-13.48
-7.93
2.51
12.10
15.44
10.74
0.78
-8.74
-12.41
-8.16
1.48
10.87
14.58
10.35
0.52
-9.41
-14.01
-10.86
-2.01
7.27
11.54
8.39
-0.31
-9.41
-13.50
-10.10
-1.09
8.36
12.76
9.52
0.48
-9.20
-13.92
-10.94
-1.98
7.82
12.89
10.31
1.67
-7.99
-13.15
-10.89
-2.56
6.98
12.24
10.23
2.15
-7.23
-12.44
-10.40
-2.22
7.48
13.14
11.56
3.72
-5.90
-11.83
-10.79
-3.56
5.47
10.96
9.55
1.96
-7.48
-13.39
-12.30
-4.78
4.95
11.38
10.92
3.92
-5.44
-11.56
-10.69
-3.09
7.06
14.05
14.02
7.14
-2.52
-9.26
-9.20
-2.51
6.71
12.82
11.92
4.16
-6.26
-13.59
-13.74
-6.69
3.53
11.14
11.95
5.74
-3.59
-10.41
-10.57
-3.84
5.92
13.00
13.16
6.11
-4.35
-12.42
-13.68
-7.49
2.53
10.60
12.07
6.10
-3.90
-12.17
-13.92
-8.07
2.02
10.57
12.66
7.13
-2.68
-10.88
-12.42
-6.11
4.63
13.64
15.73
9.55
-1.46
-11.07
-13.91
-8.50
1.88
11.11
13.71
8.09
-2.63
-12.35
-15.53
-10.40
0.09
9.98
13.74
9.45
-0.09
-9.13
-12.27
-7.60
2.19
11.34
14.45
9.49
-0.94
-11.11
-15.49
-11.77
-2.22
7.62
12.13
8.85
-0.21
-9.68
-13.90
-10.31
-0.92
8.90
13.45
10.11
0.93
-8.65
-12.84
-8.96
0.92
11.18
15.93
12.31
2.24
-8.66
-14.41
-12.00
-3.12
6.91
12.14
9.53
0.58
-9.46
-14.77
-12.23
-3.30
6.95
12.64
10.58
2.05
-7.97
-13.67
-11.72
-3.16
7.11
13.28
11.87
3.73
-6.37
-12.63
-11.40
-3.41
6.71
13.04
11.89
3.83
-6.49
-13.04
-11.93
-3.68
7.09
14.29
13.87
6.22
-4.16
-11.21
-10.90
-3.57
6.27
12.71
11.72
3.64
-6.96
-14.12
-13.74
-6.05
4.56
12.05
12.26
5.22
-4.83
-11.87
-11.68
-4.21
6.32
13.81
13.85
6.27
-4.73
-12.96
-13.80
-6.84
3.82
11.97
12.86
5.99
-4.67
-12.98
-14.13
-7.48
3.04
11.29
12.43
5.72
-4.95
-13.33
-14.44
-7.41
4.01
13.45
15.79
9.86
-0.79
-9.99
-12.63
-7.46
2.16
10.38
12.23
6.60
-3.14
-11.20
-12.70
-6.63
3.54
11.94
13.61
7.44
-3.11
-12.09
-14.40
-8.71
1.79
11.10
13.97
8.81
-1.36
-10.60
-13.58
-8.47
1.90
11.65
15.22
10.61
0.46
-9.40
-13.29
-9.00
0.95
10.80
14.84
10.78
1.04
-8.71
-12.81
-8.94
0.49
9.81
13.38
8.84
-1.37
-11.44
-15.54
-11.22
-0.79
9.89
14.87
11.46
1.75
-8.51
-13.42
-10.26
-1.09
8.55
12.76
8.85
-1.12
-11.59
-16.61
-13.29
-3.44
7.43
13.27
10.88
1.81
-8.56
-14.16
-11.56
-2.08
8.97
15.39
13.55
4.53
-6.41
-13.00
-11.39
-2.53
8.47
15.18
13.68
4.74
-6.61
-13.93
-13.16
-4.93
5.86
12.89
12.08
4.02
-6.43
-12.98
-11.58
-2.94
7.99
14.83
13.50
4.62
-6.77
-14.32
-13.88
-5.96
4.65
11.65
10.93
2.88
-7.82
-14.97
-14.46
-6.51
4.39
12.10
12.35
5.22
-5.02
-12.26
-12.10
-4.45
6.40
14.23
14.45
6.79
-4.40
-12.81
-13.59
-6.32
4.76
13.19
14.03
6.65
-4.84
-13.94
-15.62
-9.12
1.61
10.28
11.86
5.54
-4.86
-13.13
-14.29
-7.47
3.54
12.57
14.53
8.41
-2.11
-10.91
-12.86
-6.83
3.72
12.70
14.96
9.20
-1.25
-10.44
-13.19
-8.01
2.01
11.02
13.79
8.71
-1.28
-10.41
-13.37
-8.37
1.74
11.14
14.44
9.74
-0.14
-9.34
-12.38
-7.34
2.89
12.33
15.45
10.31
-0.19
-10.03
-13.64
-9.08
0.82
10.12
13.24
8.22
-2.19
-12.11
-15.93
-11.48
-1.28
8.89
13.33
9.59
-0.06
-10.03
-14.57
-11.05
-1.48
8.63
13.47
10.25
0.81
-9.35
-14.30
-11.05
-1.33
9.36
14.90
12.14
2.64
-8.12
-13.97
-11.57
-2.41
8.07
13.67
10.97
1.48
-9.34
-15.22
-12.72
-3.24
7.81
14.20
12.49
3.96
-6.10
-11.65
-9.38
-0.68
9.33
14.65
12.01
2.78
-7.95
-14.16
-12.44
-3.81
6.76
13.29
12.07
3.90
-6.47
-13.07
-12.02
-3.90
6.64
13.48
12.62
4.48
-6.21
-13.18
-12.24
-3.78
7.41
14.92
14.45
6.34
-4.67
-12.15
-11.79
-3.94
6.67
13.68
12.81
4.31
-7.08
-15.05
-15.23
-7.65
3.26
11.27
11.91
4.97
-5.39
-13.13
-13.75
-6.91
3.43
11.25
11.94
5.02
-5.62
-13.84
-14.80
-7.75
3.45
12.60
14.63
8.59
-1.80
-10.41
-12.17
-6.11
4.05
12.12
13.11
6.05
-5.27
-14.57
-16.70
-10.62
0.08
9.21
11.59
6.05
-3.99
-12.46
-14.22
-8.01
2.80
12.23
15.09
9.92
-0.07
-9.07
-11.92
-7.09
2.46
11.01
13.51
8.42
-1.29
-9.95
-12.46
-7.21
2.89
12.08
15.07
10.13
0.04
-9.41
-12.76
-8.09
1.83
11.18
14.37
9.43
-0.84
-10.48
-13.82
-8.79
1.77
11.87
15.79
11.34
1.18
-8.78
-12.92
-9.07
0.28
9.46
12.98
8.66
-1.09
-10.72
-14.77
-10.96
-1.51
8.11
12.32
8.63
-0.90
-10.85
-15.52
-12.18
-2.70
7.56
12.79
10.11
1.20
-8.67
-13.65
-10.78
-1.64
8.52
13.90
11.56
3.05
-6.54
-11.52
-9.02
-0.62
8.60
13.08
9.97
0.88
-9.08
-14.30
-11.88
-3.27
6.58
12.06
10.14
1.98
-7.65
-13.22
-11.54
-3.60
6.04
11.83
10.47
2.76
-6.85
-12.86
-11.79
-4.24
5.48
11.84
11.24
4.11
-5.34
-11.60
-11.01
-3.82
5.81
12.36
12.04
4.98
-4.78
-11.62
-11.64
-4.82
4.90
11.96
12.42
6.20
-2.84
-9.24
-9.09
-2.41
6.87
13.22
12.63
5.11
-5.41
-13.25
-14.21
-7.98
1.78
9.49
10.93
5.54
-3.18
-9.84
-10.32
-4.16
5.13
12.05
12.42
5.79
-4.26
-12.09
-13.30
-7.16
2.83
11.01
12.70
7.01
-2.76
-10.95
-12.79
-7.14
2.73
11.10
13.07
7.41
-2.61
-11.10
-12.96
-6.92
3.70
12.85
15.30
9.72
-0.53
-9.35
-11.54
-5.85
4.24
12.57
13.89
6.96
-4.64
-14.63
-17.56
-11.93
-1.02
9.02
12.65
8.08
-1.76
-10.91
-13.92
-8.87
1.53
11.37
15.10
10.64
0.61
-9.12
-12.83
-8.26
2.00
12.00
15.83
11.15
0.52
-10.04
-14.48
-10.31
-0.09
10.07
14.13
9.49
-1.35
-12.24
-17.08
-13.21
-2.93
7.82
12.98
9.87
0.64
-8.95
-12.99
-8.87
1.22
11.53
16.08
12.19
2.04
-8.63
-13.77
-10.50
-0.81
9.65
14.82
11.68
2.03
-8.57
-14.08
-11.34
-1.88
8.83
14.63
12.17
2.75
-8.28
-14.64
-12.74
-3.75
7.10
13.53
11.88
3.35
-6.86
-12.44
-9.83
-0.35
10.53
16.43
13.68
3.61
-8.23
-15.39
-14.14
-5.59
5.01
11.33
9.62
0.86
-9.89
-16.46
-15.10
-6.57
4.28
11.37
10.83
3.24
-6.81
-13.34
-12.47
-4.62
5.69
12.47
11.73
3.83
-6.68
-13.67
-12.97
-4.79
6.31
14.12
14.34
7.04
-3.33
-10.59
-10.46
-3.09
7.10
13.99
13.30
5.17
-5.95
-13.94
-14.48
-7.47
2.87
10.52
11.13
4.39
-5.69
-13.23
-13.83
-7.05
3.34
11.49
12.86
6.85
-2.92
-10.61
-11.55
-4.99
5.42
13.76
15.13
8.66
-2.08
-11.07
-13.29
-7.57
2.61
11.23
13.22
7.32
-3.07
-11.91
-14.05
-8.18
2.39
11.64
14.36
9.14
-0.85
-9.67
-12.16
-6.92
2.87
11.38
13.46
7.73
-2.65
-11.86
-14.75
-9.82
-0.03
8.88
11.78
7.01
-2.54
-11.17
-13.67
-8.32
2.09
11.73
15.17
10.43
0.20
-9.68
-13.60
-9.35
0.54
10.26
14.10
9.78
-0.23
-10.06
-13.87
-9.19
1.53
12.32
16.98
12.78
1.99
-9.36
-14.84
-11.41
-1.20
9.68
14.76
10.89
0.31
-10.72
-15.57
-11.12
0.32
12.22
17.73
13.53
1.84
-10.80
-17.45
-14.69
-4.49
6.93
12.76
9.61
-0.61
-11.78
-17.17
-13.39
-2.34
9.89
16.46
13.80
3.66
-7.98
-14.30
-11.61
-1.44
10.28
16.70
13.99
3.64
-8.42
-15.26
-12.89
-2.62
9.57
16.64
14.42
4.09
-8.42
-15.87
-13.89
-3.53
9.30
17.18
15.55
5.26
-7.87
-16.41
-15.66
-6.38
5.81
13.68
12.64
3.50
-8.12
-15.09
-13.00
-2.82
9.61
17.10
15.10
4.54
-8.70
-17.29
-16.50
-6.93
5.89
14.63
14.45
5.61
-6.59
-14.92
-14.48
-5.43
7.09
15.87
15.86
7.06
-5.52
-14.69
-15.26
-7.02
5.17
14.24
14.94
6.91
-5.17
-14.38
-15.51
-8.05
3.45
12.25
13.23
5.84
-5.55
-14.25
-15.18
-7.75
3.77
12.78
14.15
7.16
-4.22
-13.54
-15.68
-9.68
0.82
9.76
12.03
6.46
-3.63
-12.43
-14.89
-9.63
0.30
9.27
12.26
7.74
-1.35
-9.47
-11.62
-6.25
3.78
12.79
15.67
10.74
0.78
-8.51
-11.88
-7.47
2.09
11.18
14.47
10.03
0.41
-8.80
-12.22
-7.85
1.72
10.85
14.15
9.62
-0.02
-9.06
-12.02
-6.96
3.28
12.78
16.01
10.93
0.32
-9.89
-14.12
-10.27
-0.90
8.30
11.75
7.28
-2.69
-12.56
-16.73
-12.82
-2.99
7.23
12.16
9.17
0.19
-9.45
-14.09
-11.01
-1.96
7.76
12.52
9.56
0.67
-8.82
-13.22
-9.66
0.07
10.58
15.94
13.18
3.90
-6.58
-12.31
-10.16
-1.62
8.12
13.19
10.42
1.24
-9.17
-14.94
-12.88
-4.27
5.91
11.85
10.30
2.41
-6.97
-12.11
-9.81
-1.19
8.92
14.71
12.82
4.28
-6.04
-12.25
-10.77
-2.45
7.87
14.23
12.90
4.65
-5.72
-12.20
-11.01
-2.80
7.56
13.88
12.25
3.25
-8.22
-15.72
-15.04
-6.67
4.57
12.16
11.80
3.85
-6.85
-13.81
-12.74
-4.09
7.19
14.59
13.75
5.10
-6.41
-14.30
-14.20
-6.33
4.63
12.33
12.41
4.93
-5.62
-12.98
-12.75
-4.87
6.29
14.45
15.03
7.78
-3.11
-11.36
-12.21
-5.17
5.63
13.93
14.81
7.65
-3.58
-12.63
-14.50
-8.39
1.88
10.14
11.45
4.92
-5.67
-14.09
-15.33
-8.49
2.66
11.83
13.91
7.93
-2.41
-10.83
-12.23
-5.71
4.92
13.35
14.39
7.10
-4.61
-14.36
-16.78
-10.69
0.32
9.97
12.94
7.81
-2.07
-10.67
-12.80
-7.06
3.37
12.48
15.07
9.65
-0.72
-10.12
-13.27
-8.45
1.44
10.61
13.64
8.72
-1.43
-11.00
-14.51
-9.91
0.15
9.93
13.86
9.78
0.22
-9.13
-12.70
-8.31
1.51
10.94
14.41
9.68
-0.61
-10.51
-14.26
-9.52
1.17
11.85
16.59
12.85
2.92
-7.42
-12.32
-9.25
-0.37
8.78
12.52
8.42
-1.30
-11.08
-15.20
-11.17
-1.19
9.09
13.83
10.31
0.58
-9.81
-14.93
-11.87
-2.39
8.04
13.47
10.81
1.63
-8.77
-14.45
-12.20
-3.36
6.91
12.68
10.67
2.11
-7.89
-13.28
-10.68
-1.32
9.56
15.75
13.69
4.50
-6.61
-13.32
-11.93
-3.45
7.00
13.23
11.46
2.71
-7.92
-14.20
-12.39
-3.40
7.64
14.52
13.36
4.96
-5.71
-12.49
-11.57
-3.69
6.32
12.33
10.59
1.87
-9.01
-15.86
-14.81
-6.44
4.50
11.82
11.43
3.72
-6.72
-13.76
-13.20
-5.26
5.52
13.03
12.96
5.41
-5.15
-12.55
-12.38
-4.60
6.35
14.15
14.27
6.56
-4.53
-12.58
-12.90
-5.28
5.90
14.13
14.66
7.20
-3.93
-12.24
-12.96
-5.77
4.95
12.83
13.01
5.15
-6.40
-15.25
-16.48
-9.54
1.51
10.37
12.20
6.26
-3.58
-11.26
-12.06
-5.33
5.15
13.31
14.38
7.71
-2.97
-11.53
-13.11
-6.82
3.67
12.22
13.75
7.26
-3.64
-12.75
-14.81
-8.59
2.32
11.65
14.03
8.11
-2.60
-11.78
-13.99
-7.85
3.11
12.59
15.13
9.35
-1.26
-10.42
-12.72
-6.80
3.86
13.07
15.44
9.56
-1.16
-10.57
-13.37
-8.06
2.09
11.06
13.47
7.74
-3.00
-12.76
-16.10
-11.17
-0.83
8.98
12.69
8.28
-1.59
-11.07
-14.46
-9.60
0.84
10.88
14.68
9.97
-0.52
-10.65
-14.42
-9.46
1.43
12.00
16.17
11.51
0.75
-9.91
-14.44
-10.45
-0.54
9.34
13.32
9.10
-0.82
-10.54
-14.25
-9.62
0.82
11.18
15.49
11.19
0.67
-10.20
-15.31
-11.84
-1.85
8.80
13.95
10.51
0.45
-10.44
-15.87
-12.63
-2.48
8.79
14.76
12.14
2.58
-8.19
-13.67
-10.44
-0.21
11.22
17.21
14.28
4.11
-7.46
-13.75
-11.17
-1.31
10.04
16.30
13.78
3.90
-7.70
-14.56
-13.04
-4.40
6.03
11.99
9.97
1.12
-9.36
-15.30
-13.19
-4.13
6.82
13.47
12.15
3.80
-6.72
-13.36
-12.35
-4.38
5.83
12.32
11.24
3.22
-7.11
-13.81
-12.96
-4.99
5.53
12.60
12.28
4.89
-5.09
-11.63
-10.76
-2.90
7.40
14.06
13.12
5.09
-5.39
-12.15
-11.16
-2.93
7.81
14.88
14.12
5.89
-5.20
-13.07
-13.59
-6.91
2.66
9.26
8.88
1.65
-8.23
-14.99
-14.63
-7.15
3.36
11.10
11.82
5.30
-4.55
-11.94
-12.44
-5.62
4.71
12.72
13.85
7.55
-2.43
-10.24
-11.28
-4.95
4.99
12.66
13.52
6.95
-3.36
-11.61
-13.30
-7.78
1.40
8.68
9.67
3.71
-5.80
-13.39
-14.72
-8.99
0.63
8.83
11.22
6.80
-1.47
-8.50
-9.91
-4.65
4.47
12.28
14.27
9.20
-0.13
-8.47
-11.05
-6.39
2.78
11.10
13.71
9.06
-0.03
-8.06
-10.02
-4.44
5.65
14.48
16.86
11.21
0.59
-9.17
-12.75
-8.57
0.47
8.64
10.81
5.45
-4.47
-13.26
-15.82
-10.62
-0.54
8.71
11.91
7.29
-2.36
-11.42
-14.57
-9.92
-0.08
9.27
12.70
8.24
-1.49
-10.69
-13.73
-8.52
2.20
12.41
16.22
11.38
0.61
-10.01
-14.45
-10.27
-0.07
10.12
14.33
10.05
-0.24
-10.56
-14.98
-11.01
-0.99
9.23
13.77
10.12
0.55
-9.19
-13.28
-9.21
0.77
10.92
15.30
11.26
1.06
-9.52
-14.40
-10.75
-0.70
9.91
14.82
11.05
0.67
-10.38
-15.70
-12.12
-1.62
9.83
15.76
12.95
3.25
-7.51
-13.00
-10.05
-0.60
9.60
14.30
10.45
0.05
-11.02
-16.47
-13.18
-2.97
8.41
14.66
12.43
3.23
-7.51
-13.64
-11.77
-3.15
7.05
12.82
10.71
1.97
-8.31
-14.08
-11.84
-2.73
8.07
14.37
12.52
3.59
-7.23
-13.70
-12.06
-3.24
7.63
14.27
12.85
4.22
-6.65
-13.51
-12.54
-4.52
5.65
11.83
10.22
1.67
-8.85
-15.13
-13.34
-4.30
6.96
14.14
13.28
5.03
-5.63
-12.44
-11.41
-3.15
7.49
14.25
13.14
4.75
-6.09
-13.16
-12.41
-4.30
6.44
13.49
12.64
4.19
-7.18
-15.09
-15.07
-7.16
4.13
12.41
13.08
5.89
-4.91
-13.06
-13.96
-7.28
2.88
10.46
11.02
4.37
-5.43
-12.42
-12.28
-4.94
5.50
13.12
13.64
6.89
-3.04
-10.33
-10.76
-4.13
5.63
12.79
13.13
6.34
-3.80
-11.61
-12.80
-6.80
2.87
10.60
11.92
6.07
-3.64
-11.64
-13.32
-7.67
2.05
10.33
12.47
7.42
-1.56
-8.97
-10.13
-4.12
5.66
13.46
14.59
8.09
-2.53
-11.36
-13.55
-8.03
1.81
10.13
12.01
6.38
-3.45
-11.64
-13.25
-7.16
3.28
12.20
14.54
9.03
-1.04
-9.84
-12.36
-7.25
2.31
10.52
12.36
6.51
-3.85
-12.81
-15.26
-9.67
0.86
10.41
13.54
8.56
-1.66
-11.21
-14.59
-9.85
0.25
9.82
13.31
8.75
-1.07
-10.22
-13.10
-7.74
2.93
12.84
16.32
11.32
0.74
-9.33
-13.18
-8.84
0.92
10.11
13.15
8.04
-2.42
-12.31
-16.05
-11.51
-1.27
8.91
13.33
9.64
0.14
-9.57
-13.85
-10.20
-0.73
9.01
13.32
9.63
0.05
-9.78
-13.98
-9.80
0.62
11.45
16.59
13.20
3.39
-7.04
-11.97
-8.54
1.10
11.11
15.37
11.05
0.31
-10.92
-16.48
-13.43
-3.77
6.86
12.35
9.72
0.71
-9.22
-14.12
-11.02
-1.60
8.77
14.09
11.25
1.87
-8.71
-14.40
-11.89
-2.59
8.17
14.24
12.19
3.31
-7.17
-13.14
-11.14
-2.37
7.96
13.77
11.62
2.68
-7.93
-14.09
-12.28
-3.66
6.67
12.57
10.50
1.56
-9.13
-15.37
-13.53
-4.61
6.32
13.06
11.80
3.35
-7.34
-14.14
-13.15
-4.90
5.87
13.06
12.63
4.97
-5.41
-12.47
-12.11
-4.55
5.78
12.75
12.22
4.39
-6.20
-13.30
-12.62
-4.34
6.88
14.64
14.50
6.54
-4.61
-12.50
-12.60
-4.98
5.89
13.61
13.71
6.17
-4.48
-11.94
-11.81
-4.11
6.63
14.09
13.80
5.80
-5.38
-13.34
-13.49
-5.73
5.49
13.70
14.21
6.80
-4.20
-12.41
-13.08
-5.82
5.10
13.31
13.98
6.59
-4.71
-13.55
-14.98
-8.36
2.34
10.88
12.37
6.14
-3.92
-11.64
-12.20
-5.02
5.95
14.45
15.60
8.75
-2.13
-10.79
-12.36
-6.14
3.99
11.84
12.51
5.31
-5.88
-14.86
-16.59
-10.16
0.77
9.99
12.40
6.83
-3.32
-12.05
-14.27
-8.69
1.36
9.92
11.89
5.98
-4.43
-13.29
-15.37
-9.35
1.39
10.72
13.34
7.81
-2.58
-11.74
-14.27
-8.65
2.05
11.85
15.35
10.81
1.12
-7.92
-11.00
-6.28
3.44
12.42
15.26
10.13
-0.13
-9.66
-12.93
-8.06
2.13
11.60
14.81
9.86
-0.28
-9.56
-12.39
-6.93
3.66
13.18
15.94
10.07
-1.29
-11.88
-15.88
-11.37
-1.29
8.22
11.46
6.41
-4.04
-13.86
-17.38
-12.44
-1.73
8.89
13.64
10.14
0.73
-8.95
-13.25
-9.66
-0.31
9.29
13.41
9.51
-0.27
-10.32
-14.69
-10.67
-0.35
10.43
15.59
12.25
2.51
-7.80
-12.52
-8.77
1.30
11.82
16.59
12.72
2.35
-8.58
-13.87
-10.61
-0.85
9.58
14.52
10.98
0.93
-9.92
-15.43
-12.53
-3.00
7.59
13.05
10.17
0.57
-10.28
-16.22
-13.83
-4.44
6.64
13.22
11.73
3.27
-7.10
-13.27
-11.67
-3.36
6.63
12.27
10.08
1.21
-9.17
-14.90
-12.40
-2.85
8.51
15.37
13.99
5.40
-5.21
-11.53
-9.80
-0.96
9.84
16.35
14.70
5.82
-5.23
-12.16
-11.04
-2.67
8.01
14.68
13.35
4.65
-6.55
-13.98
-13.53
-5.62
4.93
11.87
11.06
2.88
-7.95
-15.11
-14.37
-6.10
4.97
12.51
12.20
4.35
-6.35
-13.55
-12.95
-4.82
6.17
13.69
13.40
5.51
-5.31
-12.74
-12.47
-4.64
6.19
13.73
13.57
5.78
-5.21
-13.19
-13.69
-6.54
4.05
11.96
12.67
5.85
-4.51
-12.40
-13.21
-6.44
4.00
12.07
13.04
6.29
-4.33
-12.69
-13.92
-7.26
3.43
12.00
13.54
7.19
-3.28
-11.78
-13.40
-7.26
3.09
11.70
13.70
8.06
-1.85
-10.30
-12.57
-7.55
1.50
9.02
10.26
4.19
-5.87
-14.19
-15.82
-9.58
1.29
10.81
13.84
8.94
-0.76
-9.42
-11.94
-6.83
2.78
11.25
13.52
8.25
-1.52
-10.09
-12.49
-7.43
2.09
10.43
12.69
7.52
-1.98
-10.16
-12.14
-6.55
3.46
12.21
14.56
9.09
-1.15
-10.34
-13.17
-8.01
2.24
11.61
14.72
9.74
-0.49
-10.02
-13.33
-8.44
1.75
11.31
14.53
9.42
-1.18
-11.25
-15.01
-10.46
-0.32
9.39
13.05
8.54
-1.40
-10.86
-14.26
-9.52
0.65
10.42
14.11
9.61
-0.46
-10.26
-14.04
-9.55
0.74
10.86
14.98
10.64
0.30
-10.13
-14.66
-10.68
-0.63
9.59
13.88
9.67
-0.71
-11.27
-15.93
-12.01
-1.83
8.68
13.50
9.88
0.10
-10.03
-14.49
-10.56
-0.36
10.34
15.44
12.08
2.28
-8.27
-13.47
-10.25
-0.45
10.27
15.67
12.55
2.65
-8.36
-14.08
-11.13
-1.19
9.90
15.60
12.39
1.90
-9.97
-16.52
-14.12
-4.29
7.23
13.82
11.83
2.72
-7.86
-13.45
-10.60
-0.74
10.47
16.55
13.89
3.94
-7.65
-14.28
-12.12
-2.44
9.13
15.82
13.64
3.74
-8.27
-15.51
-13.87
-4.45
7.09
13.87
11.84
2.12
-9.58
-16.34
-14.14
-4.16
7.91
15.19
13.56
4.11
-7.58
-14.73
-13.25
-4.09
7.33
14.23
12.49
2.98
-8.85
-16.16
-14.63
-5.00
7.23
15.12
14.16
4.97
-7.06
-14.96
-14.12
-5.17
6.55
14.05
12.89
3.65
-8.28
-15.90
-14.79
-5.53
6.54
14.58
14.06
5.54
-5.86
-13.47
-12.87
-4.50
6.73
14.18
13.49
5.00
-6.46
-14.30
-13.98
-5.58
6.08
14.42
14.68
6.77
-4.69
-13.08
-13.55
-5.91
5.30
13.45
13.75
5.94
-5.46
-13.83
-14.33
-6.63
4.82
13.54
14.56
7.50
-3.38
-11.68
-12.53
-5.41
5.51
13.84
14.66
7.39
-3.88
-12.76
-14.28
-7.63
3.18
11.82
13.27
6.76
-3.85
-12.31
-13.65
-7.12
3.36
11.57
12.61
5.70
-5.24
-13.98
-15.55
-9.05
1.85
11.05
13.53
8.16
-1.66
-10.08
-12.20
-6.79
2.92
11.21
13.12
7.35
-2.93
-11.90
-14.44
-9.03
1.23
10.49
13.48
8.67
-0.92
-9.42
-11.58
-5.91
4.40
13.36
15.66
9.72
-1.24
-11.12
-14.49
-9.63
0.49
9.95
13.30
8.69
-1.10
-10.38
-13.83
-9.54
-0.14
8.81
12.00
7.51
-2.11
-11.32
-14.82
-10.59
-1.11
8.03
11.54
7.34
-2.11
-11.30
-14.83
-10.58
-0.97
8.55
12.54
8.81
-0.32
-9.35
-12.81
-8.45
1.47
11.40
15.76
12.13
2.70
-7.03
-11.44
-8.01
1.16
10.59
14.59
10.67
1.00
-8.80
-12.97
-9.00
0.82
10.64
14.64
10.33
0.14
-9.94
-13.93
-9.34
1.26
11.85
16.31
12.13
1.78
-8.73
-13.34
-9.48
0.59
10.95
15.58
11.68
1.34
-9.70
-15.34
-12.55
-3.09
7.49
13.02
10.32
1.01
-9.50
-15.09
-12.51
-3.31
6.99
12.25
9.25
-0.40
-11.07
-16.43
-13.19
-2.99
8.47
14.79
12.49
3.09
-7.81
-13.80
-11.29
-1.64
9.71
16.25
14.24
4.80
-6.75
-13.90
-12.69
-3.97
7.03
13.84
12.39
3.52
-7.57
-14.37
-12.82
-3.90
7.09
13.52
11.49
2.06
-9.22
-15.64
-13.30
-3.35
8.52
15.58
13.80
4.38
-7.06
-13.77
-11.75
-2.10
9.64
16.58
14.65
4.85
-7.33
-15.02
-13.93
-4.83
6.84
14.27
13.07
3.88
-8.02
-15.77
-14.88
-5.88
6.12
14.30
14.12
5.87
-5.52
-13.40
-13.19
-5.01
6.37
14.38
14.35
6.25
-5.31
-13.81
-14.51
-7.20
3.68
11.65
11.97
4.43
-6.60
-14.65
-15.01
-7.50
3.47
11.44
11.76
4.31
-6.36
-13.74
-13.22
-4.81
6.81
15.03
15.07
6.93
-4.62
-12.86
-12.93
-4.70
7.10
15.60
15.82
7.50
-4.71
-13.94
-15.06
-7.62
3.84
12.61
13.55
6.16
-5.21
-13.92
-14.94
-7.74
3.50
12.28
13.57
6.74
-4.15
-12.71
-13.88
-6.88
4.34
13.35
14.92
8.10
-3.23
-12.54
-14.42
-7.68
3.83
13.53
15.81
9.36
-2.07
-11.91
-14.51
-8.53
2.33
11.48
13.41
6.83
-4.42
-13.68
-15.39
-8.28
3.74
13.92
16.46
9.99
-1.70
-11.82
-14.51
-8.21
3.40
13.53
16.29
10.05
-1.62
-12.00
-15.16
-9.42
1.70
11.62
14.53
8.70
-2.46
-12.50
-15.73
-10.42
0.20
9.88
12.99
7.80
-2.56
-11.92
-14.72
-9.15
1.69
11.67
15.10
10.10
-0.36
-10.13
-13.52
-8.53
1.90
11.68
15.12
10.19
-0.27
-10.26
-14.08
-9.58
0.61
10.64
14.85
10.92
1.20
-8.70
-13.20
-9.90
-0.94
8.32
12.39
8.85
-0.25
-9.66
-13.96
-10.69
-1.83
7.37
11.49
8.04
-1.03
-10.51
-14.84
-11.46
-2.22
7.62
12.50
9.64
0.78
-8.88
-13.74
-10.92
-2.05
7.83
13.04
10.70
2.32
-7.11
-11.97
-9.36
-0.72
8.91
13.92
11.34
2.59
-7.31
-12.69
-10.49
-2.00
7.88
13.51
11.73
3.76
-5.65
-10.94
-8.94
-0.75
8.94
14.48
12.65
4.42
-5.46
-11.32
-9.79
-1.84
7.74
13.16
11.00
2.31
-8.00
-13.95
-12.05
-3.35
7.11
13.18
11.23
2.25
-8.64
-15.16
-13.54
-4.63
6.48
13.46
12.33
3.84
-6.97
-13.73
-12.34
-3.54
7.63
14.57
13.14
4.06
-7.47
-14.77
-13.53
-4.42
7.28
14.82
13.85
4.95
-6.63
-14.16
-13.31
-4.63
6.76
14.20
13.34
4.66
-6.80
-14.41
-13.73
-5.09
6.60
14.59
14.27
5.75
-6.12
-14.49
-14.56
-6.23
5.64
14.21
14.51
6.40
-5.34
-13.89
-14.31
-6.53
4.68
12.48
12.13
3.68
-7.92
-15.79
-15.21
-6.28
5.95
14.53
14.50
5.88
-6.33
-15.14
-15.48
-7.19
4.90
13.74
14.22
6.05
-5.99
-14.92
-15.50
-7.36
4.76
13.86
14.68
6.71
-5.43
-14.79
-16.05
-8.53
3.49
13.26
15.43
9.13
-1.61
-10.31
-11.75
-4.95
6.17
15.18
16.77
9.92
-1.48
-10.86
-12.80
-6.07
5.43
15.01
17.00
10.11
-1.86
-12.17
-15.07
-9.19
1.70
10.92
12.86
6.16
-5.32
-14.87
-16.89
-10.05
1.84
12.19
15.23
9.51
-1.41
-11.14
-14.02
-8.49
2.19
11.64
14.33
8.61
-2.27
-11.99
-14.91
-9.29
1.51
11.15
13.84
7.90
-3.33
-13.33
-16.23
-10.30
1.15
11.51
14.89
9.38
-1.73
-11.90
-15.20
-9.61
1.71
12.27
15.94
10.56
-0.82
-11.70
-15.82
-10.75
0.61
11.77
16.35
11.77
0.75
-10.33
-15.10
-10.97
-0.57
9.85
14.15
9.81
-0.56
-10.83
-15.01
-10.70
-0.42
9.85
14.15
10.01
-0.15
-10.49
-15.09
-11.33
-1.43
8.86
13.62
10.14
0.49
-9.67
-14.41
-10.88
-1.09
9.37
14.49
11.40
1.94
-8.36
-13.53
-10.69
-1.59
8.34
13.33
10.43
1.44
-8.29
-13.05
-9.95
-0.80
9.13
14.02
11.02
1.88
-8.10
-13.07
-10.08
-0.74
9.54
14.89
12.21
3.07
-7.20
-12.57
-9.87
-0.63
9.83
15.40
12.74
3.27
-7.71
-14.01
-12.14
-3.25
7.50
13.91
12.29
3.57
-7.22
-13.93
-12.75
-4.49
5.95
12.36
10.92
2.38
-8.29
-14.87
-13.47
-4.93
5.73
12.20
10.67
2.01
-8.67
-15.01
-13.21
-4.16
6.98
13.93
12.80
4.44
-6.09
-12.61
-11.26
-2.90
7.58
13.93
12.37
3.70
-7.16
-13.95
-12.80
-4.36
6.39
13.23
12.18
3.85
-6.91
-13.87
-12.99
-4.82
5.94
13.08
12.55
4.73
-5.77
-12.78
-12.16
-4.12
6.80
14.45
14.46
6.85
-3.99
-11.92
-12.46
-5.51
4.68
11.89
11.68
3.96
-6.92
-14.67
-14.72
-6.86
4.47
12.96
13.88
6.92
-3.71
-11.73
-12.48
-5.58
4.96
13.01
13.98
7.38
-2.84
-10.70
-11.63
-5.03
5.30
13.37
14.48
7.87
-2.75
-11.40
-13.16
-7.08
3.25
11.76
13.43
7.23
-3.23
-11.85
-13.54
-7.36
2.95
11.14
12.25
5.44
-5.31
-13.65
-14.60
-7.48
3.63
12.34
13.56
6.60
-4.52
-13.42
-15.02
-8.46
2.40
11.19
12.85
6.44
-4.24
-12.93
-14.52
-7.99
2.88
11.89
13.86
7.76
-2.74
-11.40
-13.03
-6.53
4.55
13.93
16.30
10.35
-0.45
-9.87
-12.52
-6.89
3.70
13.08
15.69
9.96
-0.85
-10.55
-13.56
-8.20
2.32
11.72
14.45
8.80
-1.97
-11.58
-14.43
-8.85
1.81
11.27
13.89
7.96
-3.22
-13.31
-16.60
-11.31
-0.47
9.75
13.66
9.26
-0.68
-10.31
-14.15
-10.10
-0.71
8.47
12.03
7.91
-1.49
-10.75
-14.53
-10.66
-1.42
7.82
11.76
8.20
-0.68
-9.53
-13.03
-8.92
0.59
10.14
14.35
10.85
1.80
-7.49
-11.59
-8.17
0.72
9.86
13.83
10.21
0.92
-8.90
-13.83
-11.28
-2.93
6.27
11.00
8.58
0.57
-8.23
-12.54
-9.67
-1.23
7.90
12.31
9.38
0.76
-8.48
-12.77
-9.44
-0.18
9.74
14.70
11.84
2.83
-7.10
-12.30
-9.87
-1.42
8.03
12.79
10.04
1.31
-8.34
-13.28
-10.59
-1.71
8.26
13.67
11.45
3.04
-6.55
-11.68
-9.32
-0.99
8.32
12.91
9.94
0.92
-9.05
-14.22
-11.70
-2.95
6.88
12.13
9.73
1.12
-8.62
-13.78
-11.24
-2.38
7.78
13.33
11.03
2.17
-8.16
-13.94
-11.77
-2.79
7.79
13.89
11.92
3.07
-7.47
-13.51
-11.41
-2.37
8.44
14.68
12.74
3.69
-7.22
-13.67
-11.94
-3.00
7.96
14.67
13.24
4.58
-6.23
-12.92
-11.55
-2.90
8.04
14.87
13.61
4.93
-6.23
-13.47
-12.71
-4.50
6.19
13.07
12.03
3.58
-7.40
-14.61
-13.98
-6.02
4.59
11.64
11.12
3.46
-6.76
-13.48
-12.71
-4.79
5.80
13.03
12.79
5.23
-5.25
-12.68
-12.81
-5.67
4.49
11.61
11.49
4.13
-6.11
-13.12
-12.57
-4.53
6.51
14.28
14.32
6.58
-4.52
-12.66
-13.27
-6.18
4.42
12.36
13.13
6.45
-3.57
-10.94
-11.23
-4.17
6.21
13.88
14.34
7.26
-3.31
-11.32
-12.18
-5.46
4.81
12.44
12.80
5.42
-5.62
-14.04
-15.04
-8.05
2.81
11.24
12.36
5.49
-5.37
-13.91
-15.17
-8.42
2.56
11.61
13.79
8.21
-1.52
-9.52
-11.02
-5.16
4.52
12.19
13.10
6.42
-4.25
-13.01
-14.99
-9.14
1.06
9.64
11.67
5.99
-4.06
-12.58
-14.61
-9.00
0.87
9.16
10.96
5.20
-4.64
-12.61
-13.79
-7.12
3.92
13.31
15.93
10.53
0.45
-8.39
-10.90
-5.63
4.25
12.92
15.23
9.72
-0.51
-9.63
-12.41
-7.30
2.60
11.31
13.55
7.75
-2.91
-12.35
-15.14
-9.63
0.98
10.63
13.78
8.70
-1.58
-11.03
-14.13
-9.11
1.16
10.72
14.04
9.17
-1.04
-10.66
-14.09
-9.23
1.16
11.15
14.91
10.30
-0.00
-9.98
-13.75
-9.07
1.38
11.48
15.38
10.82
0.56
-9.28
-12.83
-7.89
2.63
12.59
16.05
10.87
-0.10
-10.63
-14.79
-10.45
-0.40
9.22
12.61
7.59
-3.02
-13.17
-17.05
-12.41
-1.87
8.64
13.24
9.48
-0.27
-10.27
-14.69
-10.93
-1.12
9.08
13.79
10.30
0.62
-9.63
-14.47
-11.04
-1.24
9.30
14.54
11.58
2.34
-7.55
-12.09
-8.38
1.50
11.84
16.56
12.77
2.54
-8.31
-13.62
-10.53
-0.99
9.22
14.06
10.58
0.73
-9.84
-15.09
-12.07
-2.60
7.86
13.25
10.54
1.36
-8.94
-14.37
-11.74
-2.47
8.14
14.06
11.96
3.13
-7.26
-13.26
-11.46
-3.18
6.47
11.50
8.64
-0.78
-11.49
-17.38
-15.09
-5.85
5.14
11.81
10.58
2.52
-7.38
-13.14
-11.15
-2.27
8.70
15.74
15.11
7.43
-2.65
-9.19
-8.32
-0.55
9.40
15.47
13.69
4.67
-6.71
-14.14
-13.43
-5.20
5.63
12.59
11.58
3.18
-7.58
-14.25
-12.81
-3.99
7.05
13.90
12.45
3.48
-7.85
-15.05
-13.93
-5.08
6.50
14.16
13.52
4.88
-6.90
-15.17
-15.29
-7.22
4.31
12.75
13.29
5.76
-5.35
-13.50
-13.93
-6.57
4.09
11.46
10.98
2.64
-8.82
-16.72
-16.48
-8.16
3.35
11.37
11.07
2.55
-9.35
-17.88
-18.20
-10.29
1.16
9.32
9.36
1.15
-10.63
-19.17
-19.55
-11.56
-0.02
8.24
8.11
-0.66
-13.42
-23.24
-25.01
-18.38
-7.83
-0.16
-0.42
-9.02
-21.43
-30.84
-32.00
-24.16
-11.49
-0.49
3.59
-0.02
-7.36
-12.10
-9.29
1.59
16.24
27.79
30.94
24.81
13.60
4.14
1.96
8.17
18.85
27.53
28.84
21.69
9.85
-0.26
-3.35
1.84
11.89
20.70
23.08
17.59
7.36
-1.83
-4.95
-0.51
8.50
16.44
18.30
12.61
2.36
-6.80
-9.82
-5.22
4.09
12.40
14.67
9.41
-0.49
-9.40
-12.29
-7.59
1.81
10.47
13.44
9.14
0.26
-7.91
-10.59
-6.33
2.25
9.91
12.03
7.19
-1.91
-10.03
-12.51
-7.88
1.20
9.57
12.42
8.19
-0.66
-9.02
-12.10
-8.17
0.50
8.84
12.09
8.38
-0.09
-8.39
-11.66
-7.95
0.52
8.79
11.89
7.89
-1.02
-9.78
-13.33
-9.67
-0.94
7.74
11.36
7.87
-0.62
-9.04
-12.40
-8.59
0.31
9.38
13.51
10.50
2.19
-6.63
-10.94
-8.35
-0.46
8.00
11.98
8.99
0.54
-8.69
-13.54
-11.37
-3.60
5.09
9.53
7.10
-0.84
-9.64
-14.16
-11.77
-3.84
5.06
9.85
7.82
0.29
-8.23
-12.63
-10.14
-1.92
7.57
13.04
11.47
3.85
-5.32
-10.67
-8.97
-1.14
8.23
13.47
11.25
2.59
-7.65
-13.48
-11.36
-2.29
8.61
15.15
13.59
4.88
-5.82
-12.24
-10.56
-1.82
8.89
15.20
13.34
4.34
-6.57
-12.97
-11.10
-1.95
9.14
15.69
13.76
4.33
-7.22
-14.29
-12.74
-3.45
8.27
15.49
13.96
4.42
-7.72
-15.44
-14.22
-4.73
7.47
15.28
13.99
4.22
-8.43
-16.66
-15.65
-6.08
6.50
14.63
13.54
3.83
-8.83
-16.94
-15.68
-5.59
7.58
16.33
15.58
5.81
-7.32
-16.24
-15.78
-6.25
6.85
15.81
15.48
6.01
-7.07
-16.12
-15.79
-6.12
7.35
16.99
17.28
8.18
-4.93
-14.38
-14.64
-5.67
7.26
16.47
16.56
7.44
-5.55
-14.77
-14.84
-5.67
7.40
16.79
16.91
7.57
-6.03
-16.30
-17.54
-9.25
3.74
13.87
15.41
7.55
-5.11
-15.34
-17.38
-10.30
1.38
10.57
11.58
3.62
-8.73
-18.18
-18.92
-10.17
3.43
14.38
16.71
9.32
-3.32
-13.80
-16.09
-8.87
3.68
14.41
17.21
10.62
-1.43
-11.92
-14.74
-8.20
4.00
14.81
17.94
11.47
-1.01
-12.44
-16.33
-10.57
1.29
12.11
15.33
8.85
-3.76
-15.27
-19.02
-12.86
-0.39
11.23
15.38
9.89
-1.74
-12.45
-15.81
-9.74
2.31
13.34
16.93
10.93
-1.20
-12.44
-16.30
-10.45
1.79
13.43
17.75
12.30
0.26
-11.39
-15.92
-10.75
1.09
12.56
16.98
11.72
-0.12
-11.55
-15.79
-10.17
2.15
14.22
19.11
14.14
2.27
-9.57
-14.57
-10.09
0.96
11.72
15.55
9.84
-2.39
-14.24
-19.00
-13.91
-1.83
10.48
16.11
12.04
0.77
-11.18
-16.98
-13.43
-2.69
8.83
14.35
10.57
-0.35
-12.07
-17.69
-13.78
-2.51
9.64
15.63
11.97
0.83
-11.23
-17.02
-12.94
-1.15
11.80
18.65
15.70
4.96
-7.10
-13.34
-10.18
0.39
11.97
17.56
13.60
2.09
-10.58
-17.43
-14.82
-4.61
7.08
13.29
10.43
0.21
-11.34
-17.42
-14.41
-3.95
7.92
14.36
11.67
1.41
-10.42
-16.86
-14.04
-3.50
8.70
15.49
12.89
2.40
-9.87
-16.72
-14.06
-3.32
9.40
16.83
14.82
4.71
-7.41
-14.32
-11.87
-1.42
10.98
18.12
15.82
5.43
-7.05
-14.42
-12.42
-2.27
10.16
17.63
15.88
6.00
-6.22
-13.67
-12.02
-2.25
9.83
17.13
15.30
5.26
-7.29
-15.23
-14.18
-5.08
6.43
13.26
11.07
0.84
-11.72
-19.44
-17.90
-7.94
4.82
13.26
12.79
4.07
-7.48
-14.85
-13.50
-3.96
8.48
16.79
16.32
7.44
-4.67
-13.05
-12.92
-4.47
7.25
15.27
14.80
5.97
-6.14
-14.58
-14.45
-5.83
6.21
14.55
14.20
5.09
-7.72
-17.00
-17.60
-9.36
2.78
11.71
12.27
4.29
-7.40
-15.77
-15.75
-7.23
4.98
13.95
14.70
7.08
-4.10
-12.08
-12.06
-3.97
7.41
15.38
15.13
6.65
-5.32
-14.02
-14.56
-6.74
4.93
13.64
14.47
6.99
-4.39
-13.00
-13.77
-6.13
5.52
14.55
15.78
8.57
-2.82
-11.76
-13.04
-6.13
4.72
12.85
13.24
5.38
-6.30
-15.06
-15.86
-8.13
3.68
12.91
14.32
7.28
-3.99
-12.94
-14.34
-7.40
3.92
13.03
14.72
7.99
-3.28
-12.62
-14.69
-8.34
2.60
11.59
13.14
6.07
-5.79
-15.72
-18.03
-11.36
0.53
10.91
14.01
8.30
-2.61
-12.14
-14.59
-8.45
2.77
12.59
15.34
9.47
-1.55
-11.29
-14.09
-8.31
2.69
12.52
15.42
9.68
-1.37
-11.30
-14.31
-8.60
2.46
12.30
15.07
8.98
-2.50
-12.65
-15.47
-9.10
2.94
13.96
17.85
12.73
1.93
-7.95
-11.03
-5.59
4.99
14.16
16.18
9.37
-2.75
-13.53
-17.06
-11.50
-0.23
10.21
13.74
8.39
-2.66
-12.91
-16.30
-10.72
0.82
11.73
15.85
10.85
-0.40
-11.44
-16.02
-11.62
-1.01
9.44
13.47
8.57
-2.48
-13.23
-17.30
-12.14
-0.49
11.13
16.26
12.17
1.48
-9.33
-13.87
-9.41
1.42
12.23
16.60
11.84
0.62
-10.63
-15.44
-11.03
0.02
11.28
16.19
11.90
0.91
-10.46
-15.65
-11.72
-0.98
10.23
15.38
11.42
0.57
-10.98
-16.62
-13.20
-2.87
8.18
13.33
9.34
-1.65
-13.41
-19.18
-15.58
-4.58
7.68
14.46
12.31
3.05
-7.33
-12.27
-8.54
1.86
12.89
18.01
14.03
3.13
-8.53
-14.30
-10.91
-0.45
10.89
16.38
12.71
1.87
-9.97
-16.11
-13.07
-2.71
8.86
14.88
11.78
1.32
-10.46
-16.69
-13.72
-3.31
8.42
14.52
11.34
0.68
-11.17
-17.12
-13.50
-2.16
10.55
17.50
14.86
4.33
-7.83
-14.59
-12.11
-1.89
10.05
16.73
14.23
3.96
-8.23
-15.43
-13.62
-4.03
7.53
14.06
11.50
1.13
-11.10
-17.96
-15.18
-4.00
9.41
17.67
16.29
6.43
-5.83
-13.03
-10.74
-0.21
12.45
19.81
17.49
6.74
-6.30
-14.24
-12.81
-3.18
8.63
15.41
12.87
2.19
-10.70
-18.61
-17.17
-7.30
5.35
13.57
12.85
3.84
-8.04
-15.80
-14.84
-5.65
6.36
14.15
13.05
3.57
-8.89
-17.11
-16.29
-6.93
5.48
13.60
12.61
2.92
-9.92
-18.49
-17.83
-8.24
4.98
14.55
15.45
7.78
-3.43
-11.20
-10.74
-2.14
9.62
17.58
16.86
7.54
-5.32
-14.62
-15.27
-7.13
4.87
13.53
13.72
5.29
-6.82
-15.39
-15.26
-6.33
6.30
15.38
15.68
7.04
-5.48
-14.63
-15.19
-6.98
5.13
14.01
14.48
6.28
-5.76
-14.56
-14.95
-6.54
5.89
15.26
16.13
7.99
-4.48
-14.12
-15.39
-7.67
4.43
13.62
14.38
6.16
-6.30
-15.61
-16.16
-7.38
5.83
16.09
17.69
10.01
-2.17
-11.53
-12.53
-4.70
7.25
16.03
16.30
7.62
-5.09
-14.55
-15.33
-6.98
5.63
15.24
16.26
8.09
-4.61
-14.64
-16.37
-8.93
3.32
13.21
15.03
7.70
-4.60
-14.83
-17.17
-10.34
1.52
11.35
13.21
5.77
-6.84
-17.43
-19.85
-12.68
0.03
11.07
14.32
8.24
-3.21
-12.95
-15.02
-8.02
4.13
14.47
17.14
10.75
-0.72
-10.41
-12.53
-5.73
6.06
15.95
18.02
10.89
-1.52
-12.20
-15.11
-8.67
3.27
13.57
16.12
9.24
-3.17
-13.92
-16.72
-9.81
2.86
14.08
17.41
10.96
-1.50
-12.77
-16.42
-10.56
1.18
11.70
14.75
8.44
-3.61
-14.40
-17.75
-11.72
0.20
11.18
14.95
9.49
-1.85
-12.34
-15.74
-9.89
2.02
13.24
17.42
12.23
0.78
-10.19
-14.21
-8.76
3.02
14.26
18.24
12.33
-0.38
-12.91
-18.36
-13.89
-2.43
9.11
13.84
8.86
-3.01
-14.88
-19.88
-15.12
-3.30
8.85
14.52
10.77
0.16
-10.74
-15.27
-10.57
0.85
12.46
17.55
13.11
1.65
-10.28
-15.85
-11.84
-0.58
11.42
17.15
13.29
2.09
-9.89
-15.61
-11.65
-0.30
11.73
17.35
13.13
1.44
-10.96
-16.80
-12.66
-0.91
11.72
17.96
14.32
3.10
-9.00
-14.82
-10.97
0.26
12.17
17.71
13.48
1.81
-10.59
-16.67
-12.95
-1.62
10.82
17.18
13.89
2.89
-9.54
-16.39
-13.89
-3.66
8.18
14.66
11.90
1.39
-10.92
-17.96
-15.74
-5.65
6.34
13.10
10.57
0.14
-12.07
-18.79
-15.90
-4.80
8.34
16.16
14.36
4.22
-8.20
-15.58
-13.61
-3.37
9.26
16.99
15.39
5.40
-7.23
-15.31
-14.27
-4.83
7.38
15.07
13.64
3.72
-9.04
-17.26
-16.11
-6.18
6.83
15.51
14.99
5.81
-6.38
-14.17
-12.74
-2.76
10.14
18.52
17.57
7.86
-4.98
-13.59
-13.20
-4.27
7.70
15.58
14.55
5.16
-7.18
-15.28
-14.38
-4.92
7.66
16.01
15.27
5.85
-6.84
-15.42
-14.87
-5.47
7.32
16.19
16.05
7.12
-5.25
-13.74
-13.32
-4.32
7.89
15.94
14.91
5.12
-7.97
-16.97
-16.93
-8.02
4.45
13.27
13.39
4.89
-7.17
-15.75
-15.83
-7.29
5.07
14.18
14.90
6.88
-5.20
-14.34
-15.17
-7.08
5.28
14.77
15.79
7.65
-5.03
-14.92
-16.24
-8.19
4.60
14.72
16.41
8.78
-3.56
-13.35
-14.90
-7.40
4.64
14.17
15.54
7.97
-4.19
-13.95
-15.77
-8.69
3.14
12.84
14.81
7.89
-3.89
-13.78
-16.09
-9.52
2.02
11.77
13.95
7.24
-4.52
-14.49
-16.80
-10.07
1.86
12.08
14.77
8.41
-3.16
-13.09
-15.53
-8.93
2.95
13.38
16.36
10.26
-1.33
-11.73
-14.93
-9.09
2.43
12.89
16.25
10.45
-1.21
-12.03
-15.80
-10.30
1.15
11.85
15.43
9.74
-1.98
-12.89
-16.58
-10.90
0.87
11.83
15.62
9.95
-1.88
-12.99
-16.96
-11.39
0.63
12.42
17.42
13.06
2.09
-8.98
-13.73
-9.39
1.50
12.50
17.09
12.39
0.91
-10.89
-16.28
-12.17
-1.07
10.45
15.47
10.94
-0.63
-12.47
-17.58
-12.87
-0.98
11.26
16.85
12.62
1.22
-10.57
-15.82
-11.39
0.24
12.39
18.08
14.07
2.65
-9.63
-15.83
-12.50
-1.67
10.29
16.37
12.93
1.86
-10.60
-17.38
-14.72
-4.38
7.38
13.51
10.25
-0.69
-13.02
-19.61
-16.59
-5.64
7.10
14.48
12.51
2.65
-9.03
-15.47
-12.65
-1.89
10.85
18.43
16.63
6.58
-5.88
-13.61
-12.26
-2.84
8.90
15.77
13.43
2.97
-9.69
-17.22
-15.15
-4.52
8.61
16.82
15.56
5.77
-6.60
-14.13
-12.26
-2.04
10.57
18.10
15.93
5.00
-8.69
-17.63
-16.97
-7.35
5.56
14.37
14.23
5.56
-6.20
-13.84
-12.64
-3.04
9.53
17.81
16.93
7.32
-5.60
-14.49
-14.29
-5.20
7.43
16.15
15.77
6.34
-6.88
-16.49
-17.11
-8.58
3.96
13.15
13.59
5.00
-7.60
-16.83
-17.27
-8.62
4.12
13.51
14.09
5.44
-7.50
-17.29
-18.32
-10.00
2.97
13.28
15.20
7.88
-4.20
-13.86
-15.37
-7.72
4.80
15.03
17.10
9.86
-2.49
-12.80
-15.07
-8.01
4.21
14.30
16.28
8.84
-3.74
-14.09
-16.09
-8.39
4.62
15.60
18.32
11.45
-0.79
-11.09
-13.36
-6.39
5.66
15.51
17.21
9.52
-3.30
-13.97
-16.44
-9.31
3.30
14.21
17.20
10.67
-1.52
-12.32
-15.52
-9.35
2.54
13.06
16.01
9.46
-3.00
-14.37
-18.25
-12.51
-0.69
10.33
14.03
8.29
-3.54
-14.51
-18.13
-12.30
-0.37
10.64
14.31
8.44
-3.49
-14.43
-17.86
-11.48
1.35
13.63
18.58
13.69
2.01
-9.62
-14.43
-9.67
1.91
13.55
18.46
13.70
1.90
-10.24
-15.89
-11.92
-0.97
10.27
14.88
9.88
-2.07
-14.13
-19.26
-14.46
-2.38
10.08
15.92
11.91
0.62
-11.25
-16.76
-12.62
-1.13
11.28
17.66
14.61
4.13
-7.61
-13.80
-10.92
-0.73
10.65
16.46
13.10
2.37
-9.63
-16.02
-13.10
-2.73
8.89
14.74
11.16
-0.04
-12.50
-19.05
-15.93
-4.87
7.77
14.83
12.30
1.74
-10.68
-17.81
-15.54
-5.11
7.57
15.37
14.03
4.61
-7.16
-14.26
-12.37
-2.41
9.85
17.23
15.28
4.95
-7.95
-16.03
-14.62
-4.59
8.17
16.18
14.71
4.53
-8.48
-16.81
-15.67
-5.75
7.30
16.04
15.66
6.63
-5.54
-13.64
-12.92
-3.82
8.24
16.14
15.08
5.55
-6.95
-15.11
-13.96
-3.89
9.56
18.74
18.44
8.80
-4.73
-14.53
-15.22
-6.69
5.75
14.73
14.95
6.31
-6.04
-14.79
-14.75
-6.00
6.36
14.95
14.69
5.61
-7.05
-15.92
-15.83
-6.74
6.04
15.17
15.25
6.19
-6.80
-16.27
-16.68
-7.77
5.50
15.49
16.58
8.18
-4.84
-15.00
-16.52
-8.57
4.08
14.13
15.70
7.99
-4.43
-14.25
-15.67
-7.89
4.58
14.40
15.86
8.05
-4.51
-14.55
-16.35
-8.88
3.46
13.60
15.64
8.46
-3.74
-13.93
-16.14
-9.04
3.45
14.18
17.06
10.39
-2.06
-13.29
-17.01
-11.27
0.33
10.85
13.98
7.74
-4.37
-15.34
-18.81
-12.70
-0.45
11.01
15.32
10.32
-0.71
-10.98
-14.25
-8.42
3.21
13.88
17.26
11.18
-0.99
-12.34
-16.34
-10.59
1.71
13.56
18.18
12.97
1.02
-10.70
-15.35
-10.25
1.56
13.01
17.29
11.74
-0.52
-12.40
-16.97
-11.50
0.84
13.00
17.99
13.09
1.30
-10.38
-15.07
-10.12
1.53
12.92
17.33
12.01
-0.10
-12.14
-17.38
-12.90
-1.43
10.45
15.86
11.78
0.63
-11.16
-16.76
-12.94
-1.83
10.12
15.98
12.25
0.93
-11.58
-18.20
-15.14
-4.31
7.92
14.29
10.96
-0.30
-13.06
-19.94
-16.96
-5.74
7.41
15.15
13.30
3.27
-8.79
-15.75
-13.48
-3.30
8.86
15.89
13.71
3.62
-8.41
-15.26
-12.75
-2.13
10.57
17.96
15.69
4.95
-8.14
-16.06
-14.16
-3.51
9.78
18.15
16.91
7.04
-5.44
-13.00
-11.07
-0.79
11.79
19.19
16.95
6.23
-6.84
-14.84
-13.39
-3.61
8.51
15.63
13.31
2.60
-10.64
-19.05
-17.99
-8.14
4.92
13.84
13.71
4.83
-7.54
-16.26
-16.29
-7.77
4.14
12.28
11.68
2.55
-9.81
-18.05
-17.10
-7.15
6.33
15.89
16.28
7.62
-4.76
-13.42
-13.17
-4.14
8.46
17.29
17.27
8.45
-4.00
-12.85
-13.10
-4.71
7.29
15.87
15.99
7.58
-4.51
-13.36
-13.91
-5.95
5.90
14.70
15.38
7.46
-4.61
-14.03
-15.56
-8.46
2.96
12.01
13.33
6.07
-5.64
-15.05
-16.69
-9.61
2.15
11.78
13.76
6.96
-4.60
-14.15
-16.14
-9.37
2.28
12.11
14.50
8.15
-3.14
-12.73
-14.98
-8.47
3.09
13.02
15.50
8.97
-2.95
-13.51
-16.70
-10.74
0.86
11.26
14.36
8.30
-3.38
-13.81
-16.77
-10.34
1.92
13.18
17.16
11.91
0.88
-9.17
-12.11
-6.12
5.39
15.62
18.53
12.21
0.14
-10.87
-14.70
-9.30
1.97
12.47
15.91
10.23
-1.33
-12.14
-15.89
-10.42
1.16
12.04
15.93
10.53
-1.04
-12.03
-16.04
-10.66
0.91
11.98
16.06
10.83
-0.65
-11.61
-15.58
-10.26
1.31
12.27
16.19
10.58
-1.48
-13.18
-17.91
-12.95
-1.17
10.82
16.21
12.13
1.08
-10.44
-15.72
-11.66
-0.54
11.21
16.89
13.22
2.37
-9.41
-15.38
-12.19
-1.98
9.05
14.14
10.10
-0.88
-12.43
-17.70
-13.45
-1.88
10.51
16.76
13.33
2.27
-10.06
-16.65
-13.76
-3.07
9.37
16.51
14.40
4.38
-7.77
-15.13
-13.62
-4.31
7.15
13.86
11.69
1.73
-10.31
-17.42
-15.33
-5.18
7.18
14.59
12.74
2.74
-9.48
-16.65
-14.46
-4.01
8.82
16.79
15.49
5.94
-6.05
-13.37
-11.63
-1.67
10.88
18.89
17.79
8.18
-4.54
-13.32
-13.45
-5.23
6.17
13.75
12.77
3.52
-8.84
-17.26
-16.84
-7.81
4.63
13.36
13.46
5.03
-6.80
-14.93
-14.51
-5.70
6.43
14.86
14.71
6.08
-6.00
-14.51
-14.52
-5.93
6.41
15.47
16.07
7.83
-4.60
-14.28
-15.88
-8.79
2.55
11.19
11.84
3.91
-8.02
-16.91
-17.31
-8.67
4.29
14.37
16.06
8.72
-2.95
-11.75
-12.26
-3.97
8.44
17.79
18.61
10.37
-2.26
-12.10
-13.65
-6.18
5.86
15.38
16.72
8.97
-3.55
-13.81
-16.13
-9.39
2.19
11.59
13.12
5.71
-6.41
-16.16
-17.76
-10.19
2.28
12.51
14.71
7.74
-4.20
-14.01
-15.95
-8.83
3.28
13.43
15.81
9.14
-2.62
-12.58
-14.85
-7.94
4.37
15.09
18.18
11.91
-0.07
-10.85
-14.31
-8.59
2.66
12.54
14.89
7.99
-4.44
-15.34
-18.39
-11.86
0.50
11.50
14.87
8.71
-3.26
-13.96
-17.09
-10.64
1.81
13.37
17.62
12.42
1.01
-9.91
-14.02
-9.04
2.08
12.68
16.48
11.08
-0.53
-11.73
-16.10
-11.06
0.39
11.57
15.88
10.74
-0.94
-12.41
-17.02
-12.18
-0.81
10.26
14.48
9.16
-2.67
-14.19
-18.71
-13.48
-1.38
10.89
16.50
12.58
1.70
-9.61
-14.71
-10.65
0.16
11.24
15.99
11.39
-0.08
-11.90
-17.24
-12.89
-1.32
10.93
16.80
13.00
1.84
-10.07
-15.63
-11.52
-0.06
12.00
17.61
13.34
1.60
-10.84
-16.82
-12.86
-1.31
11.19
17.34
13.69
2.41
-9.90
-16.04
-12.45
-1.18
11.15
17.43
13.99
2.92
-9.28
-15.40
-11.75
-0.43
12.06
18.40
14.91
3.53
-9.20
-16.03
-13.22
-2.64
9.28
15.42
11.97
0.78
-11.80
-18.63
-15.82
-5.01
7.64
14.89
12.69
2.42
-9.92
-17.17
-15.09
-4.80
7.71
15.18
13.17
2.71
-10.22
-18.18
-16.52
-6.17
6.91
15.22
14.08
4.33
-8.10
-15.72
-13.90
-3.57
9.40
17.55
16.15
6.05
-6.93
-15.32
-14.38
-4.70
8.04
16.50
15.78
6.38
-6.15
-14.50
-13.76
-4.37
8.20
16.46
15.46
5.59
-7.59
-16.44
-15.79
-5.90
7.58
17.01
17.05
7.85
-5.07
-14.08
-13.82
-4.50
8.47
17.45
17.20
7.77
-5.41
-14.80
-15.19
-6.55
5.84
14.65
14.61
5.73
-6.85
-15.86
-16.06
-7.39
5.20
14.32
14.74
6.16
-6.54
-16.11
-17.10
-8.94
3.56
13.28
14.64
6.96
-5.22
-14.78
-16.08
-8.43
3.76
13.27
14.59
6.84
-5.47
-15.14
-16.51
-8.64
3.97
14.22
16.21
8.91
-3.34
-13.39
-15.30
-7.87
4.74
15.21
17.54
10.29
-2.45
-13.47
-16.59
-10.15
1.85
12.36
15.16
8.66
-3.31
-13.71
-16.43
-9.96
1.88
11.98
14.39
7.59
-4.41
-14.51
-16.67
-9.38
3.29
14.21
17.10
10.40
-1.97
-12.84
-15.89
-9.36
3.02
14.01
17.30
10.95
-1.38
-12.59
-16.24
-10.29
1.72
12.83
16.60
10.96
-0.64
-11.28
-14.59
-8.56
3.45
14.47
18.12
12.24
0.18
-11.11
-15.15
-9.62
2.26
13.60
17.71
12.10
-0.14
-12.09
-17.02
-12.26
-0.75
10.58
15.02
9.85
-1.95
-13.43
-17.76
-12.25
0.07
12.21
17.27
12.39
0.46
-11.61
-17.00
-12.73
-1.43
10.33
15.78
11.89
1.08
-10.26
-15.45
-11.39
-0.32
11.41
17.00
13.16
2.00
-10.15
-16.41
-13.28
-2.81
8.61
14.05
10.07
-1.22
-13.35
-19.23
-15.43
-4.05
8.42
14.96
12.00
1.53
-10.11
-16.07
-12.77
-2.05
10.00
16.46
13.70
3.37
-8.51
-15.03
-12.38
-1.96
10.20
17.11
14.70
4.32
-8.07
-15.42
-13.56
-3.85
7.82
14.33
11.68
1.30
-10.70
-17.11
-13.94
-2.72
10.28
17.73
15.41
4.81
-7.77
-14.95
-12.41
-1.54
11.41
18.86
16.40
5.28
-8.22
-16.46
-14.80
-4.35
8.69
16.63
14.78
4.16
-9.07
-17.25
-15.71
-5.48
7.31
15.08
13.19
2.71
-10.16
-17.83
-15.64
-4.67
8.87
17.18
15.49
4.74
-8.83
-17.36
-15.86
-5.10
8.78
17.91
17.19
7.26
-5.95
-14.69
-13.91
-4.18
8.76
17.33
16.53
6.84
-6.11
-14.84
-14.33
-4.87
8.07
17.03
16.78
7.35
-6.00
-15.86
-16.87
-8.78
3.38
12.26
12.44
3.65
-9.14
-18.57
-19.18
-10.64
2.08
11.64
12.69
4.91
-6.75
-15.05
-14.79
-5.83
6.74
15.68
15.75
6.90
-5.70
-14.71
-14.79
-5.78
7.25
16.80
17.45
8.84
-4.01
-13.65
-14.55
-6.20
6.47
16.15
17.33
9.42
-2.94
-12.75
-14.64
-7.98
2.95
11.54
12.73
5.85
-5.08
-13.75
-15.23
-8.76
1.93
10.68
12.49
6.33
-4.27
-13.29
-15.64
-10.05
0.16
9.11
11.67
6.53
-3.11
-11.43
-13.35
-7.59
2.59
11.31
13.57
8.10
-1.76
-10.07
-11.78
-5.64
4.98
14.08
16.46
10.81
0.50
-8.41
-10.65
-4.88
5.52
14.28
16.02
9.33
-2.28
-12.35
-15.22
-9.30
1.87
11.87
14.91
9.34
-1.45
-11.05
-13.76
-7.91
3.23
13.20
16.20
10.32
-1.26
-12.04
-16.01
-10.95
0.20
10.96
14.99
9.87
-1.55
-12.77
-17.37
-12.72
-1.66
9.25
13.57
8.70
-2.48
-13.40
-17.56
-12.51
-1.20
9.71
13.85
8.78
-2.45
-13.12
-16.88
-11.31
0.55
11.98
16.46
11.54
0.20
-10.89
-15.20
-10.25
1.03
11.91
15.88
10.41
-1.42
-12.70
-16.70
-10.72
2.13
14.80
20.28
15.64
3.72
-8.55
-14.15
-10.06
1.09
12.56
17.42
12.60
0.69
-11.61
-17.36
-13.35
-1.97
10.15
16.00
12.19
0.97
-11.18
-17.28
-13.86
-3.03
8.75
14.51
10.90
0.08
-11.41
-16.58
-12.10
-0.28
12.18
18.16
14.20
2.63
-9.77
-15.82
-11.99
-0.53
11.86
17.86
13.91
2.23
-10.45
-16.76
-13.03
-1.42
11.27
17.66
14.01
2.42
-10.39
-17.01
-13.70
-2.50
10.00
16.51
13.21
2.05
-10.52
-17.38
-14.73
-4.37
7.47
13.73
10.69
0.11
-11.75
-17.78
-14.20
-2.77
10.14
17.25
14.64
3.98
-8.36
-15.07
-12.14
-1.19
11.47
18.52
15.85
4.93
-8.05
-15.82
-14.13
-4.21
8.00
15.32
13.43
3.39
-8.96
-16.44
-14.65
-4.58
7.92
15.51
13.63
3.26
-9.69
-17.73
-16.21
-6.08
6.67
14.52
12.88
2.77
-9.71
-17.01
-14.61
-3.63
9.76
17.98
16.37
5.96
-7.20
-15.56
-14.37
-4.40
8.52
16.91
15.91
6.12
-6.81
-15.46
-14.92
-5.67
6.70
14.80
13.80
4.22
-8.28
-16.32
-15.14
-5.44
7.05
14.89
13.32
3.13
-9.78
-17.87
-16.29
-5.73
7.97
17.12
16.71
7.20
-5.72
-14.47
-13.95
-4.50
8.25
16.83
16.18
6.64
-6.27
-15.17
-15.06
-6.27
5.86
14.01
13.23
3.76
-9.10
-18.09
-18.23
-9.59
2.69
11.45
11.56
2.84
-9.83
-19.42
-20.85
-13.94
-3.48
3.60
2.51
-6.65
-19.04
-27.78
-28.09
-20.32
-9.76
-3.47
-5.94
-16.23
-28.59
-36.19
-35.00
-26.38
-16.50
-12.57
-18.53
-32.42
-47.07
-54.75
-51.97
-40.94
-28.44
-21.98
-25.29
-36.15
-47.01
-47.93
-32.04
0.71
44.54
91.12
132.99
165.83
188.06
199.67
202.38
201.77
200.96
203.18
211.23
225.77
244.31
261.43
266.08
252.01
218.26
168.73
110.82
52.25
-1.39
-47.00
-83.33
-109.92
-125.94
-131.79
-129.65
-122.59
-113.81
-106.02
-100.54
-97.27
-95.14
-92.02
-86.63
-79.03
-70.17
-61.47
-54.22
-49.11
-46.00
-44.16
-42.23
-39.29
-35.24
-30.54
-26.02
-22.47
-20.39
-19.84
-20.45
-21.54
-22.59
-23.47
-24.35
-25.57
-27.50
-30.38
-34.35
-39.31
-45.04
-51.39
-58.33
-65.91
-74.23
-83.37
-93.42
-104.53
-116.78
-130.24
-145.01
-161.17
-178.79
-198.30
-219.46
-241.62
-263.93
-285.20
-303.91
-318.36
-326.64
-327.55
-319.59
-301.68
-273.51
-235.53
-188.99
-135.70
-77.96
-18.11
41.54
98.95
152.40
200.34
241.70
275.63
301.50
318.80
327.36
327.39
319.47
304.71
284.69
261.72
238.48
217.73
202.02
193.54
193.90
203.74
222.64
248.95
280.12
312.56
342.04
364.15
374.81
370.84
350.25
312.50
257.11
186.07
102.84
11.51
-83.70
-178.82
-270.26
-354.71
-429.05
-490.42
-536.86
-566.56
-578.13
-570.85
-544.91
-501.54
-443.15
-373.11
-295.57
-215.17
-136.68
-64.67
-3.16
44.80
77.40
94.19
95.95
84.44
61.96
30.81
-7.04
-49.92
-96.28
-144.29
-191.70
-235.91
-274.26
-304.52
-325.29
-336.23
-337.97
-331.52
-317.55
-295.96
-265.79
-225.96
-175.90
-116.17
-48.59
24.19
99.41
175.21
251.08
327.70
406.61
489.70
577.61
670.31
765.91
859.46
942.41
1003.69
1032.39
1021.57
970.95
887.32
782.23
667.83
553.35
443.64
340.15
243.32
154.15
74.37
5.45
-52.49
-101.00
-142.44
-178.77
-210.66
-237.51
-257.94
-270.96
-276.74
-276.65
-272.93
-267.83
-262.91
-258.51
-253.99
-248.21
-240.28
-230.01
-218.03
-205.43
-193.33
-182.39
-172.66
-163.63
-154.63
-145.17
-135.18
-124.94
-114.97
-105.68
-97.29
-89.69
-82.62
-75.84
-69.24
-62.89
-57.00
-51.71
-46.98
-42.62
-38.39
-34.12
-29.92
-26.17
-23.29
-21.52
-20.84
-20.74
-20.44
-19.23
-16.81
-13.60
-10.58
-8.88
-9.24
-11.56
-14.75
-17.20
-17.49
-15.10
-10.82
-6.49
-4.19
-5.28
-9.60
-15.40
-20.07
-21.46
-18.74
-12.95
-6.46
-1.75
-0.51
-3.25
-9.41
-17.65
-25.64
-29.67
-25.06
-7.80
22.72
61.57
98.77
122.63
124.92
104.84
69.56
30.68
-1.13
-20.59
-28.64
-30.03
-29.44
-28.85
-27.47
-23.69
-17.21
-9.80
-4.32
-3.12
-6.40
-12.22
-17.56
-19.73
-17.73
-12.54
-6.51
-2.16
-1.08
-3.21
-7.11
-10.69
-12.23
-11.10
-7.91
-4.14
-1.30
-0.33
-1.23
-3.19
-5.09
-5.97
-5.51
-4.02
-2.20
-0.78
-0.22
-0.51
-1.31
-2.13
-2.58
-2.52
-2.05
-1.40
-0.82
-0.45
-0.29
-0.29
-0.33
-0.33
-0.30
-0.21
-0.13
-0.06
-0.00
0.03
0.06
0.08
0.11
0.12
0.14
0.14
0.14
0.13
0.11
0.09
0.08
0.07
0.08
0.13
0.17
0.24
0.35
0.47
0.62
0.82
1.05
1.34
1.69
2.08
2.57
3.11
3.71
4.39
5.17
6.02
6.95
7.97
8.96
9.95
10.96
12.06
13.38
15.15
17.62
21.20
26.32
33.13
41.84
52.38
64.29
76.82
88.93
99.15
106.10
108.61
105.82
97.52
84.03
66.26
45.49
23.53
1.97
-17.79
-34.74
-48.21
-57.98
-64.16
-67.31
-67.71
-66.04
-63.16
-59.86
-56.80
-54.38
-52.67
-51.44
-50.30
-48.65
-46.36
-43.69
-41.18
-39.47
-38.96
-39.62
-40.90
-41.94
-41.98
-40.72
-38.62
-36.58
-35.70
-36.69
-39.49
-43.24
-46.65
-48.70
-48.91
-47.75
-46.16
-45.27
-45.88
-48.55
-53.57
-60.72
-68.69
-74.70
-74.91
-65.81
-46.28
-18.69
11.38
37.29
54.02
60.04
57.46
50.29
42.25
35.07
28.56
21.79
14.38
7.02
0.69
-4.00
-7.55
-11.28
-16.62
-24.61
-35.17
-47.06
-58.31
-67.28
-73.15
-75.70
-75.47
-73.12
-69.00
-62.87
-54.01
-41.50
-24.87
-4.04
20.16
46.23
72.30
96.62
117.87
134.98
147.32
154.44
156.29
153.13
145.01
132.28
115.46
95.72
74.18
52.00
30.34
10.21
-7.03
-20.88
-30.93
-37.16
-39.80
-39.47
-37.14
-34.40
-33.02
-33.87
-37.97
-45.26
-54.53
-63.27
-68.30
-66.61
-56.37
-37.63
-11.40
18.71
48.34
73.34
91.20
100.51
100.69
91.78
69.18
36.68
-1.79
-42.60
-82.34
-115.42
-139.51
-153.74
-159.41
-159.41
-156.66
-154.75
-156.04
-161.09
-165.85
-165.93
-158.67
-144.09
-122.81
-93.76
-55.96
-8.70
46.98
111.26
181.63
253.78
323.38
388.96
452.36
515.23
575.83
604.38
580.12
501.72
388.15
264.44
149.40
52.31
-25.00
-84.70
-129.61
-158.46
-171.39
-172.05
-167.66
-165.85
-171.26
-184.10
-202.09
-219.83
-228.64
-222.72
-200.97
-167.28
-128.49
-91.92
-63.02
-46.89
-43.48
-45.20
-42.45
-28.92
-5.68
19.86
37.97
41.95
33.22
19.04
10.70
17.57
42.94
82.28
124.73
157.32
169.42
156.98
124.15
82.63
46.55
26.94
26.77
39.82
54.29
58.31
45.59
16.20
-23.88
-66.45
-101.00
-117.86
-113.10
-90.49
-57.87
-20.56
20.03
65.31
114.70
164.42
209.11
244.86
269.56
282.79
286.99
285.08
279.88
271.01
255.37
227.97
189.96
146.62
102.70
63.79
26.48
-7.71
-37.73
-64.53
-91.15
-121.88
-149.85
-175.07
-197.02
-214.21
-223.37
-223.00
-213.75
-197.92
-178.17
-157.24
-142.82
-139.67
-148.59
-165.56
-185.85
-205.81
-223.21
-236.74
-245.90
-257.23
-275.57
-302.32
-334.70
-369.40
-404.44
-439.72
-476.02
-480.83
-437.88
-351.55
-244.78
-142.06
-57.47
6.27
52.28
85.83
111.84
128.44
134.05
129.40
118.31
104.95
92.61
82.38
74.53
69.03
61.89
50.35
34.06
15.14
-7.26
-29.33
-48.74
-63.62
-72.52
-76.56
-76.37
-72.41
-65.11
-55.99
-47.37
-41.57
-39.40
-39.24
-38.11
-31.22
-14.52
13.58
51.01
92.42
131.36
162.65
183.90
193.31
193.40
188.93
184.47
182.27
181.44
179.91
175.24
165.25
150.63
134.93
122.03
115.09
116.10
125.63
144.98
173.85
200.91
213.57
204.07
174.14
133.33
100.91
79.28
64.56
51.34
35.57
14.67
-6.83
-22.36
-28.49
-31.13
-39.60
-61.14
-93.89
-135.37
-179.30
-218.10
-244.48
-255.18
-251.15
-236.06
-212.42
-181.35
-143.87
-100.10
-50.54
2.71
55.13
101.31
136.11
156.72
162.52
154.04
133.60
104.31
69.45
31.43
-6.85
-41.93
-69.05
-82.56
-77.14
-48.33
1.57
65.11
129.74
183.62
219.21
234.90
233.54
220.52
202.13
184.10
170.71
163.16
160.53
158.83
151.92
133.54
100.10
52.71
-2.70
-53.29
-91.34
-109.44
-104.54
-80.20
-46.87
-17.73
-3.15
-6.20
-21.64
-39.44
-49.14
-48.23
-38.98
-30.48
-32.38
-48.66
-75.82
-106.13
-132.82
-152.26
-165.36
-174.24
-180.02
-181.90
-177.95
-166.47
-147.50
-123.09
-95.94
-68.24
-40.24
-10.23
24.93
64.77
105.63
140.05
158.60
154.32
126.30
81.26
30.96
-12.47
-41.26
-54.31
-56.16
-53.62
-51.63
-51.97
-53.79
-55.94
-58.51
-62.29
-69.67
-82.09
-99.56
-120.58
-143.42
-166.56
-188.33
-206.22
-216.90
-216.94
-204.42
-180.67
-149.70
-117.90
-91.51
-74.38
-66.93
-66.73
-69.93
-72.09
-74.48
-76.17
-76.19
-73.61
-67.98
-59.63
-49.96
-41.19
-35.58
-34.83
-38.71
-46.38
-56.49
-67.84
-79.67
-91.95
-105.21
-120.07
-136.84
-154.59
-171.99
-187.56
-200.09
-208.87
-213.94
-215.87
-215.42
-213.27
-209.38
-203.40
-194.27
-181.06
-163.33
-141.46
-116.45
-89.49
-61.67
-33.52
-5.32
23.59
53.94
86.22
120.41
155.93
191.78
226.52
258.36
285.13
305.82
319.31
324.33
319.51
303.95
277.98
243.28
202.71
159.84
121.68
94.30
81.17
82.24
94.92
115.70
140.99
167.61
192.49
219.62
252.19
290.20
329.54
364.45
390.74
407.14
415.11
417.00
426.40
454.15
503.79
569.44
639.76
703.65
753.09
784.11
794.52
799.06
811.48
839.36
881.54
932.57
987.11
1040.77
1088.89
1046.54
862.77
538.22
132.83
-271.37
-612.11
-861.38
-1018.03
-1088.90
-1103.10
-1072.73
-1009.59
-930.37
-856.02
-803.75
-778.64
-780.12
-794.61
-808.15
-800.90
-763.78
-700.97
-625.88
-553.25
-492.01
-444.29
-407.37
-380.05
-354.64
-325.54
-290.69
-251.64
-211.91
-174.67
-142.32
-115.72
-96.59
-82.13
-69.39
-56.22
-41.45
-24.37
-4.20
19.84
48.54
81.17
117.88
158.19
200.78
244.31
287.72
329.98
370.50
409.35
446.73
483.35
519.33
553.34
582.38
602.03
607.56
595.88
567.43
526.17
478.60
431.07
388.09
351.49
320.79
294.17
269.73
246.45
224.55
205.10
187.85
171.45
154.31
135.63
115.65
95.47
76.50
59.99
46.47
33.68
18.34
-1.53
-25.19
-50.27
-74.85
-98.70
-123.24
-150.80
-186.08
-233.36
-294.03
-365.16
-441.61
-518.23
-591.13
-657.80
-701.11
-704.32
-661.67
-584.22
-490.89
-397.25
-311.05
-233.99
-164.91
-101.69
-45.03
3.24
41.92
72.74
98.59
121.03
140.15
155.11
164.77
166.27
156.98
133.63
100.21
62.87
27.14
-3.21
-26.18
-41.18
-49.81
-54.27
-56.49
-56.74
-54.95
-51.22
-45.97
-39.72
-33.13
-27.35
-23.20
-21.21
-20.81
-21.45
-22.55
-23.57
-24.00
-23.60
-24.30
-24.63
-23.56
-19.96
-13.69
-4.87
6.01
18.35
30.75
42.04
52.10
61.26
70.68
80.56
91.00
101.64
111.52
118.13
118.79
112.02
97.70
77.34
52.23
24.47
-3.84
-31.05
-57.82
-86.05
-117.77
-155.38
-193.29
-229.66
-263.73
-295.98
-315.39
-316.13
-298.83
-270.26
-240.60
-218.42
-208.71
-209.60
-213.42
-218.62
-217.02
-202.74
-174.28
-134.01
-86.64
-38.59
4.43
37.80
63.50
79.88
86.61
87.20
87.96
94.78
109.41
129.54
150.49
167.85
179.06
183.80
183.36
179.47
173.10
164.66
154.87
145.09
136.70
130.86
128.18
128.52
131.38
135.41
139.22
141.85
143.13
143.33
142.91
143.11
143.32
142.45
138.80
130.79
117.72
100.03
79.01
56.47
34.18
13.76
-2.77
-13.97
-18.50
-16.11
-8.59
0.59
7.22
8.34
2.92
-7.70
-22.47
-40.78
-63.34
-91.90
-127.81
-171.07
-220.02
-273.44
-322.16
-360.88
-386.28
-397.40
-395.64
-384.42
-367.11
-345.29
-318.28
-282.81
-236.11
-176.96
-107.49
-32.76
41.12
109.46
169.69
219.50
255.57
273.14
268.52
241.29
196.23
142.54
89.09
47.71
26.28
24.17
34.32
48.82
63.77
77.86
90.09
99.80
104.60
103.05
96.25
88.60
86.00
88.94
94.45
95.40
84.12
56.71
14.80
-35.34
-84.65
-125.83
-155.71
-174.76
-187.16
-194.25
-195.34
-189.47
-176.31
-154.73
-124.96
-89.02
-49.53
-8.88
32.28
71.68
106.88
135.99
160.28
181.32
200.38
218.12
234.86
251.27
267.61
283.16
284.46
263.38
218.30
154.98
82.29
7.72
-63.69
-128.91
-185.60
-234.93
-274.01
-299.51
-309.11
-302.62
-281.36
-247.00
-197.25
-135.48
-68.79
-3.87
53.50
99.75
133.16
153.65
162.57
161.97
153.65
139.91
124.22
109.69
97.93
88.91
81.72
75.45
69.50
63.29
56.99
51.47
47.76
46.13
46.17
47.30
49.42
52.74
57.23
65.01
74.11
82.48
87.66
87.42
80.38
67.07
49.19
29.25
10.24
-5.17
-14.31
-15.39
-8.40
2.37
12.46
16.03
8.88
-8.88
-32.60
-54.79
-68.52
-70.40
-61.55
-45.45
-26.22
-6.38
13.27
32.99
51.56
66.51
74.97
74.88
66.37
51.11
31.62
10.17
-11.03
-31.33
-50.90
-69.82
-87.47
-102.37
-112.90
-117.98
-117.60
-113.22
-107.40
-102.59
-100.19
-100.27
-101.58
-102.65
-102.29
-100.02
-96.36
-92.50
-89.66
-88.89
-91.10
-96.52
-103.95
-110.39
-111.17
-101.76
-80.11
-48.35
-12.58
18.95
39.19
45.10
38.06
22.85
4.97
-11.34
-24.25
-32.98
-37.29
-36.82
-30.75
-18.78
-1.15
21.04
46.22
72.42
98.30
123.34
147.12
168.41
184.24
190.51
183.72
163.21
132.60
99.39
71.98
56.10
52.76
57.99
65.55
70.10
68.86
61.98
50.92
36.82
19.61
-1.37
-26.07
-53.43
-81.48
-107.98
-130.59
-147.01
-154.85
-152.25
-137.82
-112.79
-81.16
-48.78
-21.41
-2.72
6.82
9.32
7.81
4.84
1.29
-2.96
-8.06
-13.28
-17.36
-19.28
-19.03
-17.78
-17.19
-18.86
-23.43
-30.35
-38.04
-44.84
-49.68
-52.44
-53.92
-55.25
-57.64
-61.73
-67.38
-73.57
-78.96
-82.29
-82.58
-79.29
-72.27
-61.62
-47.58
-30.48
-10.96
9.93
30.90
50.64
67.76
81.19
90.38
95.31
96.50
94.70
91.26
86.72
81.73
76.67
71.77
67.20
62.99
59.21
55.58
52.09
48.64
45.24
41.97
38.79
35.86
33.24
31.01
29.12
27.73
26.93
27.06
28.57
31.75
36.83
43.61
51.78
59.65
65.55
67.64
64.63
55.99
42.18
24.54
4.87
-14.76
-32.69
-47.62
-58.63
-65.08
-66.46
-62.45
-53.06
-39.37
-22.68
-5.05
11.21
24.35
33.52
39.02
41.90
43.61
45.33
48.00
52.34
58.50
65.74
71.72
72.75
64.81
46.10
17.62
-15.74
-47.06
-70.12
-81.76
-82.69
-76.40
-67.09
-57.55
-48.64
-39.80
-30.45
-21.01
-12.74
-6.86
-4.00
-3.94
-5.84
-8.60
-11.53
-14.72
-19.11
-25.39
-33.37
-41.37
-46.67
-46.56
-40.00
-28.18
-14.09
-1.39
7.73
12.78
15.03
16.18
17.08
17.16
15.14
10.35
3.36
-3.73
-8.42
-9.00
-5.10
2.04
10.08
16.74
20.72
21.71
20.35
17.23
12.44
5.91
-2.29
-11.16
-18.74
-22.56
-21.26
-14.81
-4.95
5.88
16.35
26.30
37.18
50.34
65.98
82.32
96.38
105.37
108.15
105.77
100.60
95.31
91.59
89.79
89.17
88.65
87.39
84.88
83.09
82.88
84.82
89.19
96.05
105.27
116.34
128.24
139.31
147.63
150.84
147.26
136.34
118.67
95.83
69.96
43.28
17.10
-8.46
-34.46
-62.24
-92.60
-124.97
-157.66
-188.13
-213.51
-231.75
-241.81
-243.80
-238.43
-227.01
-211.08
-192.53
-173.54
-155.87
-140.76
-128.55
-118.83
-110.40
-101.98
-92.64
-82.58
-73.00
-65.50
-61.59
-62.03
-66.68
-74.31
-83.37
-92.68
-102.78
-114.63
-128.58
-144.07
-159.57
-172.82
-181.15
-182.31
-175.54
-162.95
-147.07
-129.06
-109.27
-87.51
-63.50
-37.13
-9.02
18.59
40.28
51.71
51.93
42.51
26.24
6.32
-13.88
-31.52
-45.03
-56.83
-68.85
-80.76
-90.85
-97.25
-97.43
-87.73
-64.35
-10.10
71.99
158.63
223.68
255.88
259.43
245.99
227.16
210.54
197.65
183.78
166.01
146.35
129.68
118.70
111.64
103.45
89.57
68.87
43.44
19.43
3.81
-0.32
4.26
11.90
18.84
25.45
34.29
45.15
54.59
57.07
48.63
29.99
7.60
-9.21
-13.22
-3.82
12.35
26.32
31.36
26.25
13.93
-1.42
-16.98
-32.04
-46.63
-59.99
-69.75
-73.25
-69.72
-61.32
-51.68
-43.60
-37.18
-30.57
-22.21
-13.21
-7.26
-9.17
-20.62
-38.21
-54.25
-60.43
-51.77
-28.30
5.56
42.98
77.55
104.99
123.97
134.53
137.63
134.76
127.57
117.60
105.82
92.78
79.35
66.55
55.42
46.57
40.64
38.07
39.19
43.78
50.71
57.87
62.82
63.48
58.57
48.35
34.13
16.98
-2.56
-24.29
-47.54
-70.55
-90.75
-106.84
-118.68
-126.28
-128.66
-123.47
-107.81
-79.89
-41.30
1.91
38.69
57.27
49.90
15.64
-40.52
-108.87
-176.69
-230.98
-252.72
-231.98
-176.11
-107.00
-47.35
-8.92
9.41
16.62
22.28
31.01
40.37
45.38
43.62
37.72
33.20
34.45
42.58
55.33
68.78
78.82
83.71
85.23
87.46
94.33
106.06
119.67
130.27
133.25
125.26
105.85
77.52
44.30
11.94
-16.18
-38.97
-57.18
-72.58
-87.46
-103.24
-119.10
-131.23
-134.15
-123.16
-96.49
-57.15
-12.57
27.83
56.29
69.44
69.19
60.41
48.19
36.41
27.22
22.05
21.95
27.05
35.04
41.19
39.56
25.58
-0.55
-33.92
-66.69
-91.98
-106.72
-111.96
-111.09
-107.34
-102.41
-96.56
-90.06
-83.71
-77.98
-71.85
-62.32
-45.84
-20.58
11.90
47.47
81.40
110.94
136.67
161.16
186.28
210.55
228.80
234.22
221.73
191.10
146.52
95.71
46.43
3.96
-30.27
-58.22
-83.66
-110.58
-137.79
-163.42
-183.86
-194.60
-191.32
-172.02
-138.44
-96.05
-52.63
-15.67
9.24
20.33
19.20
9.37
-5.27
-21.13
-34.77
-42.56
-41.06
-28.58
-5.86
23.54
53.52
77.09
88.94
87.38
75.03
57.31
39.67
25.69
16.43
10.94
7.57
5.53
5.02
6.98
12.10
20.22
30.91
44.37
61.80
84.35
110.67
135.62
153.62
162.23
162.62
157.45
148.54
135.70
117.00
90.58
56.05
16.37
-22.51
-53.67
-71.81
-75.39
-67.43
-57.33
-51.29
-53.31
-63.14
-76.32
-86.40
-88.13
-79.71
-63.31
-43.67
-25.38
-10.78
1.04
12.83
26.71
42.11
55.79
63.21
63.71
57.74
48.04
39.50
37.58
46.08
65.21
91.41
118.48
139.51
149.16
145.41
129.99
107.04
81.04
54.72
29.29
4.90
-18.49
-40.63
-60.56
-77.03
-89.22
-97.36
-103.99
-111.88
-123.51
-140.61
-163.78
-191.78
-221.75
-249.71
-271.90
-287.30
-295.55
-297.39
-294.49
-289.44
-284.52
-281.31
-280.52
-281.74
-285.00
-286.72
-280.72
-261.06
-225.53
-177.80
-127.15
-85.28
-47.65
-14.92
13.78
41.96
73.43
108.36
142.67
170.82
189.75
200.63
205.11
206.22
205.68
203.17
196.80
185.50
170.16
153.52
139.40
128.90
122.33
118.67
115.75
110.98
102.78
91.32
78.52
67.32
59.23
55.28
55.19
57.59
60.31
61.40
60.13
57.02
53.68
51.04
50.16
50.38
50.13
47.41
39.79
25.32
3.10
-25.99
-58.85
-89.72
-111.43
-117.68
-105.51
-77.86
-42.46
-8.82
15.97
29.65
35.06
37.97
43.40
53.75
67.32
80.41
89.31
91.49
85.61
71.37
50.02
22.40
-3.67
-20.96
-25.75
-19.71
-8.73
0.14
2.46
-1.76
-9.17
-15.25
-17.83
-17.43
-16.26
-17.32
-23.61
-37.77
-60.86
-91.65
-124.59
-152.03
-167.00
-166.38
-152.85
-133.10
-115.44
-102.76
-94.67
-87.97
-79.97
-70.28
-60.74
-53.74
-49.39
-45.46
-38.42
-26.05
-8.25
12.36
31.89
46.88
55.62
59.55
61.22
63.15
66.20
69.89
72.74
73.49
72.17
70.16
71.24
78.91
95.42
120.84
153.41
190.50
229.73
270.93
306.25
333.55
352.83
365.53
373.40
377.76
378.66
374.57
363.30
343.35
317.20
290.08
268.94
259.81
264.96
281.37
301.61
317.20
321.90
315.43
301.52
285.74
272.18
261.65
251.94
239.54
222.03
198.74
171.11
140.56
107.79
72.65
35.01
-4.17
-42.57
-76.74
-103.42
-120.46
-128.28
-129.71
-129.35
-131.94
-141.09
-158.44
-183.62
-214.87
-250.26
-287.92
-326.20
-363.23
-396.84
-424.72
-445.01
-456.41
-458.24
-451.01
-435.32
-411.93
-381.73
-346.59
-309.43
-274.15
-244.61
-224.01
-215.32
-219.66
-236.28
-263.26
-298.73
-341.53
-390.98
-445.90
-503.79
-562.92
-617.89
-658.84
-673.97
-654.27
-596.64
-504.17
-384.37
-247.29
-109.90
12.61
110.42
178.89
216.41
224.56
210.30
185.99
165.41
148.43
129.25
102.26
65.74
21.26
-26.60
-70.57
-104.31
-126.87
-156.42
-211.23
-297.34
-405.96
-521.80
-631.36
-725.62
-800.11
-777.08
-621.38
-364.09
-81.78
161.89
341.34
458.28
526.25
560.84
575.21
566.22
531.13
475.88
414.63
360.69
320.88
295.98
282.58
275.88
262.24
233.28
190.67
146.31
111.56
91.84
87.40
94.86
109.78
122.50
126.96
123.85
118.96
117.24
119.76
125.07
130.07
132.19
127.59
115.37
98.95
85.06
80.45
84.86
96.82
111.37
120.67
115.14
87.94
38.64
-25.64
-92.72
-149.63
-186.15
-198.56
-189.23
-164.31
-130.53
-93.07
-55.11
-18.76
13.92
41.34
62.36
77.14
87.28
95.37
103.94
114.58
127.86
143.34
160.28
176.75
189.24
192.73
181.65
151.55
100.86
32.42
-46.04
-122.57
-183.82
-218.39
-220.42
-191.60
-140.61
-80.36
-23.84
19.48
45.36
54.43
50.99
41.93
35.42
39.18
57.83
90.15
127.78
157.41
165.80
146.10
101.65
44.93
-7.52
-42.14
-53.11
-43.15
-20.36
6.53
32.03
54.87
76.30
97.40
117.17
132.61
140.68
140.68
135.40
129.88
128.28
130.93
133.73
130.51
117.05
94.24
68.15
46.75
35.33
33.24
34.28
30.43
16.62
-6.40
-32.74
-54.80
-67.67
-71.59
-71.29
-72.86
-79.98
-92.19
-105.51
-115.00
-117.54
-113.30
-104.98
-95.75
-87.16
-78.40
-67.23
-51.41
-29.84
-2.74
28.88
64.00
101.43
139.28
174.18
201.33
215.60
213.25
193.44
158.46
113.06
62.77
12.18
-36.04
-81.08
-123.02
-161.29
-193.59
-215.73
-223.08
-212.65
-184.93
-144.38
-97.93
-52.64
-13.35
18.63
45.24
70.31
97.60
128.95
163.31
196.75
223.73
239.05
240.05
227.64
206.12
181.25
158.10
139.49
126.00
116.87
111.38
109.27
109.97
111.73
111.03
103.22
83.84
50.36
3.27
-53.45
-112.93
-167.20
-209.18
-234.75
-243.77
-239.55
-227.39
-212.41
-198.06
-185.61
-174.88
-165.30
-156.76
-149.75
-144.77
-141.74
-139.73
-137.28
-133.03
-126.37
-117.53
-107.40
-96.84
-86.16
-74.92
-62.17
-46.99
-29.03
-9.03
11.44
30.40
46.22
58.11
66.26
71.49
74.83
76.95
78.09
78.18
77.10
74.95
72.09
69.04
66.56
65.66
67.63
73.72
84.54
99.32
115.75
130.50
140.26
142.89
138.08
127.05
111.83
94.25
75.51
56.21
36.87
18.34
1.89
-11.16
-19.95
-24.56
-25.99
-25.85
-25.84
-27.21
-30.48
-35.56
-41.88
-48.85
-56.01
-63.15
-70.16
-76.92
-83.12
-88.27
-91.68
-92.73
-91.12
-86.98
-81.12
-74.65
-68.64
-63.83
-60.41
-58.21
-57.00
-56.62
-57.04
-58.09
-59.27
-59.76
-58.61
-55.10
-49.00
-40.56
-30.34
-18.92
-6.80
5.54
17.66
29.09
39.40
48.35
55.84
61.99
66.94
70.82
73.72
75.73
77.01
77.71
77.85
77.24
75.41
71.78
65.93
57.78
47.74
36.61
25.21
14.08
3.43
-6.89
-16.99
-26.74
-35.67
-43.04
-48.15
-50.53
-50.09
-47.03
-41.77
-34.82
-26.73
-18.19
-10.02
-3.11
1.74
4.10
4.05
2.14
-0.77
-3.79
-6.30
-7.99
-8.95
-9.40
-9.59
-9.64
-9.60
-9.43
-9.21
-9.12
-9.39
-10.22
-11.64
-13.43
-15.25
-16.79
-17.88
-18.62
-19.25
-19.97
-20.67
-20.97
-20.23
-17.84
-13.47
-7.18
0.52
8.85
16.99
24.32
30.39
35.04
38.21
39.85
40.06
39.06
37.29
35.28
33.49
32.07
30.89
29.59
27.89
25.83
23.70
21.97
20.89
20.37
19.96
19.06
17.28
14.50
10.99
7.17
3.37
-0.30
-3.95
-7.66
-11.34
-14.64
-17.17
-18.57
-18.72
-17.76
-15.94
-13.52
-10.66
-7.60
-4.66
-2.32
-1.03
-1.11
-2.58
-5.22
-8.71
-12.67
-16.69
-20.28
-22.97
-24.47
-24.84
-24.48
-23.88
-23.44
-23.21
-23.00
-22.59
-21.93
-21.20
-20.83
-21.06
-22.02
-23.62
-25.80
-28.50
-31.64
-34.95
-37.96
-40.05
-40.72
-39.81
-37.55
-34.46
-31.10
-27.81
-24.71
-21.75
-18.85
-16.03
-13.38
-10.99
-8.89
-7.07
-5.49
-4.09
-2.84
-1.69
-0.51
0.82
2.35
3.98
5.51
6.64
7.17
7.04
6.35
5.26
3.89
2.25
0.31
-1.95
-4.45
-6.99
-9.31
-11.21
-12.59
-13.46
-13.85
-13.79
-13.23
-12.13
-10.50
-8.43
-6.12
-3.81
-1.75
-0.19
0.77
1.12
1.03
0.80
0.82
1.37
2.60
4.34
6.25
7.99
9.34
10.22
10.69
10.81
10.55
9.91
8.92
7.73
6.60
5.68
4.88
3.98
2.71
1.00
-0.89
-2.43
-3.16
-2.89
-1.83
-0.46
0.79
1.76
2.60
3.69
5.36
7.59
10.10
12.37
13.86
14.26
13.54
11.95
9.95
7.98
6.36
5.21
4.46
3.90
3.30
2.40
1.05
-0.73
-2.85
-5.04
-7.04
-8.61
-9.64
-10.20
-10.46
-10.75
-11.34
-12.35
-13.66
-14.83
-15.35
-14.74
-12.83
-9.85
-6.31
-2.89
-0.18
1.50
2.21
2.24
2.02
1.80
1.62
1.32
0.67
-0.44
-1.90
-3.32
-4.30
-4.53
-4.11
-3.41
-2.88
-2.81
-3.23
-4.01
-4.96
-6.07
-7.37
-8.88
-10.44
-11.62
-11.86
-10.63
-7.76
-3.54
1.37
6.29
10.81
14.89
18.88
23.12
27.74
32.44
36.60
39.55
40.92
40.80
39.59
37.75
35.49
32.69
29.05
24.32
18.52
11.99
5.35
-0.73
-5.72
-9.42
-11.87
-13.29
-13.95
-14.04
-13.67
-12.99
-12.11
-11.20
-10.39
-9.73
-9.23
-8.88
-8.76
-8.98
-9.60
-10.49
-11.34
-11.72
-11.26
-9.76
-7.35
-4.38
-1.33
1.27
3.10
4.07
4.32
4.23
4.16
4.44
5.13
6.09
7.07
7.87
8.41
8.77
9.04
9.21
9.25
9.07
8.64
8.04
7.43
6.99
6.80
6.79
6.72
6.35
5.47
4.05
2.22
0.17
-1.92
-4.03
-6.22
-8.66
-11.29
-13.92
-16.16
-17.61
-18.01
-17.34
-15.80
-13.72
-11.52
-9.39
-7.47
-5.70
-3.98
-2.22
-0.48
1.10
2.31
3.01
3.18
2.96
2.52
2.09
1.72
1.44
1.21
0.99
0.77
0.52
0.14
-0.46
-1.34
-2.46
-3.63
-4.67
-5.41
-5.85
-6.09
-6.30
-6.57
-6.90
-7.19
-7.30
-7.14
-6.66
-5.80
-4.48
-2.58
0.07
3.57
7.90
12.80
17.85
22.62
26.71
29.81
31.77
32.50
32.01
30.47
28.23
25.68
23.19
20.84
18.41
15.46
11.57
6.60
0.82
-5.20
-10.79
-15.44
-18.91
-21.18
-22.38
-22.65
-22.12
-20.90
-19.16
-17.17
-15.33
-14.02
-13.44
-13.44
-13.59
-13.21
-11.78
-9.14
-5.65
-1.97
1.14
3.22
4.27
4.59
4.66
4.71
4.77
4.65
4.19
3.49
2.84
2.57
2.87
3.64
4.58
5.35
5.77
5.77
5.40
4.65
3.53
2.03
0.24
-1.73
-3.74
-5.74
-7.74
-9.75
-11.75
-13.66
-15.37
-16.82
-18.00
-18.98
-19.70
-20.06
-19.89
-19.15
-17.97
-16.65
-15.61
-15.14
-15.34
-16.11
-17.19
-18.31
-19.26
-19.85
-19.89
-19.11
-17.26
-14.17
-9.84
-4.54
1.26
7.06
12.44
17.13
21.07
24.32
27.06
29.37
31.25
32.55
33.00
32.32
30.39
27.30
23.33
18.87
14.37
10.20
6.63
3.85
1.89
0.60
-0.37
-1.47
-3.11
-5.41
-8.15
-10.84
-12.91
-14.04
-14.29
-13.96
-13.38
-12.69
-11.72
-10.15
-7.78
-4.65
-1.16
2.06
4.50
5.90
6.31
6.02
5.41
4.66
3.78
2.65
1.16
-0.60
-2.28
-3.49
-3.95
-3.70
-3.08
-2.47
-1.98
-1.33
0.08
2.78
6.80
11.63
16.28
19.80
21.63
21.82
20.76
18.88
16.41
13.46
10.13
6.76
3.84
1.87
0.99
0.93
1.15
1.21
1.00
0.78
0.90
1.49
2.27
2.74
2.33
0.80
-1.71
-4.79
-7.92
-10.70
-12.90
-14.41
-15.18
-15.13
-14.15
-12.26
-9.65
-6.65
-3.67
-1.07
0.96
2.42
3.47
4.31
5.12
5.95
6.83
7.74
8.68
9.68
10.78
11.92
12.97
13.68
13.78
13.06
11.35
8.69
5.29
1.48
-2.40
-6.12
-9.64
-13.09
-16.57
-20.10
-23.49
-26.34
-28.28
-29.04
-28.61
-27.16
-24.87
-21.91
-18.30
-14.21
-9.94
-5.96
-2.74
-0.56
0.62
1.04
1.09
1.05
1.05
1.08
1.13
1.28
1.59
2.07
2.64
3.11
3.26
3.01
2.37
1.48
0.58
-0.03
-0.07
0.63
2.07
3.98
5.92
7.36
7.88
7.31
5.80
3.75
1.54
-0.52
-2.38
-4.14
-5.88
-7.54
-8.91
-9.67
-9.57
-8.61
-6.96
-4.88
-2.53
0.09
3.09
6.44
9.86
12.88
15.00
15.96
15.80
14.84
13.47
11.87
10.04
7.85
5.21
2.30
-0.50
-2.83
-4.54
-5.78
-6.95
-8.32
-9.90
-11.27
-11.86
-11.28
-9.55
-7.19
-4.87
-3.11
-1.99
-1.20
-0.32
0.86
2.18
3.25
3.67
3.27
2.16
0.71
-0.75
-2.02
-3.00
-3.80
-4.41
-4.80
-4.80
-4.25
-3.14
-1.63
0.03
1.60
2.95
4.10
5.10
5.97
6.59
6.78
6.48
5.77
4.88
4.04
3.43
3.09
2.97
3.08
3.44
3.98
4.52
4.77
4.53
3.84
2.98
2.37
2.28
2.71
3.39
3.91
4.03
3.84
3.63
3.72
4.17
4.75
5.07
4.85
4.05
2.88
1.63
0.39
-0.86
-2.25
-3.81
-5.42
-6.79
-7.79
-8.52
-9.22
-10.17
-11.37
-12.50
-13.05
-12.59
-10.99
-8.47
-5.50
-2.51
0.13
2.33
4.11
5.51
6.52
7.11
7.28
7.10
6.75
6.43
6.34
6.58
7.14
7.89
8.59
8.96
8.74
7.77
6.08
3.86
1.37
-1.13
-3.47
-5.59
-7.49
-9.17
-10.58
-11.68
-12.45
-12.96
-13.34
-13.60
-13.63
-13.23
-12.22
-10.52
-8.26
-5.68
-3.03
-0.49
1.89
4.11
6.14
7.84
9.05
9.67
9.76
9.57
9.38
9.46
9.89
10.57
11.30
11.91
12.29
12.43
12.39
12.19
11.80
11.22
10.45
9.58
8.77
8.26
8.19
8.57
9.18
9.70
9.79
9.33
8.56
7.90
7.78
8.33
9.32
10.22
10.51
9.91
8.55
6.81
5.11
3.71
2.59
1.60
0.54
-0.71
-2.17
-3.76
-5.36
-6.84
-8.13
-9.15
-9.95
-10.71
-11.65
-12.92
-14.60
-16.60
-18.78
-21.02
-23.19
-25.14
-26.61
-27.26
-26.78
-25.05
-22.29
-18.94
-15.50
-12.35
-9.57
-7.09
-4.79
-2.67
-0.86
0.47
1.23
1.45
1.28
0.90
0.49
0.14
-0.11
-0.34
-0.71
-1.43
-2.63
-4.14
-5.60
-6.52
-6.52
-5.59
-4.02
-2.26
-0.70
0.51
1.45
2.23
2.86
3.25
3.36
3.30
3.43
4.20
5.93
8.65
12.04
15.56
18.67
20.94
22.17
22.30
21.41
19.65
17.33
14.83
12.53
10.71
9.40
8.45
7.58
6.51
5.16
3.59
1.99
0.52
-0.75
-1.89
-3.06
-4.42
-6.13
-8.29
-10.85
-13.63
-16.28
-18.35
-19.44
-19.34
-18.04
-15.82
-13.08
-10.28
-7.74
-5.62
-3.90
-2.49
-1.27
-0.23
0.60
1.17
1.51
1.77
2.15
2.80
3.73
4.69
5.35
5.39
4.70
3.44
1.93
0.53
-0.57
-1.42
-2.22
-3.21
-4.49
-6.01
-7.63
-9.23
-10.71
-11.98
-12.90
-13.25
-12.83
-11.58
-9.62
-7.20
-4.58
-1.88
0.91
3.81
6.73
9.41
11.48
12.61
12.76
12.18
11.31
10.61
10.34
10.52
10.85
11.02
10.72
9.92
8.78
7.58
6.51
5.67
4.99
4.27
3.38
2.24
0.85
-0.80
-2.73
-4.90
-7.13
-9.03
-10.16
-10.15
-8.89
-6.60
-3.74
-0.78
1.88
4.06
5.65
6.70
7.19
7.25
7.05
6.74
6.41
5.97
5.17
3.74
1.59
-1.10
-3.96
-6.51
-8.32
-9.12
-8.78
-7.23
-4.60
-1.16
2.71
6.42
9.41
11.26
11.79
11.18
9.83
8.23
6.87
6.12
6.25
7.40
9.55
12.50
15.84
19.05
21.58
23.06
23.37
22.59
20.87
18.27
14.80
10.51
5.54
0.18
-5.16
-10.12
-14.47
-18.06
-20.85
-22.81
-23.95
-24.36
-24.21
-23.73
-23.07
-22.08
-20.33
-17.20
-12.29
-5.66
2.15
10.23
17.66
23.88
28.77
32.57
35.67
38.39
40.90
43.25
45.40
47.33
48.87
49.76
49.54
47.81
44.33
39.16
32.66
25.35
17.82
10.51
3.73
-2.45
-8.06
-13.29
-18.36
-23.40
-28.44
-33.22
-37.40
-40.72
-43.13
-44.89
-46.46
-48.29
-50.54
-53.08
-55.47
-57.19
-57.75
-56.78
-54.02
-49.37
-42.93
-35.02
-26.23
-17.25
-8.75
-1.24
5.04
10.01
13.76
16.41
18.19
19.34
20.21
21.06
22.07
23.22
24.23
24.82
24.71
23.91
22.65
21.28
20.10
19.18
18.31
17.14
15.40
13.07
10.37
7.62
5.07
2.80
0.76
-1.09
-2.61
-3.46
-3.19
-1.57
1.32
4.97
8.72
12.00
14.49
16.22
17.40
18.25
18.80
18.93
18.44
17.18
15.25
12.92
10.57
8.57
7.05
5.97
5.12
4.25
3.17
1.79
0.06
-1.99
-4.34
-6.94
-9.65
-12.23
-14.48
-16.35
-17.91
-19.36
-20.82
-22.21
-23.31
-23.75
-23.25
-21.62
-18.84
-15.00
-10.42
-5.59
-1.17
2.18
4.11
4.65
4.18
3.20
2.14
1.23
0.45
-0.22
-0.80
-1.24
-1.50
-1.63
-1.75
-1.96
-2.31
-2.77
-3.22
-3.63
-4.00
-4.48
-5.24
-6.46
-8.24
-10.47
-12.90
-15.06
-16.41
-16.49
-15.06
-12.09
-7.86
-2.81
2.49
7.44
11.54
14.44
16.02
16.44
15.97
14.98
13.81
12.72
11.86
11.36
11.17
11.20
11.21
10.99
10.38
9.36
8.10
6.79
5.65
4.63
3.52
2.03
-0.09
-2.87
-6.12
-9.45
-12.43
-14.69
-16.03
-16.40
-15.79
-14.20
-11.55
-7.79
-3.01
2.50
8.19
13.42
17.63
20.55
22.19
22.82
22.80
22.39
21.75
20.97
20.07
19.15
18.23
17.26
16.16
14.82
13.16
11.26
9.25
7.28
5.40
3.61
1.81
-0.09
-2.06
-4.03
-5.89
-7.61
-9.22
-10.82
-12.41
-13.91
-15.02
-15.37
-14.64
-12.74
-9.93
-6.69
-3.52
-0.72
1.65
3.74
5.64
7.23
8.22
8.31
7.32
5.42
3.03
0.66
-1.22
-2.35
-2.73
-2.52
-1.97
-1.38
-1.01
-1.03
-1.53
-2.47
-3.73
-5.16
-6.61
-7.85
-8.74
-9.17
-9.22
-9.20
-9.53
-10.55
-12.27
-14.26
-15.70
-15.77
-13.93
-10.20
-5.19
0.20
5.18
9.26
12.33
14.51
15.97
16.76
16.91
16.33
15.03
13.07
10.54
7.69
4.77
2.07
-0.27
-2.15
-3.72
-5.14
-6.52
-7.88
-9.12
-10.14
-10.83
-11.18
-11.23
-11.11
-10.93
-10.86
-11.04
-11.60
-12.53
-13.67
-14.68
-15.13
-14.65
-13.03
-10.29
-6.70
-2.63
1.43
5.12
8.18
10.48
12.08
13.12
13.82
14.28
14.63
14.87
14.99
14.97
14.82
14.53
13.98
13.04
11.54
9.51
7.20
5.08
3.56
2.80
2.62
2.54
2.06
0.86
-1.08
-3.60
-6.44
-9.36
-12.08
-14.21
-15.33
-15.05
-13.19
-9.88
-5.58
-0.85
3.84
8.22
12.24
15.93
19.33
22.28
24.51
25.69
25.48
23.74
20.53
16.21
11.35
6.55
2.33
-1.13
-3.86
-6.13
-8.13
-9.90
-11.29
-12.06
-12.20
-11.94
-11.67
-11.74
-12.30
-13.27
-14.41
-15.46
-16.23
-16.74
-17.03
-17.14
-16.99
-16.39
-15.13
-13.11
-10.31
-6.90
-3.39
-0.39
1.61
2.40
2.16
1.23
-0.01
-1.05
-1.51
-1.33
-0.76
-0.07
0.58
1.23
1.90
2.51
3.55
5.33
7.51
8.91
7.96
3.46
-4.71
-15.60
-27.57
-37.75
-43.86
-45.39
-43.89
-41.72
-40.37
-39.26
-35.83
-26.56
-6.84
26.24
72.20
126.88
183.80
236.29
279.12
308.92
313.72
285.88
226.60
147.84
67.03
-1.24
-49.77
-78.18
-90.14
-90.68
-83.08
-69.46
-51.76
-32.77
-15.80
-3.43
3.90
7.97
13.19
23.49
41.31
65.87
92.64
114.99
127.06
126.17
113.54
93.45
71.49
52.32
37.76
26.66
16.27
4.39
-9.58
-24.93
-38.76
-48.86
-54.25
-55.53
-54.35
-52.45
-50.91
-50.01
-49.65
-49.68
-50.22
-51.13
-52.04
-52.58
-52.65
-52.78
-54.01
-57.45
-63.50
-71.72
-80.41
-87.33
-90.51
-88.90
-82.75
-73.37
-62.67
-52.38
-43.80
-37.32
-32.58
-28.80
-25.26
-21.67
-18.35
-16.04
-15.33
-16.32
-18.48
-20.94
-23.12
-24.97
-27.01
-29.63
-32.52
-34.46
-33.72
-29.08
-20.53
-9.73
0.78
8.40
11.66
10.64
6.60
1.28
-3.88
-8.19
-11.57
-14.26
-16.48
-18.30
-19.64
-20.52
-21.11
-21.87
-23.35
-25.97
-29.74
-34.05
-37.82
-39.99
-40.05
-38.46
-36.74
-36.72
-39.52
-44.74
-50.30
-53.09
-50.28
-40.58
-24.65
-4.83
16.08
36.07
54.33
71.19
87.20
102.23
115.07
123.88
126.97
123.70
114.80
101.95
87.06
71.35
55.10
37.78
18.84
-1.65
-22.63
-42.22
-58.30
-69.11
-73.77
-72.48
-66.34
-56.96
-46.10
-35.39
-26.14
-19.16
-14.72
-12.39
-11.27
-10.23
-8.44
-5.74
-2.78
-0.79
-1.02
-4.23
-10.32
-18.45
-27.31
-35.64
-42.49
-47.37
-50.29
-51.64
-52.11
-52.39
-52.93
-53.72
-54.25
-53.85
-51.99
-48.67
-44.21
-39.07
-33.63
-28.23
-23.43
-20.06
-19.04
-20.75
-24.59
-28.94
-31.78
-31.59
-27.80
-20.62
-10.44
2.53
18.21
35.99
54.28
70.58
82.36
88.35
89.28
87.71
86.79
88.87
94.32
101.52
107.66
110.19
107.85
100.98
90.98
79.33
66.97
54.09
40.65
26.95
13.91
2.74
-5.83
-12.05
-17.15
-22.80
-30.27
-39.79
-50.47
-60.71
-68.81
-73.62
-74.77
-72.66
-68.09
-62.05
-55.36
-48.64
-42.34
-36.67
-31.71
-27.53
-24.18
-21.73
-20.17
-19.36
-18.99
-18.77
-18.44
-17.92
-17.23
-16.47
-15.73
-15.19
-15.13
-15.86
-17.53
-20.00
-22.72
-24.87
-25.88
-25.69
-24.98
-24.75
-25.73
-28.00
-30.80
-32.90
-33.18
-30.98
-26.38
-19.87
-12.08
-3.39
6.13
16.52
27.60
38.68
48.57
55.76
59.03
57.95
53.11
45.98
38.39
31.95
27.52
25.24
24.75
25.62
27.54
30.34
33.86
37.68
41.12
43.31
43.48
41.11
36.12
28.89
20.10
10.59
1.04
-8.15
-16.93
-25.43
-33.58
-40.83
-46.10
-48.01
-45.39
-37.79
-25.67
-10.40
6.11
21.77
34.71
43.55
47.53
46.65
41.58
33.59
24.14
14.59
5.98
-1.14
-6.53
-10.22
-12.29
-12.96
-12.52
-11.32
-9.76
-8.20
-6.89
-5.95
-5.38
-5.04
-4.77
-4.43
-4.01
-3.66
-3.69
-4.41
-5.91
-8.04
-10.30
-12.14
-13.05
-12.71
-11.00
-7.94
-3.62
1.69
7.47
13.07
17.67
20.60
21.49
20.41
17.81
14.33
10.59
7.02
3.89
1.28
-0.78
-2.31
-3.33
-3.94
-4.22
-4.34
-4.48
-4.84
-5.63
-6.98
-8.84
-11.05
-13.36
-15.50
-17.29
-18.73
-19.88
-20.84
-21.61
-22.07
-22.05
-21.31
-19.68
-17.00
-13.14
-8.02
-1.73
5.35
12.62
19.29
24.64
28.20
29.84
29.74
28.29
25.98
23.28
20.64
18.39
16.65
15.34
14.20
12.93
11.41
9.74
8.08
6.58
5.18
3.66
1.74
-0.67
-3.42
-6.17
-8.60
-10.58
-12.17
-13.54
-14.82
-15.98
-16.89
-17.45
-17.57
-17.15
-16.03
-13.87
-10.37
-5.39
0.88
7.80
14.50
20.11
24.08
26.24
26.77
26.00
24.27
21.85
19.04
16.15
13.50
11.37
9.84
8.84
8.06
7.18
5.95
4.22
1.96
-0.78
-3.88
-7.13
-10.20
-12.80
-14.79
-16.28
-17.63
-19.21
-21.22
-23.53
-25.73
-27.19
-27.45
-26.23
-23.54
-19.47
-14.14
-7.67
-0.24
7.72
15.57
22.45
27.62
30.60
31.32
30.08
27.39
23.80
19.74
15.59
11.65
8.17
5.38
3.38
2.02
0.95
-0.25
-1.92
-4.17
-6.74
-9.19
-11.00
-11.83
-11.63
-10.68
-9.44
-8.42
-8.03
-8.38
-9.33
