1537878456.00
64.000000
-0.00
-0.00
-0.00
-0.00
-0.00
-0.00
-0.00
-0.00
-0.00
-0.00
0.00
0.01
0.01
-0.00
-0.03
-0.05
-0.05
0.00
0.13
0.36
0.66
1.01
1.37
1.72
2.06
2.40
2.79
3.24
3.80
4.42
5.06
5.66
6.20
6.68
7.15
7.68
8.31
9.14
10.09
11.04
11.88
12.56
13.14
13.76
14.65
15.96
17.91
20.32
22.90
25.38
27.58
29.57
31.68
34.32
37.81
42.54
48.15
54.10
59.83
64.97
69.58
74.14
79.34
85.71
93.76
103.00
112.62
121.73
129.77
136.75
143.30
150.75
157.77
166.64
177.95
191.79
206.97
220.57
228.25
225.36
208.53
176.87
132.76
80.05
23.07
-34.94
-92.44
-149.16
-205.23
-260.37
-313.74
-363.87
-409.83
-450.91
-486.50
-515.74
-537.22
-549.21
-549.95
-538.37
-514.22
-478.69
-433.90
-382.48
-327.06
-269.93
-212.82
-156.97
-103.41
-52.95
-6.54
34.95
70.84
100.79
124.92
143.69
157.84
168.13
175.27
179.70
181.72
181.46
179.09
174.84
169.06
162.20
154.73
147.09
139.54
132.12
124.73
117.16
109.21
100.88
92.35
84.03
76.36
69.67
63.92
58.75
53.55
47.77
41.18
34.12
27.33
21.73
17.90
15.75
14.44
12.72
9.40
4.23
-2.05
-7.84
-11.50
-12.20
-10.59
-8.53
-8.02
-10.11
-14.35
-19.25
-23.12
-24.71
-23.24
-18.18
-9.06
4.30
20.98
38.85
54.95
66.54
72.35
73.33
72.11
71.64
73.28
75.67
75.15
67.40
49.69
22.69
-9.47
-40.56
-64.78
-79.07
-84.90
-86.86
-89.52
-94.50
-99.16
-98.11
-86.90
-64.53
-34.65
-4.15
20.03
33.84
37.21
32.93
25.50
18.29
12.43
7.44
2.68
-1.28
-2.46
0.99
9.82
22.79
36.96
49.01
56.73
60.05
61.29
64.19
72.24
86.75
105.28
121.66
128.17
118.85
92.46
53.64
11.38
-24.36
-45.99
-50.76
-40.92
-22.28
-2.02
13.29
19.13
13.81
-1.83
-23.69
-46.33
-64.98
-77.12
-82.83
-83.81
-82.13
-79.28
-75.96
-72.25
-67.81
-61.80
-53.18
-41.34
-26.78
-11.17
3.35
15.19
23.87
29.48
31.55
28.67
18.86
1.10
-22.79
-47.51
-65.68
-71.19
-62.09
-41.50
-15.59
9.67
30.83
46.99
57.92
62.69
60.12
50.06
35.14
20.70
12.05
11.80
18.72
28.84
38.09
44.34
47.74
49.45
49.90
47.94
41.57
29.87
13.89
-3.26
-17.66
-26.28
-28.31
-25.65
-22.17
-22.49
-29.27
-41.42
-54.27
-61.90
-60.37
-49.99
-34.87
-19.81
-7.46
2.61
12.27
22.39
31.45
36.72
36.44
31.20
23.89
17.70
14.46
13.98
15.51
18.75
24.15
31.51
38.38
40.02
31.60
11.67
-15.35
-39.74
-50.64
-41.78
-15.45
17.59
42.66
48.18
31.66
1.14
-28.76
-44.56
-41.05
-23.69
-4.71
4.46
0.06
-12.31
-22.04
-20.80
-8.19
8.45
19.17
17.92
6.12
-8.56
-17.42
-15.90
-5.98
5.99
13.77
14.74
10.99
7.15
7.44
13.46
23.64
34.70
43.53
48.66
50.04
48.04
42.31
31.55
14.30
-9.59
-37.69
-64.87
-84.86
-93.87
-89.89
-75.83
-57.55
-40.14
-24.80
-8.62
12.61
40.68
72.14
100.59
120.46
131.05
136.58
142.78
152.44
163.13
168.51
160.97
135.47
91.30
32.05
-36.19
-106.47
-172.44
-229.12
-268.04
-283.87
-278.02
-259.07
-237.36
-218.51
-201.07
-179.15
-147.20
-103.68
-53.01
-3.17
37.77
65.10
78.68
82.39
81.96
82.32
85.20
87.73
84.49
71.21
47.30
16.28
-15.96
-43.97
-64.46
-76.48
-80.53
-76.63
-63.83
-41.51
-11.52
20.73
47.91
64.10
67.65
61.66
52.42
46.03
46.39
53.13
62.31
69.30
71.64
70.13
67.63
66.91
68.56
70.52
69.30
62.40
49.86
34.45
20.09
10.06
5.62
5.96
9.20
13.04
15.27
13.30
4.15
-15.18
-45.77
-85.17
-126.31
-158.67
-171.83
-159.50
-122.63
-69.60
-14.28
28.85
49.57
45.50
22.65
-7.45
-32.07
-41.62
-31.98
-4.91
33.83
76.71
116.09
145.19
159.61
158.29
143.18
117.98
86.25
50.33
10.73
-31.76
-74.56
-112.96
-140.72
-152.75
-146.29
-123.59
-91.61
-59.29
-33.81
-17.67
-8.94
-1.58
11.54
34.88
67.44
103.29
134.68
154.91
160.03
149.20
124.32
88.00
44.05
-1.71
-43.08
-75.13
-95.26
-103.53
-102.17
-94.79
-85.54
-77.96
-73.91
-73.05
-73.15
-71.42
-66.30
-58.37
-50.01
-43.98
-42.20
-45.00
-50.92
-56.84
-58.41
-51.10
-31.98
-2.00
32.98
63.40
79.66
77.34
60.41
40.02
29.38
37.22
63.67
100.87
136.73
160.07
164.07
147.42
114.12
72.21
32.54
3.33
-10.46
-9.87
-2.09
3.11
-0.89
-13.57
-27.74
-34.63
-30.21
-17.78
-5.94
-2.49
-8.81
-19.12
-24.79
-20.56
-8.83
1.52
0.93
-15.10
-42.90
-72.17
-91.65
-95.00
-83.53
-64.39
-46.60
-36.62
-36.30
-43.04
-51.79
-57.43
-56.57
-48.38
-34.71
-19.16
-5.62
2.94
5.37
3.00
-0.59
-1.04
5.47
20.48
42.13
65.97
86.50
99.22
102.31
96.77
85.72
73.39
63.69
59.00
59.26
61.27
59.10
46.58
20.32
-17.70
-59.55
-93.41
-108.06
-97.61
-64.70
-20.44
20.07
43.54
43.81
23.98
-5.56
-31.71
-43.76
-36.79
-15.17
10.42
28.38
31.69
19.92
-1.26
-23.02
-37.02
-38.79
-29.93
-15.73
-2.84
3.19
-0.67
-14.07
-33.78
-54.53
-70.58
-77.31
-71.79
-54.13
-27.74
0.54
22.57
30.57
22.02
1.51
-22.50
-42.23
-53.73
-56.32
-51.04
-38.32
-17.92
9.60
41.22
71.01
93.72
105.79
108.03
104.33
99.95
99.06
102.99
109.95
115.39
113.90
98.34
67.83
26.14
-18.63
-56.36
-78.63
-82.60
-72.37
-57.05
-46.03
-43.85
-48.98
-55.24
-55.78
-46.93
-30.04
-10.36
5.95
14.66
15.52
11.34
5.93
2.35
1.41
1.89
1.12
-2.65
-9.40
-17.34
-24.08
-27.94
-28.31
-25.37
-19.62
-11.83
-3.38
3.59
6.98
5.76
1.05
-4.23
-7.10
-6.22
-2.53
1.72
4.70
6.23
7.33
8.88
10.46
10.58
8.06
3.51
-0.92
-2.75
-1.03
2.79
5.59
4.74
-0.55
-7.98
-12.85
-10.30
1.87
21.62
42.98
58.80
64.05
58.60
47.33
37.52
35.01
41.37
53.53
66.27
75.69
81.00
84.17
87.32
90.19
89.41
80.31
60.11
30.08
-4.29
-35.80
-58.79
-71.30
-75.22
-74.67
-73.69
-74.73
-78.01
-81.98
-84.16
-81.91
-73.40
-58.63
-40.05
-22.23
-10.30
-7.66
-14.31
-26.53
-38.54
-45.10
-43.77
-35.49
-23.48
-11.34
-1.12
7.11
14.76
23.39
33.71
45.22
56.62
66.12
71.92
72.56
66.95
54.81
37.40
17.82
0.70
-9.06
-7.90
5.11
27.66
54.58
79.10
94.40
95.38
80.00
49.81
9.53
-34.29
-75.11
-108.05
-130.70
-142.99
-146.56
-143.71
-136.79
-127.97
-118.99
-111.15
-104.99
-99.82
-94.39
-87.63
-79.36
-70.50
-62.53
-56.36
-52.18
-49.54
-47.85
-46.53
-45.13
-43.22
-40.49
-36.77
-32.02
-27.11
-23.66
-23.17
-25.48
-27.86
-25.33
-12.45
14.19
53.99
100.99
145.72
179.01
195.26
193.89
177.79
150.89
113.89
69.47
23.67
-14.29
-35.24
-34.90
-16.44
10.64
35.09
48.76
49.92
42.37
32.42
25.90
26.28
34.64
49.54
67.66
83.65
91.31
86.27
66.11
32.09
-11.28
-58.17
-103.98
-145.06
-177.98
-198.59
-202.12
-185.23
-148.03
-95.94
-36.82
16.62
54.69
74.70
80.91
80.81
80.54
82.57
85.90
88.58
89.53
89.61
89.49
87.92
81.71
67.62
45.08
17.31
-10.30
-33.68
-51.71
-65.60
-76.88
-85.09
-87.28
-79.96
-62.20
-37.53
-13.08
4.09
10.29
6.67
-1.77
-8.90
-10.12
-4.12
7.21
20.04
30.53
36.52
37.90
36.04
32.66
28.51
22.85
14.31
3.02
-8.65
-16.85
-18.71
-14.50
-7.80
-3.21
-3.26
-6.49
-8.39
-4.81
4.60
15.30
20.07
13.52
-4.33
-27.37
-46.29
-53.28
-45.97
-28.11
-7.32
9.03
17.33
18.49
16.07
13.49
12.16
11.41
10.15
8.04
5.42
2.71
-0.56
-5.43
-12.29
-19.38
-22.80
-17.82
-1.23
27.23
64.23
103.36
137.19
159.45
166.45
157.58
135.23
105.78
74.02
43.76
17.09
-5.84
-26.39
-46.25
-66.48
-85.64
-101.72
-113.31
-119.95
-122.30
-121.27
-117.18
-109.64
-98.29
-83.64
-67.58
-53.16
-42.88
-37.82
-37.26
-38.91
-39.94
-38.23
-33.18
-26.06
-19.48
-15.93
-16.67
-21.18
-27.28
-32.26
-33.92
-31.59
-26.37
-20.66
-17.02
-17.47
-22.99
-33.05
-45.16
-54.81
-56.37
-45.00
-19.02
18.58
60.66
98.52
125.60
139.87
143.93
142.85
141.06
140.40
140.24
139.22
136.36
131.12
122.91
111.12
95.92
79.35
64.76
54.56
48.25
42.07
30.29
9.52
-18.90
-49.16
-74.08
-89.08
-94.76
-95.93
-98.23
-104.91
-115.65
-127.26
-137.57
-145.11
-148.65
-146.48
-136.41
-116.70
-87.98
-53.76
-19.78
8.31
27.27
37.01
39.75
38.40
35.15
31.05
26.69
22.69
20.01
19.61
21.61
24.98
28.01
29.21
27.82
24.36
20.22
16.96
15.71
16.67
19.06
21.56
22.96
22.67
20.95
18.72
17.09
16.90
18.28
20.70
23.24
25.06
25.77
25.64
25.38
25.78
27.36
30.08
33.42
36.68
39.34
41.36
43.22
45.42
48.35
51.95
55.87
59.94
64.42
69.87
76.33
82.66
86.64
86.20
80.62
71.28
60.81
51.14
41.90
30.35
13.30
-10.32
-37.86
-63.90
-83.01
-92.95
-95.61
-95.13
-94.69
-93.99
-89.42
-76.86
-55.07
-27.27
0.08
20.27
29.61
28.53
20.36
9.00
-3.24
-16.26
-30.89
-47.61
-65.75
-83.62
-99.68
-113.96
-127.99
-143.82
-162.02
-179.88
-191.23
-188.67
-167.39
-128.66
-80.49
-34.87
-2.50
12.19
12.69
7.89
6.83
13.94
27.32
40.98
48.95
48.81
42.59
34.87
29.87
29.53
33.41
39.73
46.70
52.87
56.68
56.17
49.66
36.75
19.73
3.68
-5.03
-1.36
15.71
42.09
69.85
90.24
97.13
89.24
70.15
46.10
23.44
6.39
-3.80
-8.20
-9.08
-9.03
-10.80
-17.04
-29.66
-48.40
-69.90
-88.12
-96.38
-90.27
-69.92
-40.09
-8.16
18.55
35.45
41.55
38.77
30.71
21.69
16.13
17.91
29.37
50.18
76.81
103.10
121.94
127.70
117.84
93.84
60.57
24.69
-7.12
-29.86
-41.39
-42.73
-37.49
-30.57
-26.38
-27.21
-32.29
-38.10
-39.88
-33.91
-19.52
0.06
18.44
28.66
26.23
11.47
-10.28
-30.70
-41.96
-40.00
-26.20
-6.45
11.65
22.28
23.57
17.78
9.25
1.63
-4.14
-9.88
-18.27
-30.36
-44.16
-55.43
-60.15
-57.18
-49.46
-42.52
-41.34
-47.27
-57.11
-64.90
-65.54
-57.96
-45.93
-35.91
-33.42
-39.88
-51.62
-61.60
-62.86
-51.68
-29.02
0.43
30.66
57.03
77.68
93.24
105.09
113.39
116.15
110.16
93.44
67.85
39.88
18.59
11.34
19.60
37.64
55.27
63.42
59.14
47.08
36.29
34.49
43.25
56.97
66.17
62.95
45.16
17.03
-13.71
-40.05
-58.86
-71.20
-80.29
-88.65
-96.35
-101.12
-100.00
-91.31
-75.79
-56.32
-36.64
-19.67
-6.56
3.42
11.97
20.67
30.05
39.41
47.17
51.82
52.62
49.95
45.16
39.91
35.48
32.39
30.30
28.43
25.97
22.56
18.37
13.96
9.98
6.86
4.69
3.20
2.02
0.81
-0.55
-2.01
-3.43
-4.65
-5.57
-6.23
-6.67
-6.98
-7.20
-7.35
-7.45
-7.54
-7.65
-7.79
-7.95
-8.08
-8.12
-8.03
-7.80
-7.49
-7.16
-6.90
-6.71
-6.59
-6.51
-6.45
-6.38
-6.22
-5.79
-5.01
-3.88
-2.57
-1.39
-0.65
-0.52
-0.93
-1.61
-2.23
-2.58
-2.63
-2.49
-2.33
-2.23
-2.18
-2.09
-1.89
-1.63
-1.36
-1.19
-1.15
-1.22
-1.33
-1.39
-1.35
-1.20
-1.00
-0.81
-0.70
-0.69
-0.75
-0.83
-0.88
-0.86
-0.77
-0.65
-0.55
-0.47
-0.46
-0.49
-0.53
-0.56
-0.55
-0.50
-0.44
-0.39
-0.35
-0.34
-0.35
-0.36
-0.36
-0.36
-0.34
-0.32
-0.29
-0.27
-0.26
-0.25
-0.25
-0.25
-0.24
-0.24
-0.23
-0.22
-0.21
-0.21
-0.21
-0.20
-0.20
-0.19
-0.18
-0.18
-0.18
-0.17
-0.17
-0.17
-0.16
-0.16
-0.15
-0.15
-0.14
-0.15
-0.14
-0.13
-0.14
-0.13
-0.13
-0.13
-0.12
-0.12
-0.12
-0.11
-0.10
-0.08
-0.06
-0.02
0.01
0.06
0.12
0.18
0.25
0.33
0.41
0.50
0.58
0.67
0.76
0.85
0.95
1.05
1.15
1.26
1.38
1.51
1.66
1.81
1.99
2.18
2.40
2.64
2.91
3.22
3.56
3.93
4.35
4.81
5.32
5.89
6.50
7.18
7.92
8.72
9.58
10.51
11.52
12.58
13.75
14.98
16.29
17.71
19.17
20.73
22.35
24.06
25.88
27.80
29.83
31.98
34.25
36.56
38.86
41.06
43.00
44.49
45.29
45.19
43.96
41.46
37.50
32.07
25.30
17.38
8.62
-0.58
-9.78
-18.52
-26.02
-32.26
-37.11
-40.51
-42.54
-43.35
-43.14
-42.10
-40.65
-38.73
-36.59
-34.33
-32.10
-30.03
-28.16
-26.52
-25.04
-23.59
-22.03
-20.39
-18.72
-17.16
-15.87
-14.99
-14.47
-14.13
-13.77
-13.11
-12.13
-10.98
-9.96
-9.42
-9.59
-10.40
-11.53
-12.50
-12.86
-12.50
-11.68
-10.91
-10.85
-11.87
-13.93
-16.49
-18.81
-20.22
-20.43
-19.77
-18.88
-18.59
-19.52
-22.07
-26.30
-31.79
-37.46
-41.50
-41.78
-36.71
-26.09
-11.63
3.51
15.91
23.28
25.32
23.59
20.44
17.68
16.03
14.97
13.33
9.78
3.45
-5.81
-17.25
-29.23
-39.57
-46.30
-48.50
-46.78
-43.07
-39.81
-38.91
-40.95
-45.02
-49.57
-53.09
-54.54
-53.70
-50.60
-45.12
-36.96
-26.64
-15.22
-4.94
2.01
4.98
5.85
8.53
16.84
32.19
52.31
72.02
85.49
89.13
82.97
69.95
53.94
37.72
22.26
7.15
-7.54
-21.08
-31.87
-38.23
-39.41
-35.74
-28.28
-18.53
-7.59
4.00
16.21
29.17
42.78
56.38
68.88
79.13
86.11
89.50
89.58
87.11
83.09
78.19
72.76
66.82
60.24
52.97
45.25
37.57
30.49
24.63
20.06
16.40
12.98
9.01
3.71
-3.28
-12.25
-23.48
-35.91
-48.55
-60.33
-70.13
-76.93
-79.84
-77.94
-70.99
-59.51
-43.40
-23.32
-0.32
24.20
48.72
71.63
91.58
107.07
116.98
120.75
118.18
109.56
95.64
77.57
55.30
31.54
8.47
-12.42
-30.16
-44.43
-55.31
-63.11
-68.29
-71.35
-72.67
-72.93
-72.74
-72.43
-72.29
-72.44
-72.97
-73.85
-75.03
-76.25
-77.58
-79.07
-80.67
-82.34
-83.98
-85.43
-86.60
-87.31
-87.39
-86.80
-85.55
-83.59
-80.79
-77.06
-72.20
-66.34
-58.94
-49.60
-38.21
-24.89
-10.02
5.76
21.63
36.56
49.44
59.36
65.81
68.55
67.57
63.21
56.15
47.33
37.81
28.43
20.28
14.62
12.13
12.95
16.58
22.02
27.90
32.66
34.23
31.44
24.41
13.50
-0.69
-17.39
-35.59
-54.08
-71.57
-87.65
-100.77
-108.53
-109.27
-102.23
-87.51
-65.83
-38.33
-6.23
28.31
58.47
80.95
94.03
97.39
91.71
78.08
57.75
38.38
19.17
-0.47
-19.41
-36.65
-51.48
-63.66
-73.27
-80.16
-83.73
-89.10
-96.87
-104.41
-109.33
-110.29
-107.44
-102.15
-95.99
-90.40
-88.21
-88.93
-88.74
-84.28
-73.59
-56.67
-35.17
-10.77
15.04
39.22
62.49
89.38
123.71
167.32
219.37
276.78
336.54
395.90
450.63
481.00
473.41
422.27
333.28
220.58
99.66
-16.81
-108.13
-177.31
-229.14
-264.41
-282.90
-284.89
-271.82
-253.32
-235.20
-221.05
-214.31
-213.85
-215.03
-213.68
-207.66
-197.35
-184.82
-171.09
-156.17
-140.50
-121.95
-97.48
-65.84
-28.84
9.08
42.58
68.23
85.21
94.39
99.39
104.53
113.51
127.39
144.37
160.28
170.77
172.59
164.43
148.93
131.91
123.01
130.68
158.45
202.22
250.60
288.30
301.62
284.32
240.07
184.92
138.03
113.97
117.32
142.60
179.05
216.74
250.51
280.57
314.82
360.30
419.72
490.54
567.43
646.13
725.42
806.63
859.18
858.55
791.06
660.93
486.98
291.99
94.98
-90.11
-252.97
-386.64
-483.25
-540.22
-561.50
-556.60
-537.20
-513.01
-489.58
-468.74
-450.66
-431.82
-409.64
-383.55
-355.07
-326.78
-300.69
-277.67
-257.66
-240.60
-224.45
-207.51
-189.08
-169.61
-150.26
-132.12
-115.75
-101.31
-88.94
-77.82
-67.01
-56.14
-45.35
-35.17
-26.19
-18.85
-13.48
-10.30
-9.62
-10.77
-13.44
-17.34
-22.19
-27.63
-33.25
-38.67
-42.70
-45.81
-47.94
-49.30
-49.99
-50.00
-49.30
-47.78
-45.42
-42.13
-39.04
-35.57
-31.85
-28.22
-24.94
-22.18
-19.87
-17.86
-15.76
-13.44
-10.40
-6.51
-1.71
4.07
10.94
18.98
27.95
38.19
48.25
57.01
63.21
65.88
64.63
59.76
52.13
42.42
31.73
20.44
8.61
-4.18
-18.42
-34.10
-50.56
-65.28
-77.63
-86.77
-92.56
-95.40
-96.27
-96.61
-98.19
-102.80
-111.49
-123.63
-135.62
-141.86
-136.57
-116.64
-83.96
-45.17
-9.04
16.89
29.51
31.06
27.17
24.02
26.26
35.42
50.84
70.00
88.87
102.34
105.32
94.10
67.46
29.99
-10.34
-43.79
-61.96
-60.33
-39.65
-5.49
33.58
68.81
93.93
106.46
107.96
102.47
94.44
87.09
81.60
77.62
74.83
72.70
71.22
70.68
71.15
72.32
73.78
74.76
74.70
73.36
70.89
67.77
64.70
62.56
61.40
61.23
62.10
64.12
67.16
70.05
70.29
64.60
50.37
27.26
-1.98
-32.02
-57.28
-74.10
-82.19
-84.43
-85.01
-86.89
-90.00
-91.24
-86.47
-73.45
-53.69
-32.56
-16.95
-11.90
-18.08
-31.30
-44.55
-51.73
-50.56
-43.02
-33.75
-27.20
-25.26
-27.09
-30.51
-33.88
-36.81
-39.31
-40.08
-36.16
-24.29
-2.90
25.65
55.53
79.60
92.63
93.71
86.49
77.49
72.80
74.99
82.38
91.53
99.56
105.42
109.52
112.14
113.45
112.85
109.98
104.66
98.22
92.80
90.43
92.34
98.54
108.14
119.71
132.12
144.14
155.52
166.46
177.07
186.86
194.62
198.58
196.29
190.42
181.76
171.15
159.18
145.98
131.07
113.79
93.75
71.13
46.89
21.59
-4.08
-29.97
-56.64
-85.11
-116.22
-150.05
-185.64
-221.23
-255.41
-287.06
-315.97
-342.92
-369.62
-398.44
-432.07
-472.64
-520.31
-572.30
-622.02
-660.36
-678.57
-671.65
-640.55
-591.89
-535.23
-479.27
-429.15
-385.45
-345.72
-306.94
-267.34
-226.86
-186.34
-146.26
-106.09
-64.60
-20.54
26.60
76.57
128.46
181.21
233.66
284.02
329.34
365.29
386.93
390.30
374.24
341.34
297.57
250.41
206.62
170.33
142.58
121.96
106.12
93.27
82.74
74.56
68.53
63.58
57.81
49.41
37.71
23.67
9.60
-1.83
-8.89
-11.70
-12.30
-13.71
-18.47
-27.39
-39.13
-50.96
-59.95
-64.18
-63.11
-57.13
-46.60
-31.16
-9.88
17.65
49.99
83.43
113.06
134.88
147.67
153.35
155.63
157.69
160.53
162.96
163.35
161.48
159.33
160.17
166.03
175.88
185.31
188.48
180.90
161.69
133.96
103.04
73.70
47.85
24.02
-1.31
-31.29
-66.72
-105.26
-142.10
-171.82
-190.27
-195.92
-190.13
-176.43
-159.40
-143.32
-131.30
-124.87
-124.31
-129.17
-138.81
-152.41
-168.71
-185.50
-199.37
-206.45
-203.57
-189.68
-166.37
-137.36
-106.98
-78.51
-53.25
-30.71
-9.42
12.06
34.75
59.55
87.71
120.71
159.41
202.88
247.68
288.38
319.24
336.44
339.63
331.95
318.25
302.72
287.07
270.35
250.28
225.30
195.96
165.05
136.36
112.85
95.35
82.37
70.98
58.27
42.57
24.02
4.06
-15.50
-33.38
-49.23
-63.37
-76.18
-87.58
-96.79
-102.71
-104.46
-101.82
-95.33
-86.00
-74.92
-62.95
-50.70
-38.75
-27.79
-18.58
-11.72
-7.50
-5.74
-5.97
-7.55
-9.69
-11.40
-11.46
-8.66
-2.23
7.54
19.00
29.44
36.02
36.85
31.76
22.37
11.07
0.00
-9.83
-18.60
-27.04
-35.70
-44.68
-53.72
-62.55
-71.07
-79.06
-85.81
-89.98
-90.15
-85.70
-77.54
-68.00
-59.64
-53.80
-49.42
-43.36
-32.16
-14.19
8.90
32.75
52.46
65.25
71.97
76.45
83.01
93.79
107.55
120.51
128.69
130.09
125.27
116.35
105.54
94.10
82.46
71.39
62.28
56.64
55.02
55.95
56.17
52.24
42.78
29.80
18.04
12.62
15.98
26.32
38.01
43.95
38.29
18.38
-15.01
-58.41
-106.81
-154.43
-195.13
-223.22
-234.86
-229.52
-210.52
-184.04
-156.72
-133.15
-114.61
-99.21
-83.85
-65.91
-44.64
-21.08
2.72
24.64
43.18
57.40
67.71
75.60
82.87
90.98
100.66
112.30
125.98
141.30
155.95
166.92
171.31
167.45
155.87
139.82
124.35
113.94
109.94
108.35
102.94
88.42
62.48
26.36
-15.99
-59.66
-101.07
-139.33
-177.20
-216.43
-254.92
-286.73
-304.08
-300.87
-275.45
-232.31
-172.49
-107.50
-53.76
-21.73
-9.26
-5.73
-1.80
5.36
12.70
15.13
8.25
-6.94
-24.30
-35.98
-36.10
-22.60
2.53
34.22
65.89
89.58
99.56
93.94
71.83
38.33
3.19
-21.81
-26.88
-7.73
30.82
76.79
116.35
139.32
141.27
125.02
99.65
76.66
66.03
71.87
92.69
123.48
158.14
190.88
216.36
229.84
223.12
192.69
140.25
72.80
0.82
-65.55
-119.79
-160.74
-191.67
-217.86
-243.10
-268.88
-294.05
-315.78
-330.97
-337.49
-334.90
-324.49
-308.54
-288.45
-264.29
-234.47
-196.38
-148.17
-90.86
-29.41
27.97
72.69
99.65
109.26
107.30
102.17
100.84
106.03
115.98
126.46
133.57
135.73
133.20
126.77
116.63
102.39
84.33
64.36
45.63
31.02
21.29
14.35
6.28
-6.29
-24.50
-46.81
-69.78
-89.40
-102.22
-105.81
-99.01
-82.39
-58.75
-33.07
-11.37
1.26
2.70
-5.17
-17.33
-27.96
-33.05
-32.01
-27.68
-24.61
-27.09
-37.54
-55.72
-78.95
-102.76
-121.88
-131.70
-129.54
-115.33
-91.50
-62.19
-31.45
-1.94
25.54
51.37
75.94
98.40
116.60
127.90
130.37
123.63
109.02
89.01
66.70
45.47
28.60
18.69
16.64
20.46
25.04
23.16
7.79
-25.16
-75.17
-136.92
-201.68
-259.69
-302.82
-326.68
-331.75
-322.94
-307.59
-292.56
-281.60
-274.21
-266.62
-254.34
-234.64
-207.92
-176.96
-144.97
-114.02
-84.47
-55.99
-28.87
-4.75
14.32
26.99
33.72
37.04
40.54
47.48
59.53
76.37
96.29
117.39
138.24
158.22
177.43
196.39
215.72
235.83
256.65
277.32
296.56
312.40
322.90
326.92
324.84
318.50
310.30
302.39
296.07
292.79
293.01
296.06
300.35
304.06
305.98
305.73
304.15
302.24
302.64
306.43
312.76
319.93
327.13
335.19
344.95
356.54
367.64
377.84
385.79
389.69
387.78
379.27
364.53
343.68
317.72
287.29
257.82
233.83
217.06
205.86
197.17
188.50
177.57
164.34
120.44
34.06
-86.07
-213.99
-323.89
-402.76
-445.53
-465.36
-473.19
-476.94
-477.66
-476.63
-476.39
-480.87
-492.43
-509.39
-527.21
-538.60
-538.36
-521.75
-489.12
-445.49
-398.17
-353.07
-312.46
-276.40
-242.89
-211.15
-179.71
-148.55
-118.87
-92.54
-70.97
-54.37
-42.47
-33.80
-27.23
-20.80
-13.10
-3.61
7.08
17.75
27.00
33.32
35.82
33.98
28.40
20.50
12.29
5.96
3.63
6.75
15.49
28.51
42.89
55.01
61.83
62.29
57.86
52.09
49.07
51.67
60.43
73.46
87.58
99.74
108.09
112.13
112.17
108.69
102.09
93.17
83.48
75.42
71.46
72.93
79.01
86.75
92.06
91.56
84.41
72.58
60.46
53.18
54.57
65.72
84.28
104.82
120.04
123.18
110.30
82.19
44.65
6.54
-23.45
-40.22
-43.75
-40.14
-35.66
-35.34
-41.07
-51.53
-64.23
-77.03
-87.94
-94.58
-95.02
-89.33
-80.95
-75.90
-78.86
-89.71
-102.61
-109.01
-102.34
-81.63
-52.53
-21.56
5.58
25.74
37.98
42.15
38.02
25.79
7.41
-12.80
-29.33
-37.46
-34.98
-22.97
-5.34
12.49
25.83
32.10
31.30
25.53
18.37
13.96
15.56
23.93
36.95
50.43
59.98
62.19
55.16
40.51
23.41
10.60
7.25
14.06
26.93
38.68
40.66
24.55
-13.02
-68.18
-130.77
-187.79
-228.04
-245.54
-240.43
-210.86
-164.63
-115.61
-75.92
-49.41
-32.26
-18.86
-9.26
-2.66
0.88
0.21
-4.37
-11.23
-19.15
-27.21
-37.46
-52.51
-71.72
-91.01
-104.61
-106.16
-90.93
-57.92
-10.92
43.94
94.26
128.92
143.25
139.24
122.06
96.81
67.87
39.52
16.00
1.39
-0.45
11.44
33.68
59.01
77.70
80.73
62.83
25.08
-24.19
-70.79
-100.41
-103.73
-80.84
-42.76
-6.95
10.56
2.68
-25.72
-60.45
-85.65
-91.64
-78.91
-56.07
-33.73
-18.51
-10.44
-4.68
4.53
19.99
40.00
59.42
72.99
78.27
76.68
72.06
68.24
67.65
71.28
79.63
93.64
114.37
141.51
171.75
198.30
212.63
207.59
180.38
133.63
74.14
10.26
-50.55
-102.83
-143.12
-169.32
-180.51
-177.46
-163.19
-142.86
-122.45
-106.72
-97.22
-91.69
-85.05
-71.75
-48.54
-16.22
20.14
52.74
73.75
77.72
62.84
30.84
-13.97
-65.60
-117.07
-160.96
-190.29
-200.10
-189.05
-160.17
-120.02
-76.31
-35.36
-0.24
29.15
54.81
79.02
103.76
130.91
162.55
200.42
244.43
291.18
333.65
363.16
372.30
357.88
322.33
272.56
217.28
163.94
117.06
77.99
45.85
18.73
-5.99
-31.62
-62.08
-100.75
-148.50
-201.31
-249.75
-280.85
-282.89
-251.13
-191.43
-119.59
-55.93
-17.63
-11.91
-34.16
-70.68
-105.51
-127.23
-132.45
-125.10
-112.08
-99.32
-88.66
-78.60
-65.88
-48.34
-26.61
-3.66
16.77
32.19
41.88
47.53
51.16
54.92
60.13
67.29
76.73
88.92
104.98
125.48
151.17
174.63
187.01
181.99
160.15
128.35
94.70
69.20
51.55
39.45
29.89
20.88
11.65
0.80
-11.17
-23.00
-33.43
-42.39
-49.80
-56.24
-61.68
-65.68
-68.17
-70.17
-74.49
-84.64
-103.66
-131.63
-166.04
-202.32
-235.57
-262.31
-280.99
-291.99
-296.59
-296.52
-293.09
-287.83
-282.13
-276.72
-271.12
-263.32
-250.73
-231.45
-205.62
-175.34
-144.29
-116.13
-93.15
-75.65
-62.24
-50.97
-40.18
-29.05
-17.25
-4.71
8.77
23.57
40.18
58.96
80.04
103.34
128.87
156.86
187.50
220.41
254.06
285.46
310.75
326.36
330.37
323.38
308.23
288.84
268.69
249.78
232.42
216.01
199.98
184.37
169.80
156.93
145.88
136.11
126.64
116.57
105.36
92.92
79.49
65.44
51.26
37.46
24.69
13.55
4.56
-1.94
-5.83
-7.22
-6.47
-4.15
-0.97
2.30
4.99
6.69
7.27
6.79
5.34
3.08
0.23
-2.93
-6.04
-8.84
-11.25
-13.28
-14.91
-15.96
-16.05
-14.83
-12.24
-8.67
-4.92
-1.89
-0.21
0.00
-0.85
-2.11
-3.10
-3.44
-3.08
-2.25
-1.31
-0.54
-0.08
0.12
0.13
-0.02
-0.49
-1.44
-3.01
-5.16
-7.62
-9.97
-11.81
-12.89
-13.19
-12.97
-12.63
-12.54
-12.95
-13.84
-15.03
-16.18
-17.02
-17.38
-17.30
-16.89
-16.23
-15.33
-14.08
-12.44
-10.48
-8.51
-6.92
-6.07
-6.09
-6.82
-7.89
-8.85
-9.39
-9.36
-8.87
-8.11
-7.29
-6.53
-5.90
-5.44
-5.20
-5.28
-5.74
-6.55
-7.61
-8.72
-9.69
-10.35
-10.59
-10.40
-9.78
-8.81
-7.59
-6.32
-5.21
-4.40
-3.92
-3.68
-3.48
-3.20
-2.83
-2.53
-2.54
-3.08
-4.24
-5.85
-7.55
-8.91
-9.59
-9.43
-8.54
-7.19
-5.76
-4.60
-4.00
-4.13
-5.05
-6.67
-8.72
-10.77
-12.27
-12.81
-12.18
-10.52
-8.22
-5.81
-3.75
-2.27
-1.44
-1.14
-1.23
-1.56
-2.04
-2.58
-3.07
-3.40
-3.47
-3.29
-2.97
-2.72
-2.73
-3.13
-3.91
-4.97
-6.18
-7.43
-8.66
-9.84
-10.88
-11.60
-11.77
-11.23
-9.97
-8.17
-6.13
-4.15
-2.41
-0.98
0.23
1.33
2.34
3.20
3.77
3.94
3.66
3.04
2.30
1.64
1.21
0.97
0.78
0.46
-0.08
-0.83
-1.65
-2.46
-3.23
-4.01
-4.88
-5.79
-6.58
-7.01
-6.89
-6.17
-4.95
-3.48
-2.01
-0.71
0.32
1.01
1.32
1.21
0.68
-0.16
-1.15
-2.09
-2.83
-3.28
-3.48
-3.47
-3.34
-3.16
-2.98
-2.92
-3.07
-3.49
-4.13
-4.80
-5.24
-5.22
-4.62
-3.49
-1.98
-0.32
1.36
2.99
4.55
5.94
6.98
7.45
7.19
6.26
4.91
3.55
2.55
2.11
2.20
2.58
2.93
2.98
2.64
1.94
1.01
-0.02
-1.05
-2.06
-3.04
-3.92
-4.61
-4.95
-4.83
-4.17
-3.06
-1.69
-0.29
0.95
1.92
2.62
3.05
3.25
3.24
3.04
2.69
2.29
1.94
1.76
1.76
1.88
2.00
2.02
1.92
1.70
1.42
1.07
0.60
-0.05
-0.90
-1.90
-2.88
-3.65
-4.07
-4.08
-3.74
-3.19
-2.57
-1.95
-1.39
-0.92
-0.57
-0.38
-0.40
-0.65
-1.06
-1.49
-1.76
-1.74
-1.40
-0.82
-0.18
0.35
0.61
0.51
0.06
-0.73
-1.82
-3.15
-4.63
-6.16
-7.63
-8.92
-9.95
-10.64
-10.97
-10.91
-10.44
-9.49
-7.95
-5.80
-3.08
-0.08
2.77
5.01
6.28
6.53
6.02
5.13
4.18
3.29
2.35
1.26
0.09
-0.81
-1.01
-0.29
1.20
2.87
4.02
4.15
3.23
1.70
0.30
-0.34
0.06
1.38
3.22
5.11
6.69
7.76
8.30
8.34
7.96
7.22
6.23
5.14
4.12
3.33
2.88
2.79
2.96
3.28
3.64
3.97
4.23
4.36
4.27
3.86
3.04
1.79
0.21
-1.54
-3.26
-4.79
-5.95
-6.62
-6.64
-5.92
-4.51
-2.57
-0.45
1.50
2.96
3.79
4.02
3.76
3.17
2.36
1.43
0.49
-0.35
-0.99
-1.38
-1.57
-1.68
-1.85
-2.18
-2.70
-3.40
-4.27
-5.28
-6.35
-7.33
-7.98
-8.05
-7.40
-6.02
-4.15
-2.19
-0.55
0.42
0.68
0.40
-0.08
-0.41
-0.38
-0.00
0.48
0.76
0.56
-0.18
-1.30
-2.49
-3.38
-3.73
-3.50
-2.84
-2.00
-1.27
-0.87
-0.88
-1.27
-1.90
-2.61
-3.20
-3.49
-3.39
-2.81
-1.81
-0.48
0.96
2.23
3.04
3.19
2.65
1.61
0.41
-0.60
-1.17
-1.31
-1.16
-0.98
-0.93
-1.07
-1.36
-1.74
-2.14
-2.59
-3.12
-3.74
-4.45
-5.17
-5.79
-6.17
-6.21
-5.87
-5.18
-4.24
-3.15
-2.01
-0.87
0.24
1.29
2.19
2.89
3.35
3.60
3.70
3.71
3.62
3.39
2.97
2.40
1.79
1.26
0.90
0.65
0.38
-0.03
-0.65
-1.41
-2.20
-2.92
-3.54
-4.10
-4.63
-5.14
-5.57
-5.80
-5.66
-5.09
-4.05
-2.65
-1.08
0.42
1.60
2.29
2.44
2.15
1.57
0.90
0.27
-0.24
-0.62
-0.89
-1.09
-1.22
-1.27
-1.18
-0.93
-0.51
-0.02
0.36
0.40
-0.03
-0.94
-2.18
-3.47
-4.49
-4.91
-4.46
-3.02
-0.63
2.45
5.78
8.87
11.31
12.90
13.70
13.96
14.02
14.20
14.72
15.72
17.20
19.12
21.42
24.17
27.66
32.47
39.35
48.92
61.36
76.09
91.74
106.25
117.40
123.21
122.44
114.92
101.74
85.10
67.99
53.42
43.78
40.37
43.27
51.70
64.53
80.71
99.64
121.08
144.94
170.90
197.96
224.22
246.93
262.91
269.32
264.62
249.08
224.82
195.08
163.24
131.94
102.85
76.87
54.53
36.30
22.35
12.27
4.65
-2.72
-12.33
-26.11
-44.74
-67.68
-93.48
-120.60
-148.06
-175.73
-204.20
-234.49
-267.72
-304.84
-346.15
-390.63
-435.23
-474.83
-503.16
-514.64
-506.62
-480.70
-442.58
-400.21
-361.13
-330.28
-309.29
-297.26
-292.29
-292.83
-297.86
-306.09
-315.10
-321.24
-320.74
-311.30
-293.12
-268.86
-242.25
-216.21
-191.78
-168.19
-144.05
-118.59
-92.28
-66.42
-42.22
-20.07
0.54
20.45
40.15
59.56
78.29
96.11
113.34
130.90
150.18
172.56
198.89
228.93
260.99
291.99
318.12
335.90
343.27
340.32
329.08
312.61
293.86
274.80
256.23
238.29
221.05
204.89
190.33
177.70
166.72
156.61
146.41
135.47
123.74
111.75
100.12
89.17
78.72
68.32
57.62
46.76
36.47
27.77
21.57
18.12
16.90
16.78
16.62
15.76
14.20
12.37
10.75
9.54
8.31
6.34
2.88
-2.27
-8.49
-14.54
-19.00
-20.87
-19.85
-16.85
-13.48
-11.53
-12.08
-15.01
-19.33
-23.89
-27.91
-30.98
-33.11
-34.29
-34.65
-34.76
-35.88
-40.21
-50.41
-68.37
-91.18
-112.82
-125.63
-124.79
-111.19
-90.14
-67.35
-45.86
-25.43
-4.28
18.23
40.37
58.18
67.58
66.95
58.13
45.70
34.98
29.30
28.59
30.11
30.28
26.48
18.98
9.72
1.55
-2.16
1.38
13.02
30.76
49.59
63.37
67.62
62.27
51.64
43.90
45.70
57.80
74.88
89.18
96.13
97.46
99.57
108.81
127.61
152.50
175.48
188.55
186.48
169.20
140.08
105.01
70.09
40.23
18.16
3.17
-8.12
-21.66
-40.28
-66.16
-98.24
-131.86
-160.83
-180.16
-189.66
-192.51
-193.39
-194.09
-193.28
-187.82
-176.25
-161.47
-149.50
-147.84
-151.83
-153.14
-141.33
-110.40
-62.18
-4.99
45.33
83.38
106.74
115.54
110.05
91.25
61.92
25.44
-13.39
-48.91
-74.99
-88.78
-90.26
-82.90
-71.24
-59.41
-49.93
-43.46
-39.64
-37.67
-38.29
-42.31
-49.99
-59.39
-66.29
-65.65
-53.34
-27.89
8.82
50.90
90.90
121.71
138.80
141.33
131.28
112.55
89.57
65.88
42.93
20.55
-2.63
-27.86
-55.00
-80.42
-98.77
-105.01
-97.84
-81.48
-63.30
-50.19
-47.27
-51.92
-59.32
-64.65
-64.51
-57.68
-44.95
-27.04
-6.32
14.57
33.83
50.04
62.16
69.17
69.79
63.13
49.55
31.08
11.41
-4.94
-14.61
-16.36
-11.35
-2.82
4.96
8.18
4.53
-5.70
-19.55
-32.80
-41.37
-42.80
-37.00
-25.85
-11.97
2.27
15.56
27.52
37.85
46.02
51.24
52.85
50.78
45.79
39.13
32.09
25.52
19.47
13.48
7.04
0.16
-6.39
-11.22
-12.80
-10.04
-2.73
8.38
21.83
35.92
49.12
60.29
68.74
74.15
76.53
76.15
73.48
69.16
63.93
58.49
53.47
49.19
45.65
42.43
38.83
34.08
27.69
19.71
10.74
1.85
-5.83
-11.49
-14.85
-16.21
-16.20
-15.53
-14.80
-14.37
-14.40
-14.89
-15.75
-16.77
-17.64
-18.03
-17.61
-16.20
-13.82
-10.68
-7.21
-3.87
-1.15
0.61
1.30
1.08
0.30
-0.57
-1.11
-1.14
-0.74
-0.16
0.25
0.30
-0.01
-0.44
-0.73
-0.70
-0.35
0.12
0.46
0.45
0.06
-0.63
-1.44
-2.19
-2.83
-3.37
-3.95
-4.73
-5.89
-7.53
-9.66
-12.12
-14.60
-16.67
-17.94
-18.11
-17.08
-14.94
-11.95
-8.47
-4.92
-1.70
0.83
2.45
3.08
2.84
1.96
0.73
-0.59
-1.87
-3.01
-4.01
-4.82
-5.36
-5.52
-5.18
-4.23
-2.71
-0.78
1.24
2.95
3.97
4.06
3.20
1.60
-0.37
-2.30
-3.85
-4.80
-4.99
-4.37
-2.90
-0.63
2.28
5.55
8.81
11.66
13.82
15.18
15.86
16.11
16.25
16.60
17.36
18.54
19.92
21.15
21.83
21.72
20.89
19.78
19.13
19.62
21.68
25.22
29.62
33.94
37.21
38.68
38.00
35.21
30.63
24.80
18.32
11.81
5.80
0.70
-3.28
-6.16
-8.19
-9.77
-11.30
-13.05
-15.13
-17.45
-19.84
-22.07
-24.01
-25.56
-26.70
-27.44
-27.81
-27.86
-27.60
-26.97
-25.87
-24.20
-21.86
-18.88
-15.41
-11.70
-8.04
-4.69
-1.84
0.38
1.93
2.80
3.03
2.71
1.96
0.95
-0.17
-1.26
-2.17
-2.80
-3.09
-3.03
-2.66
-2.08
-1.41
-0.82
-0.49
-0.55
-1.03
-1.85
-2.79
-3.54
-3.75
-3.19
-1.75
0.44
3.06
5.69
7.95
9.57
10.51
10.90
10.94
10.80
10.50
9.98
9.20
8.13
6.86
5.51
4.20
3.01
2.03
1.40
1.27
1.76
2.85
4.35
5.99
7.48
8.68
9.66
10.62
11.87
13.63
15.99
18.87
22.05
25.14
27.70
29.31
29.66
28.64
26.43
23.35
19.80
16.08
12.35
8.59
4.74
0.74
-3.40
-7.54
-11.47
-14.94
-17.78
-19.94
-21.53
-22.82
-24.05
-25.36
-26.67
-27.77
-28.40
-28.36
-27.58
-26.07
-23.90
-21.16
-18.03
-14.88
-12.11
-10.06
-8.75
-7.85
-6.80
-5.17
-2.90
-0.40
1.80
3.32
4.23
4.92
5.83
7.06
8.25
8.81
8.29
6.72
4.74
3.33
3.35
5.21
8.61
12.67
16.23
18.22
17.97
15.37
10.84
5.19
-0.61
-5.66
-9.28
-11.10
-10.98
-9.01
-5.42
-0.53
5.18
11.08
16.50
20.86
23.84
25.52
26.34
26.92
27.77
29.04
30.50
31.65
31.99
31.30
29.72
27.75
26.03
25.13
25.38
26.80
29.21
32.29
35.69
39.07
41.99
43.89
44.12
42.08
37.46
30.45
21.74
12.43
3.65
-3.79
-9.70
-14.56
-19.36
-25.24
-33.08
-43.20
-55.26
-68.20
-80.48
-90.44
-96.68
-98.51
-95.88
-89.14
-78.59
-64.14
-45.35
-21.98
5.39
34.79
62.85
85.30
97.77
96.70
80.21
48.67
5.18
-44.54
-92.91
-131.97
-155.26
-159.57
-145.85
-118.95
-86.23
-55.55
-33.21
-22.59
-23.63
-33.30
-46.69
-58.37
-63.55
-59.04
-43.68
-18.49
13.45
47.56
78.71
102.55
116.81
122.12
121.69
119.96
120.87
126.28
135.47
145.63
153.08
154.63
148.57
135.00
115.74
93.73
72.30
54.42
42.02
35.62
34.39
36.55
39.97
42.79
43.71
42.02
37.50
30.22
20.57
9.13
-3.31
-15.82
-27.53
-37.74
-46.07
-52.48
-57.23
-60.75
-63.44
-65.54
-67.09
-68.05
-68.37
-68.08
-67.25
-65.92
-64.00
-61.27
-57.55
-52.82
-47.30
-41.46
-35.82
-30.81
-26.65
-23.34
-20.73
-18.64
-16.89
-15.35
-13.93
-12.59
-11.35
-10.26
-9.37
-8.61
-7.82
-6.75
-5.22
-3.19
-0.84
1.53
3.64
5.35
6.66
7.68
8.51
9.18
9.71
10.11
10.43
10.79
11.21
11.64
11.92
11.83
11.21
9.97
8.19
6.06
3.86
1.87
0.36
-0.47
-0.58
-0.01
1.04
2.34
3.70
5.04
6.43
7.98
9.71
11.51
13.11
14.19
14.58
14.32
13.59
12.62
11.51
10.20
8.57
6.61
4.48
2.53
1.07
0.28
0.07
0.17
0.23
0.04
-0.49
-1.29
-2.15
-2.87
-3.21
-3.03
-2.27
-0.96
0.73
2.55
4.23
5.51
6.13
5.85
4.51
2.06
-1.32
-5.24
-9.16
-12.55
-15.06
-16.63
-17.42
-17.74
-17.83
-17.81
-17.65
-17.28
-16.69
-15.97
-15.27
-14.69
-14.21
-13.69
-12.95
-11.88
-10.50
-8.94
-7.42
-6.13
-5.16
-4.56
-4.29
-4.29
-4.48
-4.73
-4.85
-4.69
-4.11
-3.08
-1.69
-0.06
1.64
3.23
4.61
5.70
6.43
6.74
6.55
5.83
4.64
3.13
1.53
0.10
-0.91
-1.35
-1.15
-0.40
0.68
1.82
2.75
3.28
3.42
3.34
3.29
3.45
3.84
4.33
4.67
4.69
4.37
3.81
3.17
2.53
1.86
1.05
-0.00
-1.32
-2.81
-4.31
-5.70
-6.97
-8.17
-9.38
-10.61
-11.76
-12.68
-13.21
-13.29
-12.97
-12.33
-11.43
-10.23
-8.63
-6.54
-4.00
-1.19
1.61
4.11
6.08
7.42
8.14
8.34
8.13
7.68
7.14
6.67
6.29
5.95
5.54
4.94
4.11
3.11
2.07
1.10
0.28
-0.36
-0.79
-0.95
-0.76
-0.13
0.97
2.49
4.23
5.96
7.41
8.39
8.80
8.71
8.27
7.64
7.00
6.39
5.82
5.21
4.48
3.58
2.55
1.45
0.39
-0.51
-1.18
-1.60
-1.86
-2.12
-2.55
-3.23
-4.08
-4.83
-5.15
-4.81
-3.83
-2.45
-1.02
0.15
0.94
1.43
1.83
2.28
2.77
3.17
3.29
3.05
2.49
1.83
1.33
1.13
1.27
1.61
1.95
2.13
2.10
1.87
1.51
1.07
0.57
-0.01
-0.66
-1.36
-2.06
-2.68
-3.16
-3.39
-3.29
-2.77
-1.82
-0.57
0.71
1.75
2.38
2.66
2.86
3.28
4.12
5.31
6.51
7.31
7.44
6.89
5.95
5.05
4.57
4.68
5.29
6.17
7.05
7.70
7.97
7.73
6.82
5.12
2.59
-0.54
-3.87
-6.82
-8.87
-9.75
-9.45
-8.20
-6.30
-4.03
-1.57
0.85
2.96
4.35
4.59
3.39
0.72
-3.09
-7.44
-11.62
-15.00
-17.24
-18.30
-18.38
-17.87
-17.14
-16.46
-15.98
-15.66
-15.42
-15.08
-14.47
-13.44
-11.95
-10.07
-7.92
-5.65
-3.40
-1.28
0.61
2.12
3.13
3.56
3.43
2.90
2.19
1.57
1.16
0.95
0.83
0.69
0.48
0.24
0.04
-0.09
-0.18
-0.29
-0.46
-0.66
-0.80
-0.78
-0.61
-0.37
-0.22
-0.26
-0.53
-0.92
-1.26
-1.41
-1.29
-0.85
-0.13
0.82
1.88
2.94
3.78
4.25
4.27
3.91
3.38
2.96
2.83
3.05
3.46
3.82
3.91
3.64
3.07
2.37
1.70
1.17
0.79
0.47
0.13
-0.28
-0.75
-1.22
-1.63
-1.91
-2.01
-1.87
-1.42
-0.62
0.49
1.74
2.92
3.79
4.21
4.23
3.96
3.58
3.16
2.67
2.02
1.18
0.27
-0.50
-0.91
-0.90
-0.60
-0.27
-0.17
-0.44
-1.06
-1.89
-2.76
-3.57
-4.24
-4.73
-4.96
-4.83
-4.29
-3.35
-2.14
-0.83
0.39
1.36
1.98
2.17
1.89
1.13
-0.03
-1.34
-2.38
-2.71
-1.98
-0.14
2.49
5.32
7.69
9.13
9.48
8.89
7.67
6.05
4.13
1.93
-0.51
-2.85
-4.57
-5.08
-4.00
-1.46
1.92
5.23
7.60
8.50
7.90
6.19
3.93
1.64
-0.38
-2.08
-3.48
-4.67
-5.68
-6.49
-7.06
-7.37
-7.44
-7.33
-7.13
-6.94
-6.85
-6.85
-6.90
-6.93
-6.90
-6.79
-6.58
-6.25
-5.77
-5.08
-4.19
-3.18
-2.18
-1.36
-0.81
-0.53
-0.43
-0.35
-0.19
0.09
0.43
0.72
0.86
0.79
0.50
0.08
-0.38
-0.81
-1.15
-1.39
-1.55
-1.71
-1.96
-2.37
-2.98
-3.74
-4.53
-5.16
-5.44
-5.30
-4.74
-3.88
-2.88
-1.86
-0.94
-0.21
0.30
0.55
0.57
0.42
0.20
-0.03
-0.21
-0.33
-0.42
-0.50
-0.62
-0.84
-1.18
-1.64
-2.13
-2.55
-2.79
-2.86
-2.86
-2.92
-3.15
-3.51
-3.83
-3.94
-3.67
-3.06
-2.27
-1.46
-0.80
-0.33
-0.04
0.09
0.03
-0.27
-0.84
-1.60
-2.32
-2.73
-2.54
-1.61
-0.02
1.99
4.07
5.91
7.21
7.80
7.56
6.49
4.68
2.40
0.02
-2.02
-3.31
-3.65
-3.14
-2.12
-1.04
-0.41
-0.50
-1.37
-2.86
-4.67
-6.52
-8.22
-9.69
-10.88
-11.76
-12.23
-12.14
-11.36
-9.79
-7.44
-4.39
-0.85
2.88
6.43
9.43
11.58
12.75
12.99
12.52
11.62
10.54
9.50
8.69
8.26
8.28
8.62
9.01
8.97
8.11
6.23
3.49
0.32
-2.77
-5.40
-7.41
-8.88
-9.95
-10.69
-11.04
-10.87
-10.13
-8.96
-7.63
-6.46
-5.65
-5.29
-5.23
-5.28
-5.23
-4.96
-4.45
-3.79
-3.16
-2.77
-2.87
-3.63
-5.13
-7.30
-9.93
-12.78
-15.63
-18.37
-21.02
-23.68
-26.46
-29.53
-33.06
-37.23
-42.20
-48.06
-54.76
-62.09
-69.95
-78.43
-87.88
-98.80
-111.54
-126.03
-141.62
-157.20
-171.41
-182.93
-190.86
-194.94
-195.57
-193.55
-189.62
-183.92
-175.80
-163.92
-146.90
-124.08
-95.93
-63.84
-29.57
5.25
39.29
71.05
98.72
120.41
135.06
143.18
147.05
149.91
154.48
161.82
171.21
181.05
190.17
198.51
206.85
215.78
224.73
231.82
234.71
231.76
222.83
209.20
192.80
175.51
158.56
142.64
128.24
115.86
106.05
99.15
95.02
93.02
92.19
91.48
89.97
86.98
82.16
75.46
67.19
58.04
48.94
40.89
34.78
31.31
30.83
33.21
37.81
43.48
48.84
52.66
54.28
53.76
51.73
48.95
45.73
41.71
35.89
27.29
15.44
0.69
-15.90
-32.95
-49.09
-63.14
-74.02
-80.85
-83.13
-81.15
-76.19
-70.36
-66.04
-65.06
-68.17
-74.93
-83.99
-93.45
-101.29
-105.54
-104.68
-97.96
-85.84
-70.10
-53.41
-38.55
-27.44
-20.59
-17.16
-15.61
-14.53
-13.15
-11.49
-9.98
-9.05
-8.81
-9.07
-9.60
-10.28
-11.13
-12.08
-12.76
-12.40
-10.03
-4.92
2.98
12.98
23.71
33.68
41.60
46.75
48.97
48.69
46.74
44.36
43.08
44.35
48.77
55.47
61.68
63.15
55.44
35.67
3.93
-36.34
-79.35
-118.85
-150.04
-170.58
-180.50
-181.15
-174.18
-161.01
-143.02
-121.96
-100.15
-80.01
-63.24
-50.18
-39.75
-30.12
-19.81
-8.42
3.15
13.29
20.47
23.91
23.86
21.27
17.33
13.01
8.83
4.99
1.50
-1.63
-4.34
-6.55
-8.23
-9.43
-10.24
-10.76
-11.05
-11.09
-10.84
-10.25
-9.32
-8.08
-6.64
-5.10
-3.58
-2.22
-1.15
-0.46
-0.16
-0.19
-0.39
-0.58
-0.59
-0.33
0.19
0.89
1.62
2.24
2.59
2.54
2.04
1.16
0.12
-0.74
-1.09
-0.77
0.13
1.36
2.57
3.52
4.10
4.32
4.23
3.87
3.25
2.50
1.83
1.52
1.82
2.75
4.14
5.63
6.86
7.60
7.79
7.49
6.84
5.99
5.04
4.06
3.07
2.05
0.91
-0.37
-1.76
-3.10
-4.12
-4.57
-4.28
-3.27
-1.68
0.26
2.35
4.44
6.42
8.19
9.63
10.59
10.96
10.70
9.90
8.69
7.25
5.76
4.37
3.20
2.29
1.63
1.13
0.68
0.20
-0.33
-0.88
-1.42
-1.98
-2.61
-3.32
-3.99
-4.37
-4.12
-2.98
-0.90
1.87
4.86
7.58
9.66
10.92
11.43
11.35
10.87
10.15
9.28
8.34
7.39
6.46
5.59
4.82
4.22
3.86
3.85
4.22
4.87
5.55
5.97
5.83
5.05
3.74
2.25
0.98
0.31
0.40
1.17
2.35
3.58
4.51
4.92
4.74
4.05
3.08
2.13
1.52
1.44
1.93
2.78
3.66
4.20
4.18
3.51
2.33
0.82
-0.81
-2.45
-4.06
-5.62
-7.11
-8.42
-9.38
-9.70
-9.02
-7.01
-3.52
1.31
6.94
12.47
16.85
19.20
19.09
16.78
13.10
9.23
6.33
5.16
5.92
8.30
11.60
15.03
17.93
19.92
20.94
21.23
21.12
20.95
20.83
20.61
19.97
18.56
16.26
13.32
10.38
8.29
7.86
9.54
13.14
17.70
21.55
22.65
19.22
10.43
-3.11
-19.28
-35.00
-47.18
-53.62
-53.56
-47.71
-37.65
-25.29
-12.35
-0.15
10.26
17.97
22.24
22.60
19.02
12.04
2.74
-7.53
-17.33
-25.50
-31.27
-34.29
-34.60
-32.46
-28.30
-22.62
-16.04
-9.28
-3.09
1.87
5.18
6.75
6.85
5.93
4.51
3.05
1.85
1.03
0.56
0.32
0.13
-0.19
-0.72
-1.41
-2.08
-2.51
-2.56
-2.22
-1.68
-1.21
-1.07
-1.35
-1.99
-2.75
-3.30
-3.34
-2.71
-1.40
0.40
2.38
4.21
5.61
6.46
6.83
6.87
6.76
6.59
6.29
5.70
4.65
3.02
0.84
-1.73
-4.39
-6.82
-8.73
-9.96
-10.48
-10.35
-9.67
-8.56
-7.18
-5.71
-4.45
-3.72
-3.81
-4.89
-6.89
-9.57
-12.45
-14.95
-16.41
-16.26
-14.17
-10.22
-4.95
0.75
5.86
9.54
11.30
11.06
9.05
5.67
1.42
-3.09
-7.20
-10.16
-11.34
-10.41
-7.53
-3.35
1.16
4.91
7.07
7.21
5.48
2.42
-1.19
-4.64
-7.43
-9.37
-10.48
-10.85
-10.51
-9.44
-7.65
-5.29
-2.66
-0.20
1.71
2.84
3.17
2.81
1.92
0.65
-0.87
-2.44
-3.80
-4.65
-4.73
-3.99
-2.61
-0.99
0.40
1.13
1.03
0.19
-1.05
-2.26
-3.05
-3.23
-2.81
-1.94
-0.83
0.40
1.72
3.14
4.63
6.08
7.27
8.00
8.08
7.52
6.44
5.11
3.78
2.67
1.82
1.22
0.80
0.51
0.32
0.19
-0.00
-0.41
-1.16
-2.26
-3.56
-4.79
-5.60
-5.78
-5.28
-4.20
-2.77
-1.24
0.15
1.24
1.92
2.17
2.05
1.67
1.14
0.61
0.17
-0.06
-0.02
0.33
0.99
1.90
2.98
4.10
5.14
5.93
6.24
5.82
4.51
2.31
-0.50
-3.37
-5.65
-6.73
-6.24
-4.19
-0.98
2.77
6.32
9.08
10.65
10.95
10.18
8.69
6.88
5.10
3.63
2.63
2.12
2.01
2.05
1.93
1.35
0.20
-1.41
-3.15
-4.64
-5.69
-6.37
-7.03
-8.04
-9.60
-11.58
-13.50
-14.75
-14.72
-12.95
-9.19
-3.40
4.24
13.35
23.29
33.21
42.11
49.05
53.24
54.21
51.87
46.48
38.59
29.03
18.80
8.92
0.37
-6.16
-10.31
-12.11
-11.90
-10.23
-7.74
-5.00
-2.47
-0.47
0.79
1.19
0.69
-0.70
-2.87
-5.65
-8.81
-12.11
-15.32
-18.28
-20.84
-22.85
-24.13
-24.45
-23.60
-21.46
-18.11
-13.86
-9.20
-4.75
-1.13
1.17
1.91
1.13
-0.80
-3.30
-5.71
-7.50
-8.36
-8.30
-7.56
-6.57
-5.84
-5.80
-6.77
-8.79
-11.66
-14.91
-17.97
-20.28
-21.42
-21.19
-19.61
-16.87
-13.24
-9.10
-4.86
-0.94
2.25
4.44
5.47
5.34
4.19
2.31
0.09
-2.01
-3.57
-4.30
-4.20
-3.48
-2.57
-1.88
-1.74
-2.26
-3.38
-4.91
-6.65
-8.37
-9.86
-10.88
-11.25
-10.84
-9.66
-7.89
-5.82
-3.80
-2.06
-0.69
0.36
1.15
1.66
1.68
0.90
-1.00
-4.16
-8.42
-13.27
-17.99
-21.92
-24.73
-26.51
-27.79
-29.23
-31.39
-34.45
-38.10
-41.76
-44.74
-46.56
-47.01
-46.22
-44.52
-42.49
-40.87
-40.50
-42.03
-45.60
-50.54
-55.28
-57.74
-56.02
-49.07
-37.05
-20.94
-1.82
20.05
45.36
75.15
109.41
145.90
179.74
204.25
212.96
201.67
169.70
119.83
57.18
-12.08
-81.66
-145.56
-198.21
-235.00
-253.23
-253.21
-238.77
-216.52
-193.77
-175.74
-163.74
-154.72
-142.85
-122.24
-89.26
-43.76
11.40
71.88
133.18
191.36
242.84
284.14
311.93
323.88
319.76
301.96
274.89
243.84
213.43
186.33
162.79
141.12
119.11
95.39
70.14
44.87
20.95
-2.29
-28.34
-62.13
-106.95
-161.03
-216.55
-262.01
-286.83
-286.07
-262.44
-224.61
-182.79
-144.61
-112.86
-85.04
-57.34
-27.39
4.55
36.04
64.00
86.49
103.39
116.24
127.32
138.27
149.42
159.67
167.29
171.18
171.84
171.47
173.13
179.26
190.26
204.38
218.53
229.81
236.73
239.73
240.65
241.67
244.14
247.83
250.77
249.89
241.94
224.75
197.94
163.35
124.52
85.67
50.16
19.39
-7.35
-32.18
-57.16
-83.35
-110.32
-136.77
-161.59
-184.68
-206.86
-228.66
-249.10
-264.84
-271.83
-267.32
-251.69
-228.14
-201.04
-173.83
-147.59
-121.87
-96.49
-74.63
-62.04
-63.87
-80.39
-105.50
-129.66
-143.95
-144.30
-131.60
-112.14
-93.25
-79.66
-71.47
-65.72
-60.69
-56.55
-54.87
-54.77
-55.40
-55.03
-51.96
-44.23
-30.97
-14.93
-0.82
6.15
4.78
-6.00
-26.06
-54.29
-87.08
-109.00
-107.30
-76.74
-39.42
-7.92
10.40
18.21
16.41
7.46
-4.57
-16.56
-25.86
-30.66
-27.38
-15.89
1.36
19.91
35.98
46.72
48.80
39.77
19.07
-8.85
-38.35
-63.17
-78.31
-80.25
-68.27
-45.62
-17.72
9.56
33.08
50.77
61.89
66.34
64.93
58.73
48.42
34.70
18.70
2.84
-10.48
-19.35
-22.87
-21.03
-14.85
-6.18
2.86
10.45
15.73
18.37
18.52
16.51
12.92
8.47
3.91
0.05
-2.47
-3.25
-2.26
0.14
3.36
6.74
9.71
11.98
13.46
14.25
14.52
14.39
13.93
13.22
12.40
11.76
11.63
12.33
13.94
16.31
19.04
21.65
23.69
24.88
25.11
24.41
22.93
20.88
18.53
16.22
14.25
12.86
12.07
11.81
11.86
12.03
12.19
12.29
12.35
12.42
12.53
12.67
12.80
12.87
12.89
12.95
13.25
14.07
15.68
18.24
21.72
25.88
30.31
34.57
38.28
41.22
43.38
44.95
46.28
47.78
49.81
52.59
56.12
60.11
63.93
66.65
67.17
64.52
58.17
48.42
36.34
23.51
11.44
1.06
-7.52
-14.83
-21.60
-28.22
-34.55
-40.12
-44.50
-47.75
-50.58
-54.04
-59.00
-65.62
-73.12
-80.11
-85.26
-87.90
-88.31
-87.56
-86.87
-87.03
-88.04
-89.17
-89.33
-87.62
-83.56
-77.16
-68.80
-59.00
-48.34
-37.48
-27.19
-18.37
-11.75
-7.51
-5.03
-2.90
0.59
6.68
15.41
25.65
35.60
43.72
49.50
53.45
56.51
59.17
61.02
61.09
58.75
54.51
50.26
48.67
51.93
60.67
73.44
87.14
98.11
103.44
102.02
94.84
84.56
74.45
67.34
64.66
66.10
69.76
72.79
72.32
66.27
54.03
36.53
16.01
-4.72
-23.04
-37.21
-46.64
-51.74
-53.45
-52.84
-50.76
-47.79
-44.36
-40.85
-37.54
-34.52
-31.68
-28.66
-25.17
-21.09
-16.69
-12.59
-9.51
-8.07
-8.46
-10.42
-13.26
-16.06
-18.04
-18.71
-18.05
-16.42
-14.32
-12.19
-10.17
-8.21
-6.15
-3.91
-1.63
0.36
1.72
2.25
1.97
1.17
0.19
-0.60
-1.01
-0.98
-0.60
0.06
0.87
1.79
2.76
3.70
4.49
4.97
5.04
4.68
4.06
3.48
3.27
3.70
4.83
6.48
8.33
10.00
11.24
11.92
12.14
12.06
11.92
11.88
11.97
12.14
12.24
12.17
11.88
11.44
11.01
10.75
10.72
10.87
11.01
10.91
10.45
9.67
8.69
7.75
6.99
6.45
6.07
5.74
5.31
4.55
3.18
0.91
-2.30
-6.09
-9.64
-11.88
-11.95
-9.58
-5.34
-0.40
3.92
6.68
7.57
6.87
5.12
2.83
0.28
-2.41
-5.15
-7.77
-10.01
-11.66
-12.67
-13.19
-13.56
-14.15
-15.18
-16.60
-18.10
-19.20
-19.44
-18.58
-16.71
-14.23
-11.67
-9.52
-8.05
-7.26
-6.91
-6.73
-6.50
-6.13
-5.69
-5.33
-5.22
-5.43
-5.96
-6.71
-7.49
-8.12
-8.47
-8.58
-8.58
-8.68
-9.05
-9.78
-10.85
-12.13
-13.42
-14.42
-14.79
-14.19
-12.41
-9.48
-5.76
-1.80
1.80
4.69
6.87
8.66
10.47
12.63
15.17
17.88
20.37
22.27
23.23
23.06
21.69
19.34
16.61
14.37
13.52
14.54
17.22
20.69
23.81
25.77
26.39
26.13
25.64
25.25
24.75
23.59
21.40
18.49
15.98
15.39
18.00
24.14
32.88
42.25
49.86
53.79
53.08
47.76
38.32
24.95
7.31
-15.16
-42.35
-72.85
-103.76
-131.40
-152.28
-163.76
-164.00
-151.60
-125.83
-87.64
-41.18
5.87
43.79
64.23
63.80
45.72
18.42
-8.30
-27.32
-36.38
-37.27
-33.12
-25.78
-14.93
0.74
21.47
45.20
67.88
85.18
94.23
94.52
87.56
75.87
61.79
46.94
32.16
17.88
4.41
-7.88
-18.50
-27.01
-33.11
-36.88
-38.79
-39.58
-39.97
-40.30
-40.29
-39.11
-35.77
-29.65
-20.91
-10.57
-0.25
8.37
14.05
16.29
15.42
12.34
8.20
4.05
0.70
-1.42
-2.19
-1.74
-0.37
1.48
3.35
4.79
5.48
5.30
4.26
2.56
0.45
-1.81
-3.99
-5.93
-7.45
-8.42
-8.76
-8.46
-7.57
-6.20
-4.45
-2.42
-0.18
2.16
4.50
6.67
8.47
9.73
10.33
10.25
9.59
8.48
7.13
5.72
4.42
3.33
2.47
1.81
1.28
0.85
0.53
0.33
0.27
0.32
0.38
0.29
-0.10
-0.89
-2.08
-3.50
-4.87
-5.84
-6.19
-5.84
-4.93
-3.67
-2.32
-1.05
0.03
0.85
1.31
1.36
1.00
0.33
-0.45
-1.13
-1.60
-1.82
-1.86
-1.79
-1.65
-1.47
-1.29
-1.22
-1.34
-1.75
-2.38
-3.14
-3.87
-4.49
-4.97
-5.34
-5.58
-5.55
-5.13
-4.22
-2.86
-1.22
0.45
1.93
3.10
3.94
4.50
4.83
4.97
4.90
4.68
4.38
4.07
3.79
3.54
3.26
2.88
2.35
1.71
1.00
0.32
-0.28
-0.80
-1.29
-1.86
-2.63
-3.65
-4.91
-6.22
-7.32
-7.91
-7.76
-6.78
-5.09
-2.95
-0.67
1.50
3.40
4.97
6.13
6.87
7.13
6.90
6.27
5.38
4.43
3.55
2.86
2.40
2.18
2.20
2.42
2.82
3.29
3.71
3.90
3.71
3.06
2.01
0.72
-0.53
-1.45
-1.82
-1.56
-0.76
0.41
1.70
2.88
3.79
4.29
4.38
4.08
3.51
2.81
2.12
1.51
0.96
0.41
-0.19
-0.83
-1.45
-1.97
-2.39
-2.78
-3.22
-3.73
-4.26
-4.68
-4.92
-4.92
-4.76
-4.52
-4.24
-3.87
-3.33
-2.54
-1.49
-0.24
1.13
2.55
3.98
5.34
6.56
7.54
8.23
8.64
8.84
8.94
9.00
9.04
9.04
8.96
8.85
8.78
8.85
9.11
9.53
9.99
10.29
10.28
9.87
9.12
8.18
7.31
6.76
6.69
7.15
8.04
9.15
10.24
11.10
11.60
11.69
11.32
10.46
9.11
7.30
5.19
2.99
0.98
-0.61
-1.64
-2.15
-2.28
-2.24
-2.24
-2.40
-2.79
-3.38
-4.15
-5.06
-6.09
-7.17
-8.18
-8.97
-9.36
-9.26
-8.68
-7.73
-6.59
-5.40
-4.29
-3.36
-2.69
-2.32
-2.29
-2.58
-3.07
-3.63
-4.13
-4.43
-4.46
-4.18
-3.62
-2.86
-2.01
-1.24
-0.65
-0.31
-0.24
-0.40
-0.76
-1.28
-1.91
-2.55
-3.09
-3.37
-3.32
-2.88
-2.16
-1.28
-0.44
0.16
0.39
0.22
-0.28
-0.97
-1.68
-2.28
-2.71
-3.01
-3.25
-3.44
-3.57
-3.54
-3.30
-2.85
-2.28
-1.76
-1.47
-1.56
-2.05
-2.85
-3.78
-4.62
-5.16
-5.30
-5.04
-4.48
-3.76
-2.95
-2.10
-1.20
-0.23
0.77
1.72
2.53
3.15
3.53
3.67
3.55
3.17
2.56
1.81
1.06
0.47
0.11
-0.09
-0.30
-0.74
-1.53
-2.68
-4.04
-5.36
-6.38
-6.86
-6.70
-5.88
-4.47
-2.61
-0.54
1.48
3.17
4.28
4.69
4.42
3.66
2.69
1.82
1.22
0.93
0.86
0.85
0.76
0.54
0.17
-0.36
-1.05
-1.88
-2.82
-3.79
-4.69
-5.46
-6.07
-6.52
-6.81
-6.94
-6.83
-6.40
-5.60
-4.46
-3.11
-1.76
-0.62
0.16
0.56
0.70
0.77
1.01
1.56
2.44
3.55
4.69
5.60
6.04
5.84
4.96
3.53
1.82
0.15
-1.15
-1.88
-2.03
-1.66
-0.87
0.27
1.73
3.46
5.34
7.16
8.65
9.59
9.92
9.83
9.62
9.65
10.09
10.89
11.74
12.30
12.39
12.05
11.51
11.01
10.60
10.14
9.39
8.23
6.80
5.47
4.60
4.35
4.55
4.83
4.81
4.29
3.36
2.38
1.67
1.50
1.88
2.65
3.55
4.32
4.79
4.87
4.51
3.68
2.36
0.60
-1.48
-3.66
-5.63
-7.14
-8.04
-8.36
-8.31
-8.12
-8.01
-8.06
-8.25
-8.52
-8.80
-9.11
-9.49
-9.96
-10.47
-10.89
-11.06
-10.87
-10.25
-9.29
-8.10
-6.81
-5.52
-4.27
-3.06
-1.93
-0.93
-0.18
0.24
0.29
0.00
-0.53
-1.14
-1.70
-2.11
-2.34
-2.45
-2.52
-2.63
-2.82
-3.10
-3.45
-3.86
-4.39
-5.05
-5.84
-6.65
-7.29
-7.56
-7.28
-6.41
-5.04
-3.39
-1.74
-0.33
0.69
1.32
1.64
1.81
1.92
2.03
2.15
2.25
2.34
2.42
2.49
2.50
2.37
2.00
1.42
0.72
0.09
-0.33
-0.47
-0.46
-0.47
-0.68
-1.16
-1.81
-2.41
-2.70
-2.43
-1.54
-0.11
1.63
3.35
4.76
5.69
6.08
5.98
5.53
4.91
4.29
3.82
3.60
3.64
3.83
4.03
4.05
3.82
3.40
3.01
2.84
3.05
3.63
4.37
5.02
5.36
5.32
5.01
4.63
4.41
4.47
4.83
5.41
6.12
6.92
7.71
8.44
8.94
9.03
8.60
7.66
6.39
5.06
3.92
3.09
2.56
2.21
1.91
1.60
1.31
1.10
0.99
0.95
0.84
0.58
0.12
-0.53
-1.31
-2.16
-3.08
-4.02
-4.91
-5.57
-5.80
-5.46
-4.58
-3.37
-2.19
-1.36
-1.05
-1.26
-1.82
-2.52
-3.23
-3.90
-4.56
-5.25
-5.95
-6.57
-7.02
-7.24
-7.24
-7.13
-7.06
-7.14
-7.39
-7.79
-8.24
-8.66
-9.03
-9.43
-9.89
-10.40
-10.83
-10.93
-10.49
-9.36
-7.60
-5.43
-3.18
-1.14
0.49
1.63
2.30
2.58
2.58
2.42
2.20
2.02
1.90
1.81
1.67
1.40
0.97
0.43
-0.11
-0.46
-0.53
-0.27
0.20
0.64
0.78
0.43
-0.41
-1.53
-2.58
-3.22
-3.25
-2.67
-1.64
-0.38
0.89
2.03
2.91
3.45
3.59
3.35
2.84
2.23
1.68
1.23
0.84
0.39
-0.21
-0.97
-1.80
-2.55
-3.08
-3.29
-3.11
-2.57
-1.79
-0.98
-0.44
-0.39
-0.88
-1.64
-2.16
-1.79
-0.08
3.03
7.13
11.47
15.24
17.89
19.21
19.38
18.78
17.85
16.97
16.45
16.53
17.35
18.84
20.69
22.34
23.12
22.44
20.02
16.01
10.93
5.48
0.43
-3.57
-6.09
-6.97
-6.27
-4.37
-1.88
0.43
1.77
1.55
-0.43
-3.93
-8.25
-12.50
-15.86
-17.76
-18.06
-17.00
-15.03
-12.66
-10.31
-8.26
-6.69
-5.75
-5.59
-6.28
-7.75
-9.67
-11.51
-12.64
-12.55
-11.07
-8.39
-5.09
-1.91
0.47
1.59
1.30
-0.19
-2.49
-5.08
-7.48
-9.32
-10.37
-10.55
-9.90
-8.57
-6.76
-4.74
-2.79
-1.20
-0.14
0.38
0.50
0.45
0.46
0.64
0.93
1.17
1.20
0.96
0.54
0.08
-0.25
-0.41
-0.45
-0.43
-0.38
-0.27
-0.05
0.24
0.48
0.51
0.23
-0.30
-0.90
-1.31
-1.33
-0.89
-0.07
0.96
2.03
3.02
3.86
4.52
4.94
5.09
4.97
4.65
4.23
3.85
3.57
3.40
3.24
2.96
2.47
1.75
0.86
-0.06
-0.82
-1.28
-1.35
-1.07
-0.63
-0.30
-0.37
-0.98
-2.09
-3.40
-4.53
-5.18
-5.24
-4.79
-4.04
-3.19
-2.29
-1.29
-0.07
1.46
3.25
5.14
6.82
7.99
8.35
7.70
6.04
3.57
0.68
-2.12
-4.35
-5.68
-6.01
-5.47
-4.29
-2.76
-1.17
0.21
1.11
1.29
0.66
-0.68
-2.36
-3.83
-4.57
-4.29
-3.05
-1.25
0.56
1.88
2.43
2.26
1.64
0.93
0.43
0.25
0.36
0.60
0.83
0.98
1.06
1.13
1.27
1.55
1.93
2.36
2.72
2.91
2.83
2.42
1.63
0.42
-1.20
-3.14
-5.26
-7.26
-8.86
-9.75
-9.73
-8.78
-7.06
-4.90
-2.67
-0.77
0.56
1.23
1.35
1.19
1.07
1.28
1.97
3.11
4.54
6.03
7.36
8.35
8.90
9.05
8.87
8.54
8.22
8.04
8.02
8.17
8.46
8.84
9.27
9.68
9.97
10.03
9.78
9.18
8.27
7.12
5.84
4.52
3.26
2.15
1.27
0.64
0.22
-0.16
-0.69
-1.55
-2.84
-4.53
-6.41
-8.22
-9.66
-10.52
-10.76
-10.46
-9.86
-9.22
-8.85
-8.91
-9.47
-10.38
-11.40
-12.16
-12.37
-11.87
-10.70
-9.08
-7.30
-5.60
-4.12
-2.89
-1.85
-0.92
-0.11
0.57
1.09
1.47
1.81
2.22
2.74
3.33
3.85
4.14
4.12
3.83
3.42
3.06
2.86
2.77
2.70
2.53
2.23
1.90
1.71
1.83
2.33
3.20
4.36
5.67
6.92
7.93
8.55
8.72
8.50
8.02
7.43
6.87
6.38
5.99
5.76
5.77
6.10
6.71
7.44
8.03
8.19
7.78
6.89
5.74
4.60
3.63
2.85
2.14
1.41
0.69
0.10
-0.14
0.07
0.70
1.59
2.54
3.40
4.09
4.59
4.88
4.88
4.54
3.82
2.78
1.52
0.16
-1.19
-2.50
-3.74
-4.83
-5.70
-6.23
-6.37
-6.20
-5.92
-5.79
-6.06
-6.79
-7.84
-8.89
-9.52
-9.44
-8.56
-7.15
-5.71
-4.86
-5.08
-6.48
-8.81
-11.50
-13.98
-16.01
-17.85
-20.15
-23.72
-29.08
-36.12
-44.00
-51.36
-56.75
-59.20
-58.71
-56.69
-56.00
-60.48
-74.04
-99.38
-136.77
-183.48
-234.17
-282.08
-320.51
-344.16
-349.88
-336.82
-306.29
-261.38
-206.39
-146.00
-84.35
-24.54
31.40
82.31
127.64
167.61
203.47
237.55
272.66
310.96
352.72
395.95
437.00
471.77
496.87
509.95
509.41
494.12
463.63
418.91
362.96
300.61
237.13
176.47
120.34
68.50
20.07
-24.93
-64.97
-97.63
-120.91
-133.90
-136.65
-129.54
-113.30
-89.80
-63.23
-40.37
-28.87
-34.03
-55.70
-87.31
-118.16
-137.95
-141.19
-129.10
-108.07
-85.97
-68.37
-56.87
-49.89
-45.02
-41.09
-38.78
-39.84
-45.36
-54.55
-64.48
-71.27
-71.92
-65.71
-54.62
-42.41
-33.13
-29.47
-32.03
-39.63
-49.98
-60.18
-66.79
-65.93
-54.10
-29.85
4.47
42.11
73.52
89.79
86.46
65.48
34.44
3.19
-20.15
-31.71
-32.05
-24.42
-12.47
1.06
14.36
25.78
33.41
35.29
30.31
19.02
3.73
-12.08
-25.07
-33.22
-36.37
-36.03
-34.57
-34.06
-35.51
-38.54
-41.70
-43.25
-41.97
-37.67
-31.23
-24.21
-18.18
-14.16
-12.29
-11.92
-12.02
-11.64
-10.24
-7.82
-4.84
-1.85
0.69
2.55
3.70
4.25
4.29
3.89
3.13
2.09
0.85
-0.50
-1.95
-3.52
-5.26
-7.15
-9.11
-10.96
-12.52
-13.67
-14.37
-14.67
-14.71
-14.60
-14.42
-14.12
-13.63
-12.84
-11.71
-10.30
-8.73
-7.09
-5.45
-3.80
-2.11
-0.39
1.26
2.72
3.79
4.34
4.35
3.85
2.93
1.72
0.37
-0.99
-2.20
-3.16
-3.79
-4.10
-4.19
-4.21
-4.31
-4.60
-5.06
-5.63
-6.12
-6.37
-6.23
-5.64
-4.62
-3.27
-1.78
-0.35
0.81
1.58
1.94
1.95
1.74
1.46
1.25
1.13
1.10
1.07
0.97
0.74
0.40
-0.03
-0.48
-0.87
-1.13
-1.20
-1.06
-0.76
-0.41
-0.12
-0.01
-0.13
-0.47
-0.98
-1.63
-2.39
-3.23
-4.06
-4.72
-5.01
-4.82
-4.11
-3.00
-1.66
-0.22
1.20
2.54
3.70
4.56
4.98
4.94
4.55
4.05
3.74
3.79
4.17
4.68
5.02
4.98
4.51
3.72
2.80
1.92
1.16
0.53
-0.01
-0.48
-0.92
-1.33
-1.76
-2.25
-2.79
-3.33
-3.74
-3.91
-3.72
-3.16
-2.28
-1.18
0.00
1.15
2.14
2.90
3.37
3.57
3.57
3.48
3.44
3.46
3.46
3.26
2.65
1.56
0.12
-1.37
-2.54
-3.15
-3.20
-3.02
-3.06
-3.73
-5.19
-7.22
-9.32
-10.76
-10.89
-9.26
-5.86
-1.16
3.91
8.15
10.44
10.12
7.28
2.77
-2.00
-5.63
-7.19
-6.65
-4.71
-2.46
-0.77
0.09
0.54
1.33
3.10
5.90
9.11
11.66
12.57
11.28
7.95
3.34
-1.53
-5.64
-8.33
-9.36
-8.80
-6.98
-4.37
-1.56
0.85
2.26
2.35
1.13
-0.94
-3.15
-4.72
-5.12
-4.22
-2.27
0.25
2.82
5.02
6.58
7.38
7.44
6.92
6.07
5.16
4.44
4.02
3.81
3.69
3.49
3.17
2.86
2.71
2.92
3.55
4.52
5.62
6.59
7.24
7.42
7.12
6.31
5.02
3.24
1.04
-1.45
-3.97
-6.21
-7.85
-8.71
-8.80
-8.26
-7.34
-6.20
-4.94
-3.51
-1.90
-0.11
1.69
3.31
4.55
5.33
5.69
5.78
5.74
5.66
5.56
5.40
5.12
4.71
4.18
3.61
3.10
2.75
2.62
2.70
2.94
3.22
3.40
3.35
3.02
2.44
1.73
1.06
0.61
0.50
0.79
1.45
2.32
3.23
3.98
4.46
4.65
4.64
4.53
4.43
4.39
4.36
4.24
3.95
3.44
2.76
2.01
1.29
0.68
0.20
-0.20
-0.57
-0.96
-1.34
-1.64
-1.78
-1.74
-1.60
-1.50
-1.56
-1.90
-2.47
-3.16
-3.76
-4.08
-3.99
-3.45
-2.51
-1.29
0.09
1.49
2.78
3.88
4.71
5.23
5.41
5.32
5.05
4.71
4.38
4.07
3.76
3.39
2.94
2.47
2.10
1.94
2.01
2.23
2.42
2.41
2.07
1.39
0.47
-0.55
-1.52
-2.36
-3.08
-3.70
-4.26
-4.78
-5.22
-5.48
-5.45
-5.09
-4.43
-3.55
-2.58
-1.67
-0.88
-0.25
0.20
0.50
0.68
0.76
0.81
0.86
0.92
0.97
0.95
0.86
0.81
1.04
1.87
3.53
6.07
9.22
12.42
14.95
16.14
15.54
13.10
9.17
4.43
-0.29
-4.24
-6.89
-8.15
-8.28
-7.84
-7.40
-7.33
-7.68
-8.21
-8.46
-8.04
-6.76
-4.71
-2.20
0.35
2.61
4.47
6.02
7.49
9.12
10.97
12.90
14.60
15.73
16.06
15.55
14.38
12.77
10.97
9.10
7.23
5.39
3.62
2.00
0.61
-0.54
-1.52
-2.47
-3.55
-4.82
-6.19
-7.39
-8.05
-7.84
-6.56
-4.31
-1.44
1.60
4.36
6.61
8.34
9.67
10.74
11.61
12.20
12.38
12.04
11.11
9.59
7.53
4.99
2.07
-1.01
-3.96
-6.44
-8.21
-9.17
-9.42
-9.19
-8.75
-8.30
-7.88
-7.47
-6.96
-6.27
-5.37
-4.27
-3.01
-1.65
-0.27
1.05
2.18
3.01
3.46
3.49
3.16
2.58
1.92
1.34
0.94
0.83
1.01
1.43
1.98
2.41
2.50
2.06
1.10
-0.19
-1.46
-2.36
-2.66
-2.44
-1.97
-1.59
-1.58
-2.01
-2.72
-3.45
-3.95
-4.07
-3.75
-2.97
-1.71
0.02
2.17
4.60
7.05
9.19
10.70
11.42
11.36
10.74
9.87
9.04
8.42
8.04
7.78
7.52
7.11
6.51
5.67
4.59
3.31
1.95
0.73
-0.07
-0.22
0.27
1.12
1.88
2.08
1.44
0.02
-1.80
-3.55
-4.79
-5.28
-4.99
-4.06
-2.66
-0.99
0.74
2.35
3.64
4.50
4.87
4.80
4.42
3.89
3.34
2.84
2.40
1.96
1.50
0.99
0.43
-0.16
-0.76
-1.32
-1.81
-2.19
-2.45
-2.62
-2.78
-3.02
-3.40
-3.90
-4.41
-4.75
-4.78
-4.42
-3.73
-2.78
-1.72
-0.64
0.36
1.16
1.65
1.79
1.59
1.18
0.73
0.37
0.14
0.00
-0.12
-0.26
-0.42
-0.54
-0.57
-0.48
-0.28
0.02
0.39
0.79
1.17
1.45
1.54
1.43
1.22
1.05
1.05
1.29
1.72
2.22
2.64
2.91
2.98
2.89
2.71
2.48
2.24
2.02
1.85
1.78
1.77
1.80
1.76
1.56
1.15
0.57
-0.11
-0.83
-1.54
-2.22
-2.79
-3.23
-3.49
-3.57
-3.58
-3.69
-4.02
-4.61
-5.32
-5.92
-6.20
-6.06
-5.54
-4.76
-3.88
-3.04
-2.31
-1.72
-1.28
-0.98
-0.76
-0.55
-0.35
-0.15
-0.01
0.00
-0.18
-0.53
-0.99
-1.47
-1.87
-2.13
-2.21
-2.13
-1.91
-1.59
-1.24
-0.91
-0.69
-0.60
-0.62
-0.69
-0.72
-0.61
-0.33
0.12
0.64
1.10
1.38
1.40
1.19
0.85
0.49
0.21
0.00
-0.19
-0.43
-0.74
-1.09
-1.40
-1.62
-1.75
-1.82
-1.88
-1.92
-1.93
-1.88
-1.79
-1.72
-1.71
-1.75
-1.79
-1.73
-1.50
-1.16
-0.81
-0.59
-0.55
-0.64
-0.73
-0.68
-0.45
-0.10
0.21
0.35
0.25
-0.05
-0.43
-0.77
-1.01
-1.19
-1.36
-1.56
-1.77
-1.92
-1.91
-1.70
-1.33
-0.97
-0.81
-1.01
-1.60
-2.46
-3.37
-4.05
-4.30
-4.07
-3.43
-2.57
-1.68
-0.89
-0.24
0.26
0.63
0.86
0.96
0.93
0.82
0.68
0.53
0.38
0.21
0.01
-0.23
-0.43
-0.54
-0.53
-0.45
-0.40
-0.47
-0.72
-1.15
-1.69
-2.23
-2.67
-2.92
-2.92
-2.66
-2.17
-1.55
-0.88
-0.27
0.27
0.73
1.16
1.62
2.10
2.58
2.97
3.16
3.08
2.69
1.99
1.00
-0.21
-1.56
-2.91
-4.13
-5.08
-5.69
-5.93
-5.87
-5.61
-5.26
-4.87
-4.46
-4.03
-3.58
-3.14
-2.75
-2.44
-2.21
-2.01
-1.78
-1.47
-1.09
-0.67
-0.31
-0.05
0.12
0.23
0.38
0.60
0.85
1.08
1.21
1.23
1.18
1.16
1.25
1.46
1.75
1.97
2.02
1.83
1.44
0.96
0.57
0.42
0.57
0.98
1.53
2.02
2.25
2.11
1.54
0.59
-0.65
-2.00
-3.28
-4.34
-5.05
-5.37
-5.32
-5.03
-4.63
-4.26
-4.01
-3.90
-3.86
-3.80
-3.65
-3.38
-3.08
-2.86
-2.84
-3.06
-3.42
-3.73
-3.77
-3.39
-2.59
-1.55
-0.44
0.52
1.25
1.77
2.10
2.27
2.21
1.89
1.35
0.75
0.35
0.36
0.85
1.70
2.62
3.36
3.75
3.85
3.81
3.82
3.96
4.18
4.35
4.33
4.05
3.57
2.98
2.41
1.93
1.56
1.34
1.23
1.22
1.24
1.24
1.15
0.94
0.61
0.20
-0.19
-0.52
-0.73
-0.80
-0.73
-0.51
-0.17
0.23
0.62
0.91
1.01
0.92
0.66
0.29
-0.08
-0.40
-0.63
-0.77
-0.78
-0.67
-0.42
-0.03
0.48
1.07
1.70
2.35
3.00
3.63
4.17
4.57
4.77
4.74
4.53
4.20
3.82
3.42
3.07
2.77
2.56
2.42
2.28
2.06
1.69
1.14
0.49
-0.14
-0.65
-1.03
-1.29
-1.53
-1.82
-2.15
-2.44
-2.61
-2.60
-2.39
-2.01
-1.52
-1.04
-0.68
-0.55
-0.74
-1.24
-1.97
-2.78
-3.50
-3.99
-4.22
-4.19
-3.98
-3.63
-3.22
-2.80
-2.39
-2.00
-1.65
-1.34
-1.07
-0.86
-0.70
-0.53
-0.31
0.03
0.47
0.94
1.30
1.44
1.33
1.02
0.65
0.36
0.20
0.10
-0.06
-0.39
-0.86
-1.35
-1.73
-1.88
-1.83
-1.70
-1.64
-1.74
-1.99
-2.34
-2.70
-3.07
-3.45
-3.87
-4.37
-4.91
-5.43
-5.86
-6.13
-6.16
-5.89
-5.28
-4.32
-3.08
-1.68
-0.29
0.90
1.78
2.28
2.44
2.39
2.30
2.36
2.72
3.34
4.03
4.46
4.31
3.39
1.74
-0.38
-2.57
-4.47
-5.84
-6.61
-6.75
-6.29
-5.26
-3.79
-2.11
-0.53
0.70
1.50
1.98
2.37
2.90
3.59
4.28
4.72
4.77
4.42
3.87
3.35
2.95
2.66
2.33
1.87
1.34
0.96
0.95
1.41
2.23
3.13
3.79
3.99
3.73
3.14
2.44
1.82
1.37
1.08
0.86
0.62
0.31
0.01
-0.17
-0.08
0.37
1.17
2.23
3.36
4.41
5.27
5.88
6.23
6.34
6.20
5.85
5.32
4.68
4.02
3.40
2.88
2.49
2.23
2.07
1.94
1.75
1.43
1.01
0.53
0.09
-0.24
-0.47
-0.65
-0.86
-1.18
-1.59
-2.01
-2.33
-2.42
-2.19
-1.60
-0.71
0.40
1.58
2.67
3.51
4.01
4.19
4.15
4.04
3.99
4.03
4.10
4.06
3.82
3.33
2.64
1.81
0.94
0.05
-0.81
-1.56
-2.15
-2.50
-2.67
-2.81
-3.10
-3.71
-4.65
-5.72
-6.59
-6.90
-6.44
-5.24
-3.52
-1.64
0.09
1.41
2.25
2.68
2.79
2.68
2.41
1.98
1.43
0.81
0.21
-0.31
-0.74
-1.12
-1.52
-1.97
-2.42
-2.77
-2.94
-2.94
-2.88
-2.93
-3.21
-3.72
-4.30
-4.75
-4.90
-4.70
-4.19
-3.48
-2.68
-1.82
-0.92
0.06
1.10
2.14
3.07
3.78
4.13
4.11
3.76
3.23
2.68
2.22
1.91
1.70
1.57
1.45
1.36
1.29
1.24
1.15
0.98
0.70
0.32
-0.14
-0.65
-1.21
-1.85
-2.55
-3.19
-3.61
-3.68
-3.34
-2.67
-1.85
-1.05
-0.37
0.20
0.74
1.26
1.72
1.98
1.97
1.67
1.18
0.66
0.23
-0.06
-0.23
-0.32
-0.39
-0.41
-0.41
-0.42
-0.49
-0.67
-0.95
-1.32
-1.76
-2.31
-3.00
-3.86
-4.84
-5.77
-6.47
-6.81
-6.76
-6.37
-5.77
-5.03
-4.18
-3.23
-2.25
-1.38
-0.82
-0.71
-1.04
-1.68
-2.38
-2.95
-3.29
-3.43
-3.50
-3.61
-3.85
-4.22
-4.67
-5.12
-5.46
-5.60
-5.54
-5.37
-5.26
-5.42
-5.98
-6.89
-7.96
-8.85
-9.25
-9.02
-8.20
-7.00
-5.70
-4.51
-3.47
-2.49
-1.35
0.21
2.38
5.19
8.57
12.22
15.68
18.39
19.82
19.62
17.80
14.70
10.90
7.04
3.59
0.84
-1.08
-2.07
-1.96
-0.63
1.92
5.41
9.29
12.87
15.56
17.01
17.18
16.31
14.81
13.14
11.71
10.80
10.51
10.72
11.11
11.28
10.84
9.53
7.33
4.39
0.99
-2.57
-5.97
-8.95
-11.18
-12.40
-12.37
-11.04
-8.68
-5.79
-3.04
-0.98
0.16
0.56
0.71
1.16
2.29
4.15
6.50
8.96
11.18
12.95
14.17
14.76
14.56
13.36
10.94
7.30
2.74
-2.11
-6.46
-9.52
-10.75
-9.94
-7.25
-3.14
1.76
6.72
11.06
14.20
15.83
15.87
14.53
12.12
8.95
5.30
1.42
-2.43
-5.94
-8.79
-10.81
-12.05
-12.73
-13.20
-13.70
-14.24
-14.61
-14.51
-13.76
-12.38
-10.66
-8.93
-7.48
-6.38
-5.50
-4.64
-3.66
-2.60
-1.63
-0.98
-0.83
-1.19
-1.92
-2.84
-3.78
-4.68
-5.56
-6.49
-7.49
-8.46
-9.21
-9.52
-9.20
-8.22
-6.64
-4.69
-2.62
-0.65
0.98
2.14
2.71
2.70
2.14
1.21
0.07
-1.08
-2.13
-3.07
-3.93
-4.82
-5.78
-6.84
-7.95
-9.07
-10.17
-11.25
-12.34
-13.44
-14.49
-15.32
-15.69
-15.32
-14.04
-11.79
-8.68
-4.97
-1.00
2.91
6.47
9.50
11.90
13.66
14.77
15.28
15.23
14.72
13.90
12.91
11.92
11.03
10.28
9.66
9.16
8.74
8.38
8.07
7.72
7.26
6.60
5.72
4.68
3.54
2.38
1.24
0.11
-1.00
-2.12
-3.29
-4.54
-5.96
-7.61
-9.52
-11.67
-13.93
-16.18
-18.31
-20.30
-22.18
-24.05
-25.97
-27.97
-30.07
-32.28
-34.66
-37.29
-40.25
-43.55
-47.15
-50.93
-54.72
-58.27
-61.16
-62.76
-62.38
-59.58
-54.45
-47.68
-40.33
-33.31
-27.00
-21.12
-15.04
-8.29
-0.94
6.43
13.05
18.39
22.39
25.32
27.52
29.15
30.25
30.92
31.51
32.48
34.21
36.71
39.50
41.74
42.50
40.96
36.67
29.66
20.51
10.50
1.45
-4.66
-6.26
-2.80
4.97
15.11
25.19
33.00
37.06
36.70
31.88
23.07
11.33
-1.38
-12.28
-18.29
-17.10
-8.20
6.64
23.89
39.64
51.03
57.17
58.98
58.22
56.32
53.72
49.92
44.12
35.97
25.89
14.95
4.45
-4.57
-11.68
-17.16
-21.91
-27.06
-33.52
-41.46
-49.90
-56.87
-59.96
-57.13
-47.54
-31.69
-11.27
11.65
35.18
57.92
78.92
97.32
112.15
122.46
127.73
128.13
124.72
118.96
112.29
105.47
98.46
90.56
80.99
69.47
56.49
43.16
30.81
20.38
12.16
5.85
0.81
-3.59
-7.69
-11.55
-15.05
-18.11
-20.74
-23.05
-25.15
-27.11
-28.88
-30.35
-31.39
-32.01
-32.32
-32.52
-32.79
-33.18
-33.54
-33.55
-32.86
-31.28
-28.85
-25.87
-22.80
-19.99
-17.62
-15.61
-13.75
-11.83
-9.77
-7.72
-5.90
-4.55
-3.76
-3.49
-3.65
-4.12
-4.89
-5.99
-7.39
-8.99
-10.58
-11.92
-12.85
-13.32
-13.47
-13.54
-13.78
-14.37
-15.34
-16.60
-17.96
-19.23
-20.25
-20.93
-21.27
-21.27
-20.94
-20.32
-19.48
-18.56
-17.72
-17.14
-16.88
-16.85
-16.87
-16.66
-16.04
-14.95
-13.47
-11.77
-9.98
-8.14
-6.20
-4.08
-1.76
0.68
3.01
4.99
6.42
7.26
7.66
7.81
7.94
8.13
8.33
8.41
8.22
7.72
6.95
6.04
5.15
4.38
3.79
3.40
3.20
3.18
3.24
3.27
3.11
2.68
1.99
1.12
0.20
-0.66
-1.45
-2.23
-3.08
-4.03
-5.03
-5.97
-6.72
-7.23
-7.51
-7.65
-7.74
-7.87
-8.09
-8.38
-8.74
-9.12
-9.50
-9.86
-10.20
-10.54
-10.88
-11.24
-11.67
-12.16
-12.68
-13.16
-13.47
-13.51
-13.21
-12.58
-11.76
-10.89
-10.16
-9.64
-9.33
-9.18
-9.14
-9.21
-9.40
-9.72
-10.10
-10.40
-10.41
-10.06
-9.34
-8.41
-7.46
-6.64
-5.97
-5.36
-4.67
-3.84
-2.91
-2.04
-1.39
-1.02
-0.86
-0.74
-0.50
-0.07
0.48
0.98
1.30
1.41
1.39
1.36
1.40
1.44
1.32
0.89
0.11
-0.90
-1.93
-2.76
-3.29
-3.51
-3.48
-3.26
-2.87
-2.31
-1.59
-0.79
0.01
0.68
1.13
1.32
1.28
1.05
0.68
0.26
-0.09
-0.26
-0.14
0.31
1.06
2.02
3.05
4.01
4.79
5.33
5.58
5.55
5.24
4.65
3.80
2.74
1.53
0.28
-0.89
-1.84
-2.48
-2.76
-2.70
-2.37
-1.89
-1.39
-0.99
-0.78
-0.81
-1.07
-1.51
-2.04
-2.59
-3.11
-3.55
-3.87
-4.01
-3.97
-3.78
-3.54
-3.38
-3.38
-3.59
-4.01
-4.55
-5.14
-5.73
-6.27
-6.78
-7.26
-7.77
-8.33
-8.96
-9.55
-9.95
-9.97
-9.51
-8.64
-7.56
-6.54
-5.79
-5.41
-5.33
-5.40
-5.46
-5.41
-5.22
-4.91
-4.57
-4.30
-4.18
-4.24
-4.42
-4.53
-4.34
-3.66
-2.38
-0.51
1.85
4.57
7.53
10.66
13.85
17.02
20.12
23.14
26.10
29.08
32.05
34.92
37.59
40.02
42.36
44.89
47.93
51.64
55.92
60.45
64.84
68.86
72.65
76.68
81.52
87.65
95.16
103.68
112.54
120.98
128.54
135.16
141.19
147.08
153.21
159.55
165.72
171.12
175.21
177.70
178.78
179.11
179.75
181.94
186.85
195.17
206.56
219.24
230.07
235.24
231.36
216.52
190.89
156.41
115.85
71.64
25.20
-23.11
-73.14
-124.35
-175.39
-224.48
-270.19
-312.18
-351.27
-388.76
-425.29
-460.18
-491.82
-518.52
-539.44
-554.55
-563.67
-565.32
-556.32
-532.77
-492.10
-434.84
-364.98
-288.56
-211.61
-138.54
-72.17
-14.95
29.76
57.77
65.75
53.84
27.03
-5.69
-33.94
-49.65
-49.45
-34.69
-9.36
22.78
59.69
100.28
142.15
179.64
204.07
206.72
183.17
136.74
78.66
24.83
-9.82
-16.55
4.67
45.88
94.70
138.70
169.10
182.46
180.57
168.93
154.40
143.03
138.31
140.58
147.45
154.79
157.77
151.69
133.06
101.18
59.60
16.34
-18.27
-35.61
-33.25
-16.91
1.61
10.05
1.75
-21.19
-49.57
-72.27
-81.87
-77.38
-63.08
-44.86
-26.87
-10.44
4.71
18.59
30.01
37.24
39.38
37.53
34.64
34.25
38.67
47.71
58.54
66.52
66.84
56.37
34.94
5.49
-26.91
-56.90
-80.60
-96.65
-106.13
-111.48
-115.11
-118.33
-121.01
-122.05
-120.05
-114.09
-104.02
-90.52
-74.86
-58.49
-42.75
-28.55
-16.32
-6.07
2.36
9.20
14.66
18.93
22.27
24.94
27.13
28.83
29.80
29.73
28.45
26.00
22.73
19.10
15.57
12.44
9.78
7.48
5.34
3.15
0.70
-2.12
-5.23
-8.45
-11.42
-13.81
-15.43
-16.35
-16.89
-17.39
-18.05
-18.79
-19.22
-18.91
-17.54
-15.10
-11.87
-8.26
-4.63
-1.16
2.14
5.42
8.82
12.45
16.19
19.66
22.21
22.97
21.08
16.06
8.09
-1.86
-12.24
-21.33
-27.72
-30.73
-30.40
-27.41
-22.61
-16.73
-10.22
-3.28
3.95
11.30
18.50
25.18
30.99
35.64
38.90
40.68
41.05
40.28
38.81
37.15
35.75
34.83
34.42
34.40
34.63
35.04
35.63
36.32
36.86
36.70
35.19
31.76
26.29
19.18
11.43
4.20
-1.50
-5.17
-6.91
-7.26
-6.84
-6.04
-4.85
-2.98
-0.25
3.14
6.53
8.96
9.58
7.93
4.07
-1.52
-8.23
-15.58
-23.36
-31.54
-40.12
-48.99
-57.77
-65.94
-72.92
-78.23
-81.70
-83.56
-84.36
-84.79
-85.30
-85.77
-85.45
-83.16
-77.81
-68.89
-56.75
-42.59
-28.27
-15.82
-6.83
-2.09
-1.23
-2.98
-5.56
-7.33
-7.21
-4.83
-0.39
5.52
12.00
17.95
22.20
23.86
22.92
20.36
17.84
16.83
17.80
19.99
22.11
23.40
24.48
27.17
33.42
44.00
57.82
72.26
84.37
92.16
95.21
94.46
91.23
86.46
80.35
72.75
63.81
54.36
45.76
39.36
35.74
34.37
33.86
32.57
29.42
24.33
18.07
11.84
6.63
2.84
0.30
-1.46
-2.85
-4.06
-5.12
-6.00
-6.82
-7.80
-9.15
-10.94
-13.00
-15.02
-16.73
-18.00
-18.91
-19.62
-20.26
-20.81
-21.15
-21.19
-20.91
-20.43
-19.88
-19.34
-18.74
-17.96
-16.94
-15.83
-14.89
-14.38
-14.42
-14.84
-15.31
-15.50
-15.23
-14.58
-13.81
-13.18
-12.83
-12.70
-12.61
-12.42
-12.15
-12.05
-12.51
-13.93
-16.49
-20.03
-24.08
-28.01
-31.25
-33.62
-35.30
-36.84
-38.83
-41.62
-45.23
-49.34
-53.54
-57.59
-61.60
-65.96
-71.19
-77.64
-85.33
-93.95
-102.96
-111.80
-120.02
-127.34
-133.73
-139.50
-145.29
-152.06
-160.85
-172.32
-186.04
-200.09
-211.16
-215.39
-209.68
-192.82
-165.85
-131.49
-92.99
-52.73
-11.75
30.25
74.25
121.29
172.40
228.39
289.55
355.15
423.00
489.48
550.21
600.89
637.95
658.80
661.86
646.77
615.00
570.30
518.51
466.37
419.53
380.90
350.05
324.21
300.03
275.26
249.18
221.95
193.60
163.34
129.61
90.84
46.00
-4.93
-61.06
-120.61
-180.77
-237.54
-286.03
-321.56
-341.16
-344.90
-336.17
-320.44
-303.18
-287.87
-275.17
-263.68
-251.57
-238.09
-224.00
-210.86
-199.82
-190.84
-182.73
-173.96
-163.60
-151.81
-139.67
-128.53
-119.25
-111.80
-105.44
-99.14
-92.21
-84.55
-76.71
-69.50
-63.60
-59.24
-56.15
-53.70
-51.20
-48.17
-44.51
-40.49
-36.61
-33.32
-30.84
-29.07
-27.69
-26.34
-24.76
-23.00
-21.39
-20.41
-20.53
-22.02
-24.89
-28.78
-33.13
-37.37
-41.00
-43.75
-45.59
-46.70
-47.48
-48.47
-50.25
-53.17
-56.96
-60.53
-62.12
-59.79
-52.05
-38.28
-18.91
4.65
30.28
55.44
77.71
95.42
108.07
116.44
122.03
126.34
130.02
132.61
132.97
129.94
123.11
112.94
100.44
86.68
72.46
58.33
44.76
32.17
20.87
10.92
2.15
-5.70
-12.80
-19.11
-24.41
-28.33
-30.40
-30.10
-27.06
-21.30
-13.48
-4.90
2.75
8.07
10.50
10.57
9.67
9.42
10.95
14.45
19.25
24.21
28.36
31.30
33.28
34.92
36.91
39.72
43.57
48.48
54.16
59.97
64.78
67.19
66.04
60.96
52.64
42.45
31.64
20.38
7.46
-9.21
-31.54
-60.00
-93.02
-127.17
-158.13
-181.81
-195.35
-197.68
-189.65
-173.65
-153.09
-131.52
-111.83
-95.71
-83.57
-74.81
-68.37
-63.10
-57.91
-51.66
-43.12
-31.15
-15.19
4.18
25.03
44.49
59.58
68.36
70.57
67.53
61.51
54.68
48.38
42.95
38.06
33.32
28.72
24.69
21.80
20.37
20.24
20.77
21.20
21.00
20.06
18.69
17.38
16.48
16.00
15.56
14.65
12.84
10.05
6.60
3.01
-0.19
-2.64
-4.26
-5.14
-5.46
-5.42
-5.22
-4.99
-4.81
-4.65
-4.40
-3.97
-3.29
-2.42
-1.40
-0.29
0.96
2.43
4.17
6.09
7.98
9.61
10.81
11.54
11.90
12.00
11.91
11.61
11.05
10.21
9.16
7.99
6.79
5.63
4.53
3.54
2.64
1.81
1.00
0.16
-0.76
-1.74
-2.71
-3.62
-4.48
-5.38
-6.41
-7.58
-8.77
-9.77
-10.32
-10.29
-9.72
-8.81
-7.87
-7.15
-6.79
-6.78
-6.98
-7.26
-7.55
-7.78
-7.92
-7.88
-7.54
-6.79
-5.58
-3.96
-2.10
-0.26
1.35
2.57
3.30
3.56
3.40
2.90
2.18
1.39
0.65
0.08
-0.26
-0.35
-0.23
0.04
0.41
0.84
1.31
1.80
2.20
2.43
2.39
2.06
1.52
0.97
0.57
0.44
0.56
0.82
1.08
1.22
1.24
1.18
1.09
0.92
0.59
0.02
-0.74
-1.50
-1.99
-1.98
-1.43
-0.50
0.53
1.41
2.01
2.38
2.62
2.82
3.02
3.13
3.08
2.85
2.52
2.21
2.05
2.12
2.43
2.98
3.74
4.66
5.66
6.57
7.16
7.17
6.44
4.99
3.03
0.94
-0.91
-2.30
-3.14
-3.50
-3.47
-3.11
-2.41
-1.40
-0.16
1.14
2.27
3.08
3.55
3.80
4.02
4.33
4.77
5.24
5.58
5.69
5.53
5.22
4.93
4.78
4.84
5.01
5.13
5.05
4.72
4.18
3.60
3.16
3.03
3.28
3.89
4.74
5.65
6.45
7.01
7.21
7.05
6.54
5.75
4.79
3.74
2.69
1.74
0.95
0.38
0.03
-0.12
-0.12
-0.07
-0.10
-0.34
-0.91
-1.82
-2.97
-4.12
-4.99
-5.34
-5.07
-4.29
-3.21
-2.08
-1.14
-0.47
-0.07
0.16
0.33
0.56
0.91
1.41
2.03
2.68
3.29
3.84
4.32
4.75
5.14
5.49
5.77
5.93
5.93
5.71
5.23
4.50
3.57
2.59
1.76
1.28
1.27
1.70
2.45
3.29
4.02
4.54
4.83
4.96
4.99
4.92
4.70
4.30
3.73
3.05
2.38
1.83
1.41
1.10
0.86
0.65
0.47
0.31
0.15
-0.09
-0.51
-1.13
-1.92
-2.72
-3.36
-3.68
-3.58
-3.07
-2.21
-1.14
-0.01
1.05
1.93
2.60
3.08
3.43
3.70
3.96
4.21
4.47
4.69
4.82
4.77
4.45
3.83
2.97
2.02
1.17
0.58
0.31
0.32
0.46
0.55
0.41
-0.10
-0.97
-2.08
-3.22
-4.11
-4.51
-4.33
-3.61
-2.50
-1.19
0.16
1.40
2.42
3.09
3.30
3.01
2.30
1.37
0.48
-0.11
-0.27
0.00
0.57
1.23
1.78
2.11
2.17
2.03
1.79
1.58
1.46
1.47
1.54
1.55
1.32
0.70
-0.36
-1.80
-3.39
-4.82
-5.81
-6.14
-5.81
-4.95
-3.76
-2.45
-1.17
0.04
1.15
2.11
2.87
3.33
3.47
3.32
3.01
2.70
2.57
2.66
2.92
3.23
3.41
3.38
3.13
2.73
2.29
1.90
1.58
1.33
1.10
0.84
0.51
0.08
-0.47
-1.14
-1.84
-2.47
-2.88
-2.91
-2.49
-1.67
-0.58
0.57
1.60
2.41
3.01
3.42
3.68
3.80
3.75
3.56
3.33
3.19
3.26
3.58
4.02
4.37
4.44
4.10
3.38
2.42
1.40
0.49
-0.24
-0.79
-1.22
-1.61
-2.02
-2.42
-2.82
-3.19
-3.53
-3.90
-4.29
-4.65
-4.85
-4.75
-4.25
-3.37
-2.19
-0.89
0.39
1.51
2.41
3.03
3.35
3.40
3.23
2.97
2.75
2.65
2.71
2.92
3.19
3.48
3.73
3.91
3.99
3.96
3.81
3.55
3.19
2.80
2.42
2.11
1.88
1.72
1.59
1.43
1.22
0.94
0.67
0.53
0.63
0.99
1.55
2.19
2.76
3.15
3.29
3.20
2.89
2.42
1.85
1.24
0.66
0.18
-0.14
-0.27
-0.21
0.08
0.60
1.30
2.08
2.74
3.07
2.94
2.37
1.50
0.61
-0.04
-0.30
-0.17
0.16
0.49
0.65
0.62
0.52
0.56
0.89
1.53
2.37
3.20
3.83
4.10
3.98
3.47
2.64
1.59
0.47
-0.53
-1.23
-1.49
-1.26
-0.65
0.11
0.77
1.12
1.07
0.70
0.13
-0.47
-1.00
-1.40
-1.71
-1.96
-2.16
-2.35
-2.56
-2.80
-3.07
-3.31
-3.39
-3.19
-2.65
-1.85
-0.92
-0.03
0.71
1.32
1.83
2.28
2.58
2.62
2.26
1.52
0.55
-0.40
-1.10
-1.44
-1.42
-1.15
-0.72
-0.13
0.67
1.76
3.10
4.55
5.85
6.74
7.07
6.85
6.20
5.30
4.30
3.36
2.62
2.23
2.32
2.90
3.87
4.99
5.97
6.58
6.69
6.34
5.68
4.83
3.95
3.08
2.28
1.59
1.01
0.51
0.08
-0.37
-0.88
-1.46
-2.06
-2.59
-2.99
-3.21
-3.26
-3.21
-3.15
-3.14
-3.23
-3.44
-3.71
-3.93
-3.95
-3.66
-2.98
-1.97
-0.76
0.50
1.66
2.62
3.34
3.77
3.88
3.67
3.20
2.59
1.97
1.45
1.06
0.80
0.65
0.62
0.75
1.06
1.48
1.90
2.11
2.01
1.55
0.85
0.09
-0.54
-0.96
-1.15
-1.19
-1.16
-1.08
-0.95
-0.71
-0.32
0.17
0.69
1.16
1.54
1.82
2.03
2.17
2.21
2.11
1.87
1.54
1.21
0.95
0.80
0.71
0.58
0.28
-0.25
-1.00
-1.82
-2.53
-2.93
-2.98
-2.76
-2.48
-2.37
-2.55
-2.98
-3.50
-3.91
-4.06
-3.93
-3.58
-3.06
-2.40
-1.63
-0.80
0.00
0.62
0.95
0.94
0.66
0.26
-0.15
-0.46
-0.64
-0.68
-0.59
-0.38
-0.11
0.17
0.38
0.49
0.47
0.33
0.07
-0.35
-0.94
-1.65
-2.36
-2.90
-3.13
-2.99
-2.51
-1.83
-1.11
-0.51
-0.09
0.11
0.12
0.01
-0.15
-0.29
-0.39
-0.43
-0.41
-0.34
-0.23
-0.09
0.04
0.14
0.20
0.24
0.29
0.38
0.51
0.63
0.67
0.58
0.31
-0.10
-0.56
-0.95
-1.15
-1.06
-0.66
-0.03
0.71
1.38
1.80
1.90
1.64
1.12
0.50
-0.03
-0.31
-0.29
-0.04
0.25
0.44
0.40
0.16
-0.19
-0.53
-0.78
-0.95
-1.11
-1.28
-1.49
-1.68
-1.81
-1.89
-2.00
-2.21
-2.53
-2.84
-2.99
-2.82
-2.31
-1.59
-0.91
-0.48
-0.38
-0.56
-0.85
-1.07
-1.17
-1.17
-1.14
-1.13
-1.14
-1.17
-1.17
-1.15
-1.12
-1.07
-0.99
-0.87
-0.72
-0.62
-0.67
-1.00
-1.65
-2.54
-3.51
-4.33
-4.80
-4.82
-4.39
-3.63
-2.71
-1.78
-0.99
-0.42
-0.12
-0.09
-0.33
-0.74
-1.25
-1.76
-2.24
-2.70
-3.17
-3.66
-4.12
-4.45
-4.52
-4.30
-3.81
-3.13
-2.42
-1.79
-1.33
-1.10
-1.07
-1.20
-1.42
-1.61
-1.70
-1.63
-1.40
-1.01
-0.54
-0.02
0.50
0.94
1.30
1.53
1.67
1.74
1.74
1.66
1.46
1.14
0.75
0.38
0.14
0.10
0.23
0.44
0.56
0.47
0.06
-0.64
-1.54
-2.49
-3.32
-3.95
-4.33
-4.47
-4.42
-4.20
-3.85
-3.41
-2.95
-2.58
-2.36
-2.31
-2.36
-2.38
-2.29
-2.06
-1.76
-1.51
-1.42
-1.47
-1.61
-1.69
-1.66
-1.52
-1.35
-1.26
-1.31
-1.50
-1.78
-2.09
-2.38
-2.67
-2.94
-3.14
-3.14
-2.84
-2.16
-1.17
-0.05
0.97
1.70
2.04
2.03
1.76
1.37
1.00
0.70
0.47
0.29
0.10
-0.12
-0.36
-0.57
-0.69
-0.75
-0.83
-1.05
-1.47
-2.11
-2.84
-3.46
-3.81
-3.81
-3.42
-2.72
-1.78
-0.70
0.45
1.54
2.45
3.03
3.17
2.86
2.17
1.28
0.40
-0.27
-0.65
-0.73
-0.64
-0.54
-0.55
-0.73
-0.98
-1.19
-1.25
-1.17
-1.03
-1.00
-1.17
-1.56
-2.06
-2.53
-2.85
-2.96
-2.88
-2.64
-2.27
-1.76
-1.09
-0.30
0.54
1.28
1.81
2.08
2.13
2.07
1.98
1.92
1.88
1.80
1.65
1.43
1.20
1.03
0.95
0.93
0.95
0.92
0.82
0.60
0.25
-0.28
-0.99
-1.82
-2.69
-3.42
-3.88
-3.95
-3.58
-2.78
-1.61
-0.18
1.41
3.00
4.40
5.42
5.90
5.83
5.30
4.55
3.81
3.27
3.00
2.91
2.88
2.84
2.79
2.76
2.77
2.75
2.60
2.25
1.72
1.14
0.66
0.35
0.14
-0.10
-0.51
-1.13
-1.90
-2.70
-3.42
-3.93
-4.17
-4.05
-3.54
-2.63
-1.42
-0.07
1.19
2.20
2.86
3.18
3.21
3.04
2.81
2.65
2.69
3.03
3.68
4.52
5.34
5.92
6.14
6.02
5.68
5.30
4.98
4.67
4.27
3.67
2.91
2.12
1.50
1.16
1.08
1.08
1.00
0.80
0.59
0.57
0.93
1.74
2.91
4.32
5.77
7.11
8.14
8.65
8.47
7.54
6.06
4.36
2.88
1.88
1.40
1.31
1.38
1.45
1.51
1.61
1.77
1.91
1.89
1.59
1.06
0.41
-0.19
-0.67
-1.03
-1.41
-1.89
-2.46
-3.00
-3.33
-3.31
-2.88
-2.11
-1.07
0.11
1.37
2.62
3.77
4.68
5.21
5.31
4.98
4.36
3.61
2.89
2.30
1.88
1.63
1.55
1.58
1.64
1.63
1.50
1.25
0.97
0.78
0.76
0.87
0.99
0.98
0.71
0.18
-0.53
-1.31
-2.07
-2.73
-3.21
-3.38
-3.14
-2.43
-1.33
0.00
1.36
2.55
3.50
4.22
4.75
5.13
5.35
5.36
5.14
4.72
4.19
3.68
3.27
2.99
2.82
2.71
2.61
2.52
2.41
2.31
2.18
2.00
1.69
1.24
0.64
-0.07
-0.81
-1.45
-1.91
-2.09
-1.96
-1.50
-0.77
0.13
1.06
1.88
2.46
2.73
2.70
2.44
2.08
1.77
1.62
1.67
1.94
2.34
2.75
3.07
3.19
3.08
2.79
2.42
2.10
1.95
1.97
2.08
2.15
2.07
1.81
1.41
0.96
0.55
0.25
0.12
0.23
0.64
1.37
2.39
3.58
4.75
5.74
6.42
6.76
6.85
6.76
6.60
6.42
6.26
6.13
6.01
5.88
5.66
5.34
4.87
4.28
3.61
2.91
2.24
1.66
1.19
0.82
0.47
0.04
-0.54
-1.31
-2.19
-3.06
-3.73
-4.08
-4.09
-3.77
-3.23
-2.54
-1.77
-0.96
-0.15
0.59
1.20
1.60
1.77
1.74
1.58
1.38
1.19
1.07
1.04
1.09
1.23
1.42
1.59
1.71
1.75
1.73
1.74
1.84
2.02
2.18
2.16
1.76
0.92
-0.28
-1.60
-2.78
-3.58
-3.89
-3.75
-3.27
-2.62
-1.91
-1.23
-0.62
-0.15
0.08
0.00
-0.40
-1.01
-1.62
-2.01
-2.03
-1.72
-1.28
-1.02
-1.11
-1.60
-2.35
-3.10
-3.61
-3.76
-3.54
-3.09
-2.62
-2.27
-2.20
-2.46
-3.02
-3.77
-4.51
-5.01
-5.10
-4.63
-3.64
-2.26
-0.73
0.73
1.88
2.58
2.77
2.48
1.83
1.01
0.23
-0.36
-0.68
-0.73
-0.59
-0.38
-0.19
-0.08
-0.04
-0.07
-0.17
-0.35
-0.66
-1.15
-1.84
-2.75
-3.79
-4.85
-5.78
-6.42
-6.65
-6.40
-5.68
-4.56
-3.22
-1.89
-0.77
-0.04
0.29
0.28
0.08
-0.15
-0.28
-0.20
0.10
0.64
1.39
2.27
3.22
4.10
4.80
5.23
5.37
5.27
5.04
4.79
4.61
4.47
4.31
4.06
3.73
3.43
3.35
3.65
4.38
5.38
6.39
7.13
7.44
7.36
6.98
6.43
5.72
4.80
3.59
2.11
0.54
-0.87
-1.94
-2.64
-3.08
-3.44
-3.84
-4.27
-4.62
-4.80
-4.77
-4.65
-4.58
-4.72
-5.12
-5.69
-6.28
-6.69
-6.76
-6.41
-5.63
-4.53
-3.23
-1.95
-0.86
-0.09
0.31
0.41
0.34
0.27
0.27
0.34
0.42
0.47
0.47
0.49
0.61
0.86
1.22
1.58
1.88
2.05
2.07
1.90
1.48
0.78
-0.19
-1.28
-2.30
-3.01
-3.33
-3.21
-2.74
-2.03
-1.14
-0.18
0.75
1.48
1.87
1.85
1.53
1.14
0.89
0.91
1.14
1.43
1.59
1.53
1.29
0.98
0.69
0.43
0.16
-0.15
-0.54
-0.96
-1.33
-1.61
-1.79
-1.86
-1.83
-1.68
-1.35
-0.86
-0.22
0.46
1.08
1.58
1.91
2.11
2.18
2.17
2.09
1.97
1.85
1.79
1.82
1.95
2.14
2.38
2.65
2.96
3.32
3.67
3.94
4.01
3.76
3.18
2.31
1.30
0.33
-0.47
-0.98
-1.19
-1.13
-0.87
-0.49
-0.01
0.53
1.13
1.76
2.35
2.80
2.98
2.82
2.34
1.64
0.88
0.21
-0.29
-0.64
-0.89
-1.09
-1.25
-1.31
-1.23
-1.05
-0.83
-0.73
-0.87
-1.28
-1.88
-2.49
-2.88
-2.88
-2.47
-1.74
-0.85
0.02
0.78
1.40
1.86
2.16
2.24
2.10
1.79
1.41
1.13
1.03
1.15
1.42
1.77
2.09
2.32
2.41
2.31
2.00
1.52
0.97
0.46
0.09
-0.14
-0.32
-0.54
-0.84
-1.14
-1.27
-1.09
-0.54
0.28
1.13
1.83
2.23
2.34
2.19
1.88
1.41
0.82
0.16
-0.47
-0.97
-1.25
-1.33
-1.32
-1.34
-1.45
-1.67
-1.91
-2.11
-2.20
-2.18
-2.06
-1.90
-1.78
-1.78
-1.97
-2.36
-2.87
-3.32
-3.50
-3.27
-2.57
-1.50
-0.23
1.02
2.06
2.72
2.91
2.63
2.00
1.24
0.62
0.31
0.39
0.75
1.17
1.44
1.43
1.14
0.68
0.20
-0.20
-0.48
-0.69
-0.90
-1.16
-1.49
-1.84
-2.13
-2.24
-2.13
-1.80
-1.32
-0.83
-0.43
-0.19
-0.09
-0.05
0.01
0.12
0.23
0.21
-0.01
-0.45
-0.99
-1.45
-1.68
-1.61
-1.30
-0.88
-0.49
-0.21
-0.05
0.01
-0.02
-0.18
-0.49
-0.95
-1.45
-1.86
-2.05
-1.94
-1.54
-0.94
-0.24
0.46
1.10
1.61
2.00
2.28
2.48
2.64
2.81
3.02
3.28
3.51
3.65
3.65
3.51
3.29
3.03
2.76
2.47
2.17
1.83
1.48
1.26
1.26
1.49
1.89
2.36
2.87
3.46
4.26
5.31
6.72
8.45
10.28
11.93
13.21
14.08
14.67
15.17
15.73
16.77
18.50
20.85
23.50
26.01
28.09
29.71
31.03
32.26
34.14
37.12
41.15
45.68
49.91
53.15
55.02
55.48
54.70
53.81
53.87
55.41
58.20
61.31
63.58
64.10
62.65
54.84
39.16
17.06
-7.35
-29.42
-46.32
-57.66
-64.63
-68.71
-71.04
-71.52
-70.01
-66.77
-62.56
-58.38
-54.95
-52.55
-50.92
-49.68
-47.92
-45.14
-41.35
-37.02
-32.45
-27.63
-22.25
-16.09
-9.51
-3.08
2.37
6.26
8.48
9.39
9.93
10.06
9.63
8.25
5.86
2.76
-0.51
-3.49
-6.01
-8.25
-10.54
-12.96
-15.31
-17.23
-18.23
-18.02
-16.69
-14.49
-11.77
-8.91
-6.09
-3.50
-1.24
0.66
2.22
3.37
4.11
4.41
4.21
3.44
2.01
-0.21
-3.45
-6.98
-10.58
-14.09
-17.52
-20.86
-24.15
-27.32
-30.28
-32.84
-34.85
-36.30
-37.23
-37.74
-37.87
-37.65
-36.96
-35.72
-33.79
-31.20
-28.08
-24.65
-21.09
-17.55
-14.14
-10.96
-8.11
-5.65
-3.65
-2.18
-1.22
-0.69
-0.40
-0.20
0.03
0.32
0.61
0.76
0.61
0.11
-0.64
-1.45
-2.12
-2.52
-2.57
-2.28
-1.64
-0.73
0.42
1.67
2.87
3.83
4.42
4.68
4.69
4.58
4.40
4.23
4.09
4.07
4.26
4.68
5.24
5.75
5.99
5.81
5.28
4.50
3.65
2.90
2.31
1.84
1.48
1.27
1.30
1.69
2.46
3.51
4.62
5.54
6.06
6.18
6.01
5.72
5.47
5.23
4.95
4.54
3.95
3.26
2.61
2.16
1.96
2.00
2.14
2.26
2.26
2.03
1.64
1.17
0.72
0.34
0.06
-0.18
-0.36
-0.47
-0.47
-0.27
0.10
0.56
0.98
1.21
1.16
0.84
0.32
-0.33
-0.96
-1.52
-1.93
-2.13
-2.10
-1.88
-1.49
-1.03
-0.64
-0.41
-0.44
-0.77
-1.34
-2.02
-2.65
-3.00
-2.92
-2.38
-1.45
-0.32
0.78
1.67
2.26
2.59
2.77
2.91
3.05
3.20
3.26
3.19
3.00
2.70
2.36
2.00
1.68
1.41
1.21
1.01
0.76
0.34
-0.25
-1.03
-1.84
-2.49
-2.78
-2.60
-1.95
-0.91
0.42
1.93
3.42
4.69
5.56
5.91
5.75
5.18
4.36
3.40
2.35
1.29
0.29
-0.52
-0.97
-0.95
-0.54
0.05
0.54
0.66
0.38
-0.22
-0.89
-1.46
-1.77
-1.86
-1.83
-1.78
-1.72
-1.58
-1.25
-0.62
0.28
1.37
2.44
3.42
4.25
4.90
5.37
5.59
5.53
5.18
4.59
3.94
3.37
3.01
2.85
2.75
2.49
1.95
1.07
-0.04
-1.18
-2.11
-2.61
-2.60
-2.06
-1.16
-0.11
0.84
1.59
2.05
2.23
2.13
1.82
1.38
0.85
0.32
-0.17
-0.53
-0.77
-0.90
-0.95
-0.94
-0.87
-0.77
-0.69
-0.74
-1.00
-1.54
-2.42
-3.52
-4.67
-5.65
-6.26
-6.36
-5.96
-5.12
-3.98
-2.75
-1.58
-0.60
0.10
0.53
0.73
0.77
0.70
0.59
0.48
0.46
0.54
0.72
0.90
0.92
0.65
0.04
-0.84
-1.81
-2.69
-3.38
-3.84
-4.05
-4.03
-3.75
-3.18
-2.34
-1.26
-0.06
1.10
2.06
2.69
2.97
2.94
2.68
2.27
1.75
1.10
0.32
-0.53
-1.30
-1.77
-1.77
-1.29
-0.48
0.37
0.93
1.02
0.66
0.02
-0.67
-1.28
-1.72
-1.99
-2.01
-1.76
-1.13
-0.07
1.34
2.94
4.45
5.69
6.56
7.05
7.13
6.81
6.08
4.95
3.56
2.10
0.81
-0.11
-0.63
-0.88
-1.03
-1.27
-1.64
-2.07
-2.41
-2.58
-2.60
-2.55
-2.53
-2.58
-2.68
-2.78
-2.76
-2.60
-2.32
-1.94
-1.46
-0.81
0.08
1.21
2.46
3.68
4.68
5.33
5.57
5.44
4.99
4.31
3.52
2.67
1.89
1.26
0.87
0.71
0.70
0.70
0.68
0.58
0.38
0.10
-0.24
-0.62
-1.01
-1.34
-1.57
-1.65
-1.57
-1.40
-1.19
-0.95
-0.67
-0.29
0.25
0.90
1.54
2.00
2.17
2.01
1.57
0.93
0.23
-0.44
-1.02
-1.45
-1.70
-1.74
-1.58
-1.27
-0.83
-0.25
0.46
1.23
1.98
2.54
2.78
2.65
2.20
1.53
0.72
-0.21
-1.34
-2.67
-4.07
-5.25
-5.85
-5.61
-4.53
-2.85
-0.88
1.10
2.95
4.60
6.00
7.04
7.52
7.35
6.55
5.39
4.22
3.33
2.86
2.74
2.75
2.69
2.45
2.04
1.60
1.22
0.95
0.70
0.29
-0.43
-1.51
-2.90
-4.49
-6.17
-7.83
-9.36
-10.59
-11.31
-11.31
-10.43
-8.69
-6.30
-3.62
-1.01
1.19
2.78
3.66
3.83
3.41
2.54
1.39
0.09
-1.20
-2.41
-3.45
-4.22
-4.63
-4.59
-4.14
-3.40
-2.58
-1.87
-1.41
-1.22
-1.27
-1.49
-1.86
-2.29
-2.72
-3.02
-3.07
-2.77
-2.10
-1.11
0.08
1.28
2.40
3.31
4.00
4.46
4.77
4.98
5.11
5.13
5.07
5.00
5.01
5.18
5.47
5.74
5.72
5.25
4.24
2.86
1.32
-0.17
-1.52
-2.75
-3.89
-4.98
-6.00
-6.89
-7.60
-8.07
-8.24
-8.05
-7.44
-6.40
-4.95
-3.22
-1.46
0.08
1.19
1.76
1.81
1.43
0.80
0.08
-0.63
-1.33
-2.04
-2.83
-3.74
-4.73
-5.75
-6.72
-7.59
-8.40
-9.26
-10.30
-11.68
-13.41
-15.41
-17.53
-19.59
-21.49
-23.22
-24.84
-26.43
-28.08
-29.74
-31.42
-33.15
-35.00
-37.01
-39.01
-40.62
-41.25
-40.21
-36.98
-31.38
-23.63
-14.24
-3.92
6.63
16.69
25.57
32.80
38.05
41.29
42.73
42.80
41.89
40.33
38.28
35.77
32.89
29.71
26.45
23.35
20.71
18.70
17.48
17.04
17.34
18.22
19.41
20.62
21.54
21.91
21.58
20.56
19.02
17.21
15.39
13.65
11.97
10.33
8.64
6.96
5.43
4.20
3.36
2.85
2.53
2.22
1.86
1.42
0.98
0.55
0.07
-0.58
-1.46
-2.56
-3.67
-4.61
-5.13
-5.09
-4.47
-3.40
-2.06
-0.65
0.67
1.85
2.89
3.78
4.46
4.88
4.90
4.51
3.84
3.08
2.42
1.92
1.51
1.00
0.26
-0.75
-1.91
-3.05
-3.95
-4.51
-4.73
-4.72
-4.60
-4.51
-4.56
-4.75
-5.00
-5.21
-5.23
-4.98
-4.45
-3.72
-2.84
-1.91
-0.91
0.13
1.12
1.96
2.54
2.78
2.70
2.43
2.13
1.90
1.78
1.68
1.55
1.25
0.83
0.28
-0.31
-0.87
-1.34
-1.69
-1.92
-2.03
-2.03
-1.96
-1.90
-1.89
-1.97
-2.13
-2.28
-2.33
-2.16
-1.73
-1.03
-0.10
0.97
2.02
2.90
3.49
3.74
3.70
3.46
3.17
2.94
2.79
2.73
2.72
2.75
2.84
2.98
3.17
3.33
3.45
3.47
3.39
3.22
2.98
2.69
2.41
2.19
2.00
1.74
1.31
0.64
-0.22
-1.10
-1.69
-1.73
-1.14
-0.06
1.20
2.32
3.12
3.54
3.63
3.50
3.17
2.73
2.24
1.85
1.69
1.81
2.10
2.33
2.31
1.91
1.18
0.32
-0.40
-0.84
-0.98
-0.98
-0.98
-1.11
-1.40
-1.79
-2.13
-2.31
-2.30
-2.22
-2.15
-2.15
-2.15
-2.02
-1.69
-1.17
-0.67
-0.43
-0.66
-1.31
-2.20
-3.05
-3.68
-4.03
-4.17
-4.23
-4.22
-4.10
-3.77
-3.30
-2.81
-2.53
-2.59
-3.00
-3.62
-4.22
-4.56
-4.58
-4.39
-4.14
-3.97
-3.94
-3.95
-3.89
-3.61
-3.12
-2.50
-1.85
-1.21
-0.45
0.58
2.04
3.92
6.02
7.99
9.46
10.18
10.15
9.53
8.59
7.61
6.73
5.91
5.07
4.08
2.92
1.64
0.39
-0.65
-1.32
-1.55
-1.37
-0.91
-0.34
0.09
0.15
-0.30
-1.31
-2.79
-4.55
-6.45
-8.32
-9.98
-11.38
-12.43
-13.17
-13.61
-13.82
-13.82
-13.60
-13.15
-12.46
-11.53
-10.40
-9.17
-7.98
-7.04
-6.45
-6.26
-6.38
-6.54
-6.40
-5.61
-4.02
-1.70
1.06
3.84
6.22
7.84
8.52
8.17
6.88
4.83
2.28
-0.44
-2.94
-4.83
-5.89
-6.10
-5.60
-4.65
-3.47
-2.20
-0.90
0.37
1.60
2.71
3.75
4.75
5.78
6.84
7.90
8.77
9.25
9.20
8.61
7.56
6.19
4.62
2.97
1.32
-0.24
-1.63
-2.75
-3.52
-3.87
-3.76
-3.21
-2.29
-1.16
0.07
1.21
2.19
2.90
3.32
3.46
3.35
3.08
2.77
2.58
2.63
2.99
3.65
4.55
5.65
6.80
7.85
8.59
8.91
8.77
8.28
7.52
6.53
5.31
3.74
1.77
-0.49
-2.79
-4.79
-6.21
-6.96
-7.18
-6.99
-6.53
-5.76
-4.62
-3.08
-1.26
0.59
2.21
3.34
3.98
4.20
4.17
4.03
3.77
3.36
2.75
1.99
1.10
0.26
-0.46
-0.99
-1.27
-1.43
-1.54
-1.68
-1.88
-2.15
-2.37
-2.47
-2.37
-1.96
-1.30
-0.41
0.58
1.58
2.37
2.82
2.77
2.17
1.14
-0.13
-1.33
-2.17
-2.52
-2.40
-1.97
-1.53
-1.28
-1.28
-1.44
-1.57
-1.49
-1.22
-0.90
-0.79
-1.12
-1.91
-2.91
-3.80
-4.24
-4.05
-3.30
-2.17
-0.89
0.30
1.26
1.84
1.99
1.70
1.06
0.22
-0.63
-1.33
-1.91
-2.44
-3.00
-3.63
-4.27
-4.77
-4.98
-4.82
-4.29
-3.49
-2.55
-1.58
-0.70
0.03
0.61
1.01
1.31
1.64
2.11
2.79
3.66
4.62
5.53
6.26
6.71
6.85
6.68
6.19
5.45
4.46
3.30
2.09
0.97
0.06
-0.59
-0.97
-1.22
-1.42
-1.74
-2.28
-3.07
-4.04
-5.05
-5.84
-6.17
-5.93
-5.14
-4.04
-2.94
-2.08
-1.50
-1.12
-0.73
-0.22
0.37
1.00
1.54
1.93
2.25
2.53
2.82
3.10
3.34
3.51
3.62
3.62
3.39
2.88
1.96
0.68
-0.87
-2.47
-3.90
-4.95
-5.51
-5.53
-5.00
-3.99
-2.59
-0.92
0.93
2.82
4.62
6.16
7.31
8.02
8.21
7.96
7.36
6.49
5.45
4.28
3.04
1.76
0.47
-0.79
-1.97
-3.01
-3.91
-4.65
-5.24
-5.65
-5.85
-5.78
-5.36
-4.55
-3.36
-1.90
-0.31
1.27
2.76
4.09
5.23
6.19
6.91
7.34
7.43
7.18
6.64
5.92
5.15
4.41
3.81
3.40
3.17
3.10
3.12
3.16
3.18
3.15
3.00
2.67
2.01
0.87
-0.85
-3.09
-5.61
-8.01
-9.80
-10.62
-10.29
-8.97
-6.96
-4.65
-2.39
-0.42
1.11
2.16
2.69
2.76
2.42
1.75
0.86
-0.15
-1.17
-2.10
-2.81
-3.23
-3.37
-3.31
-3.14
-2.96
-2.77
-2.58
-2.41
-2.27
-2.21
-2.24
-2.30
-2.23
-1.89
-1.22
-0.24
0.94
2.16
3.26
4.09
4.53
4.54
4.13
3.42
2.56
1.74
1.15
0.92
1.12
1.79
2.87
4.18
5.49
6.54
7.06
6.98
6.27
5.03
3.40
1.50
-0.55
-2.61
-4.47
-5.99
-7.06
-7.66
-7.85
-7.73
-7.43
-7.10
-6.78
-6.51
-6.31
-6.12
-5.89
-5.63
-5.31
-4.97
-4.62
-4.27
-3.91
-3.56
-3.25
-3.08
-3.16
-3.54
-4.18
-4.94
-5.62
-6.09
-6.28
-6.26
-6.12
-5.93
-5.59
-4.96
-3.91
-2.32
-0.28
1.99
4.25
6.23
7.76
8.74
9.11
8.87
8.14
7.09
5.91
4.80
3.85
3.05
2.37
1.77
1.31
1.10
1.23
1.69
2.43
3.31
4.25
5.12
5.84
6.25
6.27
5.81
4.91
3.76
2.56
1.55
0.88
0.58
0.57
0.78
1.03
1.23
1.25
0.99
0.40
-0.46
-1.53
-2.65
-3.67
-4.52
-5.11
-5.42
-5.46
-5.29
-4.98
-4.67
-4.45
-4.30
-4.20
-4.02
-3.67
-3.17
-2.62
-2.13
-1.77
-1.45
-1.01
-0.29
0.80
2.22
3.75
5.15
6.18
6.69
6.71
6.33
5.72
5.10
4.63
4.36
4.34
4.53
4.79
5.01
5.05
4.80
4.24
3.39
2.34
1.27
0.34
-0.37
-0.81
-1.04
-1.16
-1.23
-1.30
-1.30
-1.11
-0.59
0.29
1.58
3.20
5.05
7.04
9.00
10.76
12.10
12.90
13.14
12.91
12.30
11.41
10.31
9.07
7.84
6.96
6.75
7.46
8.89
10.33
10.76
9.12
4.73
-2.29
-11.12
-20.32
-28.25
-33.39
-34.69
-31.66
-24.56
-14.40
-2.66
8.82
18.35
24.75
27.54
26.93
23.63
18.64
13.20
8.72
6.56
7.82
12.93
21.56
32.70
44.93
56.78
66.85
73.83
76.58
74.33
67.17
56.17
43.49
31.70
22.99
18.56
18.39
21.56
26.89
33.31
39.89
45.80
50.04
51.64
50.09
45.61
39.38
33.14
28.57
26.67
27.56
30.40
33.88
36.69
37.81
36.80
33.67
28.94
23.34
17.65
12.46
8.02
4.42
1.63
-0.28
-1.17
-1.00
-0.05
1.06
1.48
0.58
-1.78
-5.21
-8.97
-12.27
-14.69
-16.25
-17.31
-18.41
-20.05
-22.53
-26.00
-30.44
-35.59
-41.00
-46.08
-50.28
-53.34
-55.43
-57.16
-59.29
-62.46
-66.85
-72.22
-78.05
-83.71
-88.79
-93.10
-96.65
-99.41
-101.24
-101.88
-101.08
-98.81
-95.30
-91.11
-86.92
-83.36
-80.73
-78.89
-77.37
-75.58
-73.04
-69.49
-64.94
-59.55
-53.51
-46.98
-40.10
-32.97
-25.73
-18.65
-12.01
-6.09
-1.08
2.99
6.23
8.89
11.24
13.55
15.95
18.49
21.16
23.90
26.61
29.10
31.18
32.58
33.17
32.91
31.88
30.24
28.09
25.54
22.65
19.57
16.53
13.83
11.74
10.30
9.38
8.66
7.83
6.72
5.33
3.83
2.47
1.40
0.66
0.18
-0.13
-0.31
-0.37
-0.28
-0.11
0.10
0.31
0.52
0.78
1.25
2.03
3.13
4.46
5.77
6.83
7.48
7.65
7.45
7.02
6.47
5.89
5.32
4.71
4.13
3.66
3.40
3.47
3.81
4.32
4.84
5.31
5.68
6.07
6.58
7.20
7.84
8.24
8.17
7.54
6.52
5.35
4.39
3.85
3.78
4.12
4.74
5.52
6.42
7.46
8.59
9.74
10.70
11.23
11.19
10.57
9.53
8.37
7.33
6.50
5.76
4.85
3.52
1.77
-0.22
-2.16
-3.77
-5.02
-6.04
-7.09
-8.31
-9.68
-10.98
-11.99
-12.53
-12.58
-12.24
-11.63
-10.86
-9.95
-8.97
-7.96
-7.01
-6.27
-5.83
-5.81
-6.21
-6.95
-7.88
-8.76
-9.32
-9.37
-8.85
-7.85
-6.62
-5.39
-4.33
-3.46
-2.70
-1.95
-1.13
-0.25
0.65
1.52
2.39
3.33
4.36
5.48
6.60
7.58
8.34
8.84
9.12
9.26
9.38
9.49
9.53
9.34
8.76
7.73
6.32
4.72
3.24
2.15
1.65
1.79
2.42
3.28
4.04
4.42
4.27
3.54
2.28
0.64
-1.27
-3.28
-5.23
-6.89
-8.00
-8.37
-7.91
-6.79
-5.24
-3.59
-2.10
-0.97
-0.18
0.41
0.99
1.76
2.80
4.04
5.32
6.42
7.14
7.39
7.13
6.37
5.22
3.75
2.13
0.56
-0.73
-1.55
-1.89
-1.85
-1.69
-1.58
-1.55
-1.51
-1.29
-0.78
0.04
1.06
2.11
3.12
4.11
5.10
6.08
6.97
7.57
7.80
7.69
7.36
6.97
6.63
6.26
5.70
4.88
3.77
2.50
1.24
0.17
-0.64
-1.21
-1.64
-2.04
-2.50
-3.03
-3.54
-3.92
-3.99
-3.64
-2.82
-1.63
-0.24
1.03
1.93
2.33
2.29
1.97
1.65
1.50
1.58
1.87
2.22
2.54
2.80
3.06
3.33
3.61
3.81
3.83
3.59
3.07
2.30
1.36
0.33
-0.69
-1.65
-2.51
-3.25
-3.83
-4.21
-4.28
-3.96
-3.22
-2.12
-0.81
0.45
1.41
1.98
2.12
1.96
1.68
1.41
1.26
1.24
1.28
1.31
1.26
1.12
0.90
0.67
0.39
0.06
-0.40
-0.97
-1.61
-2.19
-2.57
-2.61
-2.26
-1.53
-0.49
0.75
2.09
3.37
4.45
5.16
5.46
5.38
4.99
4.41
3.77
3.13
2.53
1.95
1.42
1.01
0.78
0.73
0.78
0.81
0.64
0.21
-0.50
-1.42
-2.41
-3.39
-4.29
-5.09
-5.74
-6.23
-6.50
-6.50
-6.20
-5.60
-4.74
-3.80
-2.96
-2.48
-2.55
-3.22
-4.37
-5.79
-7.25
-8.60
-9.80
-10.81
-11.69
-12.45
-13.10
-13.75
-14.55
-15.56
-16.72
-17.78
-18.32
-18.01
-16.71
-14.51
-11.78
-9.02
-6.65
-4.96
-4.16
-4.29
-5.26
-6.92
-8.97
-11.18
-13.43
-15.70
-18.01
-20.31
-22.35
-23.73
-23.89
-22.32
-18.68
-12.94
-5.46
3.15
12.15
21.07
29.73
38.41
47.59
57.63
68.56
80.04
91.49
102.36
112.19
120.63
127.19
131.19
131.91
128.82
121.93
111.85
99.62
86.31
72.67
59.01
45.36
31.77
18.58
6.37
-4.24
-12.84
-19.45
-24.46
-28.43
-31.78
-34.69
-37.02
-38.63
-39.52
-39.96
-40.47
-41.61
-43.73
-46.80
-50.41
-53.91
-56.66
-58.31
-58.88
-58.72
-58.18
-57.43
-56.30
-54.48
-51.69
-48.02
-43.98
-40.32
-37.77
-36.73
-36.97
-37.84
-38.50
-38.26
-36.80
-34.32
-31.30
-28.32
-25.74
-23.65
-21.81
-19.78
-16.99
-12.84
-6.63
2.20
13.73
27.19
40.76
51.98
58.52
59.13
54.19
45.49
35.51
26.38
19.24
14.19
10.74
8.36
6.83
6.15
6.26
6.86
7.40
7.31
6.37
4.67
2.61
0.60
-1.07
-2.39
-3.54
-4.77
-6.19
-7.71
-9.04
-9.81
-9.74
-8.81
-7.27
-5.59
-4.27
-3.72
-4.12
-5.35
-7.02
-8.61
-9.63
-9.83
-9.15
-7.87
-6.40
-5.12
-4.22
-3.70
-3.40
-3.16
-2.91
-2.67
-2.46
-2.26
-1.97
-1.47
-0.79
-0.05
0.55
0.83
0.79
0.59
0.51
0.78
1.43
2.28
3.01
3.33
3.11
2.48
1.71
1.08
0.70
0.52
0.36
0.07
-0.36
-0.84
-1.27
-1.64
-2.13
-3.02
-4.54
-6.72
-9.36
-12.06
-14.42
-16.11
-17.03
-17.25
-16.93
-16.22
-15.27
-14.14
-12.88
-11.58
-10.43
-9.59
-9.14
-9.03
-9.04
-8.90
-8.47
-7.69
-6.70
-5.69
-4.88
-4.40
-4.29
-4.54
-5.06
-5.76
-6.47
-7.02
-7.24
-7.02
-6.37
-5.36
-4.14
-2.83
-1.55
-0.35
0.72
1.66
2.46
3.11
3.64
4.04
4.31
4.45
4.48
4.46
4.47
4.62
4.98
5.56
6.36
7.32
8.36
9.36
10.14
10.57
10.62
10.37
9.96
9.56
9.26
9.09
9.06
9.20
9.61
10.40
11.55
12.88
14.12
14.99
15.31
15.12
14.57
13.86
13.13
12.42
11.67
10.81
9.81
8.68
7.50
6.34
5.28
4.29
3.32
2.23
0.99
-0.38
-1.73
-2.84
-3.55
-3.78
-3.64
-3.24
-2.76
-2.27
-1.77
-1.20
-0.53
0.24
1.05
1.77
2.30
2.50
2.25
1.51
0.32
-1.13
-2.51
-3.43
-3.63
-3.03
-1.79
-0.30
0.98
1.55
1.04
-0.76
-3.84
-7.99
-12.79
-17.73
-22.30
-26.03
-28.62
-29.94
-29.95
-28.74
-26.49
-23.39
-19.67
-15.62
-11.49
-7.50
-3.80
-0.40
2.77
5.83
8.83
11.71
14.32
16.49
18.13
19.25
19.94
20.33
20.45
20.30
19.84
19.10
18.18
17.14
16.01
14.72
13.15
11.23
9.05
6.81
4.84
3.38
2.53
2.18
2.13
2.21
2.34
2.47
2.60
2.72
2.81
2.87
2.95
3.12
3.40
3.70
3.89
3.80
3.37
2.71
1.99
1.42
1.05
0.82
0.57
0.16
-0.48
-1.35
-2.33
-3.33
-4.18
-4.72
-4.72
-4.00
-2.46
-0.16
2.64
5.59
8.33
10.61
12.20
13.04
13.13
12.56
11.49
10.09
8.58
7.15
5.99
5.22
4.86
4.86
5.03
5.15
5.02
4.53
3.69
2.62
1.44
0.29
-0.70
-1.40
-1.66
-1.39
-0.60
0.54
1.82
3.02
3.98
4.64
4.93
4.80
4.21
3.24
2.12
1.21
0.88
1.31
2.41
3.86
5.25
6.32
6.95
7.23
7.19
6.82
5.99
4.57
2.53
-0.08
-3.13
-6.54
-10.30
-14.37
-18.63
-22.70
-26.04
-28.11
-28.54
-27.29
-24.59
-20.86
-16.51
-11.87
-7.12
-2.38
2.21
6.46
10.10
12.82
14.38
14.70
13.91
12.27
10.14
7.79
5.42
3.20
1.27
-0.17
-0.93
-0.89
-0.08
1.31
3.05
5.01
7.10
9.24
11.27
12.86
13.64
13.32
11.83
9.38
6.38
3.28
0.38
-2.15
-4.36
-6.40
-8.39
-10.40
-12.37
-14.23
-15.77
-16.89
-17.59
-18.02
-18.45
-19.15
-20.24
-21.60
-22.95
-23.90
-24.12
-23.43
-21.81
-19.34
-16.17
-12.37
-8.01
-3.24
1.68
6.45
10.80
14.52
17.58
20.07
22.10
23.78
25.14
26.14
26.70
26.77
26.30
25.28
23.74
21.73
19.30
16.44
13.10
9.25
4.92
0.26
-4.43
-8.75
-12.28
-14.67
-15.73
-15.46
-14.09
-11.96
-9.43
-6.83
-4.40
-2.26
-0.44
1.06
2.30
3.30
4.01
4.36
4.27
3.74
2.92
2.07
1.50
1.45
1.96
2.89
3.96
4.83
5.20
4.86
3.68
1.62
-1.23
-4.65
-8.28
-11.67
-14.40
-16.13
-16.68
-16.01
-14.16
-11.15
-7.03
-1.88
4.06
10.32
16.28
21.29
24.83
26.67
26.87
25.69
23.52
20.68
17.38
13.76
9.83
5.62
1.22
-3.17
-7.26
-10.71
-13.25
-14.75
-15.21
-14.74
-13.45
-11.43
-8.88
-6.00
-3.11
-0.51
1.60
3.19
4.36
5.28
6.07
6.74
7.20
7.37
7.20
6.71
6.02
5.24
4.48
3.85
3.41
3.16
3.08
3.06
2.96
2.68
2.17
1.42
0.54
-0.35
-1.18
-1.91
-2.63
-3.43
-4.35
-5.38
-6.39
-7.19
-7.63
-7.63
-7.21
-6.48
-5.56
-4.56
-3.59
-2.73
-2.03
-1.54
-1.20
-0.85
-0.30
0.62
1.97
3.61
5.29
6.75
7.79
8.37
8.57
8.45
8.04
7.31
6.21
4.78
3.16
1.49
-0.07
-1.45
-2.58
-3.40
-3.82
-3.77
-3.19
-2.15
-0.82
0.54
1.76
2.68
3.24
3.44
3.32
2.96
2.47
1.94
1.45
1.04
0.64
0.13
-0.55
-1.47
-2.57
-3.70
-4.73
-5.55
-6.18
-6.70
-7.23
-7.85
-8.60
-9.49
-10.51
-11.63
-12.73
-13.64
-14.08
-13.80
-12.72
-10.99
-8.97
-7.12
-5.79
-5.12
-5.03
-5.32
-5.69
-5.92
-5.82
-5.26
-4.19
-2.67
-0.89
0.87
2.31
3.25
3.61
3.55
3.26
2.95
2.71
2.49
2.20
1.76
1.20
0.62
0.20
0.12
0.48
1.31
2.54
3.98
5.44
6.63
7.32
7.39
6.84
5.82
4.58
3.32
2.24
1.39
0.79
0.42
0.23
0.15
0.05
-0.19
-0.67
-1.38
-2.22
-3.01
-3.59
-3.89
-3.95
-3.88
-3.79
-3.76
-3.72
-3.55
-3.14
-2.44
-1.53
-0.61
0.11
0.50
0.54
0.33
0.04
-0.22
-0.40
-0.49
-0.51
-0.45
-0.29
-0.03
0.26
0.50
0.59
0.54
0.43
0.43
0.63
1.04
1.51
1.81
1.78
1.43
0.94
0.58
0.61
1.13
2.12
3.39
4.69
5.81
6.60
6.94
6.82
6.25
5.31
4.15
2.93
1.81
0.86
0.11
-0.49
-0.98
-1.43
-1.82
-2.07
-2.13
-1.99
-1.74
-1.58
-1.67
-2.07
-2.73
-3.38
-3.77
-3.73
-3.26
-2.48
-1.52
-0.43
0.83
2.32
3.96
5.52
6.67
7.09
6.68
5.63
4.30
3.08
2.20
1.60
1.09
0.42
-0.50
-1.63
-2.79
-3.80
-4.59
-5.15
-5.51
-5.69
-5.69
-5.51
-5.22
-4.93
-4.73
-4.66
-4.63
-4.47
-4.01
-3.19
-2.09
-0.90
0.11
0.73
0.87
0.56
-0.10
-0.97
-1.93
-2.85
-3.69
-4.47
-5.23
-6.00
-6.75
-7.43
-7.97
-8.41
-8.81
-9.27
-9.83
-10.40
-10.73
-10.54
-9.56
-7.75
-5.22
-2.31
0.67
3.51
6.19
8.78
11.40
14.01
16.38
18.15
18.97
18.62
17.12
14.73
11.78
8.63
5.56
2.81
0.55
-1.08
-2.02
-2.33
-2.19
-1.93
-1.87
-2.32
-3.42
-5.14
-7.29
-9.59
-11.74
-13.47
-14.65
-15.22
-15.16
-14.41
-12.84
-10.34
-6.91
-2.72
1.86
6.28
9.99
12.61
13.93
13.99
12.98
11.20
8.99
6.68
4.54
2.76
1.39
0.37
-0.42
-1.15
-1.94
-2.82
-3.72
-4.47
-4.88
-4.81
-4.24
-3.29
-2.22
-1.23
-0.43
0.22
0.87
1.63
2.47
3.24
3.73
3.73
3.19
2.19
0.95
-0.21
-1.08
-1.52
-1.55
-1.31
-0.99
-0.73
-0.67
-0.87
-1.39
-2.34
-3.74
-5.47
-7.31
-8.86
-9.76
-9.78
-8.90
-7.28
-5.26
-3.15
-1.22
0.40
1.66
2.58
3.20
3.52
3.57
3.34
2.95
2.52
2.19
2.07
2.18
2.44
2.66
2.70
2.52
2.18
1.80
1.50
1.29
1.07
0.75
0.32
-0.11
-0.31
-0.01
0.90
2.34
4.02
5.54
6.59
7.02
6.89
6.39
5.69
4.94
4.16
3.37
2.51
1.63
0.79
0.10
-0.38
-0.67
-0.84
-1.00
-1.28
-1.70
-2.18
-2.57
-2.71
-2.46
-1.84
-0.89
0.25
1.51
2.85
4.26
5.70
7.07
8.25
9.08
9.48
9.42
8.97
8.24
7.32
6.29
5.19
4.04
2.87
1.70
0.55
-0.56
-1.64
-2.69
-3.70
-4.65
-5.44
-6.01
-6.36
-6.56
-6.74
-6.97
-7.22
-7.33
-7.10
-6.36
-5.15
-3.68
-2.24
-1.12
-0.42
-0.11
-0.07
-0.16
-0.29
-0.48
-0.76
-1.11
-1.45
-1.61
-1.43
-0.82
0.15
1.28
2.25
2.79
2.70
1.97
0.74
-0.73
-2.22
-3.56
-4.73
-5.79
-6.78
-7.64
-8.23
-8.28
-7.60
-6.25
-4.52
-2.88
-1.86
-1.68
-2.26
-3.19
-3.95
-4.16
-3.73
-2.80
-1.72
-0.88
-0.57
-0.92
-1.93
-3.44
-5.12
-6.55
-7.34
-7.23
-6.22
-4.55
-2.60
-0.76
0.72
1.78
2.50
3.05
3.56
3.98
4.11
3.67
2.44
0.45
-1.97
-4.37
-6.31
-7.69
-8.79
-10.30
-12.98
-17.33
-23.40
-30.73
-38.54
-45.96
-52.27
-57.08
-60.16
-61.47
-60.92
-58.30
-53.33
-45.86
-35.97
-24.03
-10.68
3.37
17.37
30.62
42.48
52.51
60.47
66.51
71.09
74.82
78.16
81.24
83.70
84.96
84.48
81.97
77.49
71.39
64.16
56.36
48.55
41.27
35.03
30.13
26.63
24.23
22.35
20.26
17.39
13.45
8.58
3.33
-1.65
-5.78
-8.77
-10.66
-11.69
-12.16
-12.28
-12.15
-11.80
-11.31
-10.88
-10.74
-11.13
-12.12
-13.60
-15.37
-17.25
-19.09
-20.86
-22.53
-24.03
-25.15
-25.66
-25.38
-24.32
-22.71
-20.85
-19.11
-17.69
-16.62
-15.81
-15.12
-14.43
-13.60
-12.49
-10.85
-8.44
-5.10
-0.88
3.86
8.61
12.78
15.98
17.99
18.85
18.58
17.20
14.69
11.19
7.16
3.44
1.01
0.61
2.40
5.80
9.72
13.05
15.18
16.15
16.60
17.34
18.88
21.25
23.92
25.99
26.29
23.56
16.64
4.79
-11.91
-32.29
-54.25
-75.25
-92.98
-105.90
-113.48
-115.92
-113.80
-107.76
-98.44
-86.54
-73.03
-59.15
-46.26
-35.51
-27.60
-22.55
-19.78
-18.29
-17.01
-15.20
-12.67
-9.91
-7.88
-7.78
-10.58
-16.55
-24.68
-32.49
-36.62
-34.08
-23.67
-6.93
12.27
29.16
39.91
42.72
37.88
27.00
12.28
-3.45
-16.24
-20.76
-11.37
15.54
59.10
112.98
166.81
209.73
234.10
237.86
224.19
199.25
169.27
138.31
107.84
77.75
47.88
19.29
-5.61
-23.99
-33.98
-35.79
-31.84
-25.86
-21.38
-20.49
-23.19
-28.14
-33.77
-39.48
-45.95
-54.68
-66.86
-82.36
-99.52
-115.63
-127.90
-134.45
-134.69
-129.19
-119.13
-105.61
-89.24
-70.11
-48.25
-24.09
1.13
25.47
46.79
63.43
74.75
81.21
84.05
84.71
84.29
83.38
82.09
80.48
78.68
77.10
76.18
76.21
77.17
78.84
80.93
83.32
86.26
90.20
95.63
102.75
111.29
120.45
129.01
135.63
139.18
138.94
134.77
127.07
116.64
104.31
90.71
75.91
59.44
40.46
18.26
-7.17
-34.74
-62.20
-86.65
-105.27
-116.20
-119.03
-114.94
-106.19
-95.49
-85.22
-76.99
-71.46
-68.45
-67.22
-66.80
-66.28
-64.94
-62.34
-58.34
-53.18
-47.47
-42.17
-38.41
-37.10
-38.60
-42.48
-47.61
-52.55
-56.14
-57.86
-57.91
-56.91
-55.53
-54.10
-52.58
-50.72
-48.31
-45.33
-41.92
-38.28
-34.58
-30.87
-27.19
-23.65
-20.39
-17.55
-15.24
-13.46
-12.11
-11.03
-9.94
-8.58
-6.60
-3.80
-0.22
3.78
7.63
10.71
12.61
13.24
12.71
11.19
8.85
5.92
2.78
-0.05
-2.13
-3.38
-4.28
-5.62
-7.98
-11.22
-14.29
-15.62
-13.88
-8.71
-0.97
7.67
15.46
21.37
25.29
27.83
29.69
31.02
31.25
29.29
24.18
15.79
5.07
-6.22
-16.17
-23.39
-27.51
-29.06
-29.07
-28.44
-27.78
-27.33
-27.25
-27.72
-28.82
-30.45
-32.26
-33.85
-34.95
-35.53
-35.58
-34.84
-32.82
-29.00
-23.41
-16.94
-11.18
-7.76
-7.60
-10.32
-14.33
-17.59
-18.34
-15.76
-9.99
-1.89
7.17
15.46
20.95
21.66
16.32
5.36
-8.63
-21.28
-27.84
-25.00
-12.28
7.87
31.27
53.75
72.61
87.04
97.54
104.94
109.63
111.43
109.95
105.05
97.07
86.81
75.27
63.34
51.74
40.87
30.94
22.04
14.34
8.11
3.64
0.90
-0.75
-2.50
-5.73
-11.33
-19.21
-28.27
-36.74
-42.95
-45.92
-45.72
-43.29
-39.97
-37.15
-35.82
-36.42
-38.93
-42.98
-48.02
-53.55
-59.18
-64.66
-69.75
-74.08
-77.04
-77.81
-75.62
-70.07
-61.36
-50.36
-38.38
-26.87
-16.97
-9.25
-3.62
0.57
4.30
8.42
13.33
18.81
24.19
28.70
31.92
34.00
35.56
37.26
39.39
41.70
43.52
44.12
42.98
39.93
34.99
28.31
20.18
11.14
2.15
-5.53
-10.67
-12.56
-11.29
-7.73
-3.21
0.98
3.96
5.39
5.36
4.22
2.34
0.05
-2.41
-4.89
-7.39
-10.05
-13.10
-16.75
-21.01
-25.53
-29.58
-32.32
-32.98
-31.34
-27.77
-23.22
-18.84
-15.51
-13.49
-12.36
-11.32
-9.67
-7.18
-4.27
-1.73
-0.29
-0.16
-0.90
-1.69
-1.79
-0.89
0.74
2.37
3.18
2.65
0.78
-1.98
-4.97
-7.66
-9.94
-12.15
-15.04
-19.55
-26.33
-35.30
-45.55
-55.51
-63.41
-67.78
-68.06
-65.14
-61.26
-59.09
-60.52
-65.78
-73.27
-80.14
-83.05
-79.45
-69.06
-54.28
-39.22
-28.00
-23.27
-25.44
-32.64
-40.85
-44.91
-41.18
-28.87
-10.02
11.89
33.17
51.28
65.74
78.55
93.66
114.19
140.80
171.82
204.75
237.13
267.49
289.05
295.84
289.39
279.09
275.34
282.09
295.65
307.61
309.79
303.26
289.09
271.76
255.20
240.99
227.71
212.63
192.14
163.73
126.68
83.43
38.68
-5.38
-48.46
-91.51
-134.35
-177.25
-219.14
-257.82
-291.00
-317.29
-340.20
-364.25
-393.08
-426.59
-464.46
-504.04
-540.49
-567.86
-580.91
-580.28
-568.01
-546.07
-513.70
-472.78
-425.31
-373.07
-317.51
-241.58
-145.13
-41.10
40.45
97.82
136.63
165.79
190.33
214.14
240.20
267.50
295.77
325.18
356.76
385.55
404.05
405.42
387.00
351.17
302.29
248.17
197.41
157.95
131.40
115.77
107.89
105.49
107.10
109.99
111.91
111.24
108.02
101.50
91.65
79.59
67.37
56.80
47.95
40.11
32.29
24.20
15.37
5.97
-3.14
-10.76
-16.13
-19.54
-21.89
-24.17
-26.89
-30.31
-34.22
-38.10
-41.35
-43.60
-44.82
-45.21
-45.02
-44.45
-43.51
-42.03
-39.83
-36.84
-33.23
-29.39
-25.85
-23.07
-21.23
-20.21
-19.65
-19.12
-18.40
-17.46
-16.42
-15.36
-14.21
-12.78
-10.91
-8.61
-6.12
-3.79
-1.91
-0.58
0.32
0.95
1.42
1.72
1.77
1.64
1.61
2.17
3.80
6.68
10.60
14.99
19.16
22.53
24.80
25.97
26.26
25.98
25.47
25.00
24.72
24.57
24.24
23.29
21.33
18.26
14.35
10.15
6.20
2.73
-0.47
-3.93
-8.21
-13.57
-19.89
-26.76
-33.63
-40.03
-45.63
-50.24
-53.78
-56.25
-57.72
-58.37
-58.40
-57.99
-57.30
-56.40
-55.27
-53.87
-52.05
-49.68
-46.65
-43.01
-39.01
-35.03
-31.50
-28.70
-26.67
-25.23
-24.05
-22.79
-21.24
-19.30
-16.96
-14.22
-11.05
-7.45
-3.45
0.76
4.87
8.49
11.25
12.86
13.19
12.28
10.28
7.51
4.32
1.13
-1.71
-4.01
-5.72
-6.96
-7.86
-8.46
-8.61
-8.06
-6.51
-3.88
-0.34
3.69
7.67
11.12
13.80
15.69
16.92
17.61
17.76
17.20
15.67
13.02
9.26
4.72
-0.13
-4.76
-8.72
-11.78
-13.80
-14.73
-14.54
-13.25
-10.96
-7.94
-4.57
-1.20
1.98
4.98
7.93
10.90
13.79
16.29
17.93
18.37
17.49
15.42
12.48
9.05
5.48
2.10
-0.88
-3.31
-5.12
-6.36
-7.16
-7.59
-7.70
-7.45
-6.78
-5.66
-4.17
-2.44
-0.59
1.25
3.03
4.73
6.30
7.66
8.71
9.35
9.59
9.52
9.31
9.20
9.36
9.88
10.78
11.93
13.21
14.42
15.38
15.88
15.79
15.09
13.89
12.47
11.20
10.42
10.29
10.76
11.57
12.37
12.85
12.80
12.18
11.00
9.35
7.33
5.07
2.73
0.54
-1.30
-2.62
-3.42
-3.77
-3.85
-3.83
-3.86
-4.04
-4.47
-5.19
-6.16
-7.21
-8.09
-8.58
-8.56
-8.14
-7.56
-7.11
-7.00
-7.26
-7.80
-8.51
-9.35
-10.39
-11.73
-13.42
-15.41
-17.48
-19.37
-20.80
-21.55
-21.56
-20.85
-19.55
-17.87
-16.05
-14.31
-12.85
-11.71
-10.88
-10.25
-9.67
-9.04
-8.27
-7.36
-6.34
-5.30
-4.36
-3.67
-3.38
-3.56
-4.15
-4.97
-5.72
-6.15
-6.12
-5.67
-4.92
-4.00
-2.95
-1.78
-0.48
0.92
2.35
3.74
5.02
6.18
7.19
7.99
8.46
8.51
8.16
7.58
7.09
6.96
7.33
8.09
8.87
9.30
9.06
8.11
6.63
4.92
3.25
1.71
0.20
-1.45
-3.32
-5.32
-7.20
-8.65
-9.47
-9.64
-9.35
-8.90
-8.56
-8.49
-8.76
-9.31
-10.04
-10.80
-11.41
-11.66
-11.39
-10.53
-9.14
-7.43
-5.68
-4.04
-2.52
-0.98
0.75
2.69
4.70
6.52
7.95
8.98
9.81
10.76
12.08
13.92
16.19
18.76
21.45
24.03
26.26
27.87
28.66
28.59
27.94
27.20
27.00
27.79
29.65
32.26
34.93
36.92
37.62
36.80
34.57
31.28
27.35
23.11
18.79
14.57
10.58
6.97
3.77
0.97
-1.61
-4.10
-6.55
-8.80
-10.64
-11.87
-12.44
-12.50
-12.32
-12.13
-12.02
-11.86
-11.38
-10.18
-7.98
-4.64
-0.34
4.50
9.28
13.44
16.53
18.32
18.78
18.00
16.17
13.53
10.40
7.10
3.92
1.11
-1.22
-3.00
-4.26
-5.07
-5.62
-6.11
-6.65
-7.24
-7.64
-7.45
-6.26
-3.88
-0.37
3.93
8.57
13.14
17.33
20.94
23.81
25.79
26.82
26.95
26.42
25.55
24.59
23.61
22.44
20.76
18.30
14.98
10.95
6.52
2.02
-2.33
-6.44
-10.31
-13.92
-17.17
-19.87
-21.81
-22.88
-23.11
-22.71
-22.01
-21.36
-21.02
-21.13
-21.68
-22.56
-23.67
-24.92
-26.31
-27.93
-29.84
-32.08
-34.49
-36.78
-38.57
-39.53
-39.52
-38.63
-37.16
-35.49
-33.88
-32.44
-31.12
-29.82
-28.42
-26.91
-25.27
-23.48
-21.49
-19.19
-16.49
-13.39
-9.98
-6.60
-3.73
-1.91
-1.50
-2.58
-4.95
-8.19
-11.87
-15.67
-19.41
-23.00
-26.36
-29.28
-31.54
-32.85
-33.01
-31.83
-29.17
-24.96
-19.28
-12.35
-4.54
3.67
11.84
19.53
26.29
31.57
34.87
35.87
34.74
32.23
29.52
27.84
27.99
30.08
33.47
37.24
40.52
42.87
44.28
44.97
45.24
45.26
45.08
44.71
44.16
43.54
42.94
42.41
41.90
41.26
40.22
38.42
35.39
30.66
23.89
15.14
4.97
-5.50
-14.89
-21.99
-26.06
-27.15
-25.91
-23.29
-20.25
-17.41
-15.11
-13.41
-12.35
-11.96
-12.23
-13.10
-14.33
-15.60
-16.67
-17.41
-18.03
-18.97
-20.77
-23.77
-27.86
-32.36
-36.24
-38.38
-37.93
-34.49
-28.13
-19.29
-8.66
2.93
14.63
25.58
35.09
42.70
48.22
51.75
53.58
54.00
53.24
51.40
48.54
44.72
40.13
35.13
30.17
25.74
22.12
19.26
16.75
14.00
10.45
5.84
0.26
-5.78
-11.61
-16.53
-19.98
-21.62
-21.40
-19.53
-16.43
-12.73
-9.12
-6.30
-4.74
-4.55
-5.48
-6.92
-8.18
-8.63
-7.94
-6.09
-3.43
-0.45
2.24
4.10
4.80
4.36
3.19
1.92
1.23
1.53
2.79
4.63
6.48
7.82
8.46
8.41
7.81
6.82
5.56
4.13
2.67
1.34
0.30
-0.40
-0.85
-1.19
-1.52
-1.97
-2.62
-3.54
-4.82
-6.42
-8.22
-9.95
-11.38
-12.39
-13.15
-13.96
-15.03
-16.31
-17.41
-17.78
-17.00
-15.00
-12.15
-9.11
-6.57
-4.94
-4.28
-4.38
-4.87
-5.41
-5.81
-6.00
-5.95
-5.62
-4.88
-3.52
-1.37
1.70
5.63
10.21
15.13
20.05
24.62
28.64
31.99
34.68
36.88
38.77
40.42
41.63
41.98
40.98
38.31
34.10
28.89
23.44
18.39
13.94
9.92
5.96
1.79
-2.54
-6.73
-10.40
-13.27
-15.17
-16.07
-15.91
-14.72
-12.66
-10.12
-7.63
-5.68
-4.51
-3.97
-3.62
-2.90
-1.41
0.93
3.86
6.84
9.29
10.75
11.01
10.14
8.43
6.18
3.63
0.81
-2.43
-6.26
-10.75
-15.78
-21.00
-25.82
-29.59
-31.66
-31.62
-29.54
-26.14
-22.61
-20.31
-20.17
-22.23
-25.57
-28.61
-29.73
-27.92
-23.05
-15.81
-7.34
1.20
8.89
15.10
19.43
21.65
21.72
19.87
16.59
12.65
8.86
5.94
4.28
3.86
4.31
5.05
5.52
5.39
4.72
3.85
3.19
2.95
3.02
3.00
2.48
1.30
-0.33
-1.84
-2.67
-2.51
-1.52
-0.13
1.11
1.88
2.14
2.03
1.74
1.37
0.89
0.27
-0.46
-1.10
-1.35
-0.95
0.14
1.67
3.15
3.99
3.77
2.44
0.33
-1.98
-3.94
-5.39
-6.54
-7.89
-9.92
-12.76
-16.10
-19.23
-21.40
-22.01
-20.93
-18.39
-14.83
-10.77
-6.57
-2.46
1.49
5.18
8.50
11.30
13.41
14.79
15.51
15.80
15.92
16.09
16.41
16.86
17.27
17.47
17.24
16.34
14.52
11.56
7.33
1.97
-4.03
-9.81
-14.35
-16.63
-16.04
-12.52
-6.71
0.25
7.07
12.60
16.19
17.66
17.25
15.37
12.43
8.77
4.62
0.26
-4.00
-7.80
-10.85
-12.96
-14.08
-14.20
-13.34
-11.49
-8.68
-4.99
-0.68
3.88
8.17
11.69
14.10
15.33
15.70
15.68
15.78
16.24
16.95
17.51
17.48
16.62
15.01
12.98
10.89
9.02
7.44
6.20
5.34
4.96
5.11
5.68
6.36
6.73
6.46
5.35
3.44
0.90
-2.13
-5.57
-9.33
-13.26
-17.03
-20.16
-22.14
-22.55
-21.29
-18.57
-14.94
-11.14
-7.88
-5.76
-5.01
-5.58
-7.12
-9.16
-11.29
-13.18
-14.70
-15.74
-16.26
-16.21
-15.60
-14.57
-13.40
-12.42
-11.91
-11.96
-12.45
-13.12
-13.65
-13.85
-13.67
-13.26
-12.83
-12.61
-12.68
-12.91
-13.04
-12.80
-12.02
-10.80
-9.38
-8.10
-7.16
-6.64
-6.41
-6.38
-6.49
-6.76
-7.18
-7.60
-7.68
-7.04
-5.47
-2.98
0.06
3.16
5.88
7.97
9.36
10.19
10.60
10.68
10.47
9.98
9.19
8.17
6.99
5.76
4.51
3.22
1.81
0.25
-1.47
-3.29
-5.19
-7.19
-9.29
-11.48
-13.63
-15.46
-16.65
-16.94
-16.24
-14.66
-12.43
-9.79
-6.90
-3.89
-0.82
2.26
5.28
8.20
10.97
13.45
15.47
16.79
17.15
16.47
14.86
12.64
10.28
8.26
6.99
6.76
7.75
9.93
13.02
16.48
19.55
21.57
22.19
21.55
20.19
18.75
17.68
17.09
16.78
16.50
16.19
15.87
15.57
15.20
14.52
13.35
11.67
9.72
7.76
6.01
4.41
2.83
1.17
-0.43
-1.63
-2.11
-1.73
-0.65
0.87
2.52
4.12
5.49
6.41
6.52
5.49
3.20
-0.12
-3.81
-7.14
-9.44
-10.48
-10.49
-9.97
-9.52
-9.54
-10.16
-11.25
-12.58
-13.90
-15.06
-15.98
-16.62
-16.92
-16.72
-15.88
-14.28
-12.03
-9.51
-7.25
-5.80
-5.38
-5.89
-6.94
-8.00
-8.72
-8.95
-8.77
-8.26
-7.49
-6.43
-5.07
-3.53
-2.02
-0.84
-0.23
-0.25
-0.80
-1.62
-2.49
-3.18
-3.56
-3.49
-2.88
-1.65
0.19
2.35
4.27
5.21
4.57
2.22
-1.39
-5.32
-8.56
-10.40
-10.69
-9.77
-8.15
-6.20
-3.98
-1.39
1.52
4.49
7.03
8.58
8.86
7.90
6.08
3.91
1.93
0.54
0.01
0.45
1.71
3.47
5.21
6.45
6.93
6.68
6.06
5.54
5.44
5.83
6.47
6.93
6.72
5.44
2.92
-0.79
-5.31
-10.02
-14.08
-16.63
-17.03
-14.98
-10.71
-4.94
1.27
6.82
10.81
12.80
12.84
11.35
8.98
6.31
3.73
1.38
-0.70
-2.53
-4.09
-5.31
-6.14
-6.63
-6.99
-7.49
-8.46
-10.09
-12.41
-15.25
-18.32
-21.26
-23.78
-25.70
-26.83
-26.98
-25.98
-23.71
-20.25
-15.89
-11.17
-6.69
-3.03
-0.46
1.01
1.62
1.78
1.82
1.92
1.98
1.72
0.80
-0.90
-3.26
-5.83
-7.95
-9.02
-8.69
-6.96
-4.17
-0.90
2.24
4.68
5.99
5.97
4.69
2.41
-0.34
-2.98
-4.92
-5.68
-4.99
-2.83
0.53
4.61
8.74
12.30
14.77
15.98
16.04
15.29
14.16
13.04
12.16
11.59
11.30
11.16
11.02
10.74
10.24
9.56
8.79
8.06
7.41
6.79
6.05
5.02
3.64
1.96
0.20
-1.43
-2.78
-3.79
-4.53
-5.17
-5.94
-7.09
-8.80
-11.17
-14.14
-17.49
-20.87
-24.00
-26.70
-28.96
-30.85
-32.45
-33.80
-34.89
-35.66
-36.01
-35.80
-34.77
-32.57
-28.78
-23.11
-15.54
-6.44
3.49
13.39
22.45
30.10
36.08
40.38
43.23
44.89
45.62
45.54
44.70
43.04
40.56
37.32
33.57
29.69
26.09
23.08
20.74
18.94
17.43
15.91
14.22
12.28
10.19
8.10
6.25
4.86
4.09
3.87
3.81
3.22
1.33
-2.38
-7.78
-14.00
-19.58
-22.99
-23.13
-19.72
-13.35
-5.23
3.25
10.88
16.82
20.59
22.10
21.49
19.14
15.69
11.94
8.64
6.40
5.44
5.62
6.52
7.63
8.53
9.06
9.35
9.72
10.49
11.82
13.48
14.98
15.66
15.11
13.33
10.90
8.65
7.38
7.46
8.68
10.41
11.87
12.49
12.16
11.13
9.92
8.99
8.59
8.69
9.02
9.28
9.29
9.13
9.04
9.25
9.76
10.22
10.01
8.50
5.38
0.92
-4.20
-9.06
-12.93
-15.46
-16.72
-16.93
-16.24
-14.65
-12.04
-8.51
-4.50
-0.77
1.84
2.83
2.21
0.51
-1.55
-3.36
-4.68
-5.61
-6.33
-6.95
-7.35
-7.37
-6.87
-5.92
-4.73
-3.56
-2.64
-2.06
-1.93
-2.33
-3.40
-5.26
-7.90
-11.09
-14.46
-17.50
-19.74
-20.89
-20.90
-20.00
-18.61
-17.17
-16.01
-15.23
-14.68
-14.12
-13.34
-12.28
-10.98
-9.51
-7.86
-5.93
-3.58
-0.84
2.07
4.75
6.76
7.81
7.79
6.79
4.99
2.65
0.02
-2.64
-5.07
-7.01
-8.27
-8.69
-8.19
-6.75
-4.46
-1.61
1.34
3.86
5.56
6.30
6.28
5.83
5.26
4.69
4.01
3.05
1.80
0.47
-0.58
-1.04
-0.82
-0.21
0.30
0.19
-0.84
-2.76
-5.25
-7.82
-10.03
-11.56
-12.24
-12.09
-11.24
-9.90
-8.33
-6.79
-5.44
-4.34
-3.41
-2.52
-1.56
-0.51
0.57
1.59
2.40
2.89
2.95
2.50
1.58
0.38
-0.78
-1.51
-1.55
-0.82
0.54
2.17
3.69
4.74
5.06
4.55
3.28
1.48
-0.46
-2.07
-2.95
-2.92
-2.01
-0.52
1.18
2.76
4.08
5.12
5.92
6.38
6.30
5.42
3.65
1.24
-1.32
-3.37
-4.46
-4.51
-3.81
-2.84
-2.01
-1.50
-1.22
-0.98
-0.66
-0.26
0.15
0.51
0.86
1.28
1.78
2.23
2.33
1.80
0.53
-1.28
-3.10
-4.37
-4.61
-3.73
-1.92
0.41
2.91
5.32
7.53
9.46
10.90
11.60
11.33
10.11
8.25
6.32
4.90
4.43
5.07
6.66
8.89
11.35
13.67
15.51
16.62
16.79
15.93
14.08
11.44
8.36
5.26
2.50
0.30
-1.30
-2.48
-3.47
-4.52
-5.82
-7.40
-9.21
-11.09
-12.81
-14.16
-14.92
-14.96
-14.22
-12.72
-10.49
-7.63
-4.28
-0.71
2.72
5.52
7.32
7.98
7.74
7.23
7.21
8.30
10.72
14.16
18.01
21.59
24.48
26.60
28.20
29.60
31.00
32.46
33.84
34.94
35.46
35.00
33.06
29.19
23.13
15.07
5.61
-4.33
-13.78
-21.91
-28.20
-32.44
-34.63
-34.93
-33.58
-30.95
-27.58
-24.09
-21.09
-19.01
-17.92
-17.53
-17.29
-16.61
-15.11
-12.82
-10.13
-7.60
-5.75
-4.79
-4.60
-4.76
-4.75
-4.13
-2.74
-0.77
1.34
3.01
3.82
3.65
2.75
1.58
0.64
0.27
0.60
1.58
3.13
5.14
7.50
10.03
12.45
14.49
15.93
16.75
17.11
17.28
17.45
17.65
17.67
17.20
15.95
13.67
10.30
5.87
0.60
-5.15
-10.85
-15.86
-19.60
-21.75
-22.29
-21.53
-19.89
-17.70
-15.10
-12.08
-8.60
-4.79
-0.99
2.36
4.92
6.57
7.46
7.88
8.07
8.09
7.78
6.91
5.32
3.18
0.87
-1.09
-2.29
-2.65
-2.40
-1.99
-1.89
-2.43
-3.69
-5.56
-7.82
-10.16
-12.30
-13.96
-14.97
-15.19
-14.64
-13.47
-11.92
-10.23
-8.55
-6.93
-5.32
-3.63
-1.78
0.20
2.25
4.30
6.35
8.51
10.85
13.35
15.86
18.04
19.58
20.29
20.14
19.18
17.52
15.23
12.46
9.44
6.47
3.78
1.45
-0.72
-3.01
-5.60
-8.34
-10.77
-12.35
-12.73
-11.97
-10.45
-8.73
-7.22
-6.08
-5.28
-4.76
-4.57
-4.86
-5.76
-7.32
-9.30
-11.30
-12.85
-13.61
-13.49
-12.70
-11.62
-10.68
-10.18
-10.21
-10.69
-11.36
-11.91
-12.06
-11.67
-10.71
-9.33
-7.75
-6.20
-4.84
-3.75
-2.97
-2.53
-2.44
-2.68
-3.15
-3.62
-3.84
-3.60
-2.88
-1.80
-0.62
0.46
1.38
2.14
2.78
3.30
3.60
3.59
3.24
2.56
1.70
0.83
0.17
-0.12
0.10
0.85
2.05
3.53
4.99
6.12
6.69
6.61
5.94
4.87
3.62
2.35
1.12
-0.04
-1.12
-2.06
-2.69
-2.90
-2.61
-1.88
-0.93
-0.06
0.37
0.09
-1.08
-3.15
-5.88
-8.85
-11.48
-13.18
-13.58
-12.67
-10.72
-8.25
-5.75
-3.56
-1.79
-0.36
0.83
1.86
2.67
3.16
3.25
2.92
2.28
1.50
0.77
0.23
-0.01
0.07
0.43
0.96
1.50
1.85
1.79
1.23
0.21
-1.02
-2.08
-2.58
-2.19
-0.79
1.52
4.43
7.54
10.37
12.53
13.73
13.83
12.89
11.13
8.93
6.73
5.01
4.03
3.81
4.10
4.43
4.33
3.45
1.66
-0.95
-4.16
-7.70
-11.28
-14.59
-17.31
-19.09
-19.77
-19.35
-18.01
-16.03
-13.65
-10.96
-7.95
-4.63
-1.10
2.32
5.28
7.52
9.02
9.97
10.65
11.26
11.74
11.93
11.69
10.99
9.97
8.80
7.54
6.08
4.27
1.99
-0.71
-3.61
-6.45
-9.06
-11.41
-13.56
-15.58
-17.45
-19.06
-20.26
-20.85
-20.69
-19.65
-17.76
-15.21
-12.33
-9.47
-6.90
-4.72
-2.83
-1.08
0.60
2.14
3.40
4.22
4.60
4.70
4.76
4.91
5.07
5.06
4.67
3.89
2.90
1.98
1.38
1.11
1.04
0.92
0.63
0.23
-0.09
-0.07
0.38
1.21
2.23
3.21
4.04
4.67
5.21
5.76
6.39
7.09
7.81
8.46
8.99
9.36
9.56
9.56
9.28
8.64
7.58
6.11
4.32
2.35
0.33
-1.66
-3.56
-5.32
-6.82
-7.86
-8.21
-7.65
-6.10
-3.70
-0.79
2.14
4.63
6.33
7.18
7.31
7.03
6.71
6.65
6.99
7.69
8.54
9.30
9.76
9.93
9.95
10.11
10.70
11.86
13.50
15.36
17.14
18.54
19.44
19.80
19.71
19.28
18.65
17.99
17.47
17.21
17.27
17.60
18.09
18.71
19.64
21.18
23.76
27.61
32.62
38.20
43.51
47.78
50.68
52.54
54.25
56.79
60.67
65.53
70.22
73.26
73.44
70.27
64.07
55.65
45.87
35.37
24.50
13.42
2.30
-8.69
-19.42
-29.80
-39.73
-49.02
-57.36
-64.43
-70.16
-74.81
-78.95
-83.14
-87.61
-92.18
-96.43
-99.99
-102.93
-105.74
-109.14
-113.62
-119.09
-124.81
-129.62
-132.32
-132.06
-128.43
-121.34
-110.70
-96.25
-77.55
-54.19
-26.27
5.38
38.96
71.91
101.37
124.82
140.70
148.84
150.48
147.84
143.52
139.78
137.99
138.20
138.96
137.45
130.05
113.36
85.53
47.57
3.72
-39.42
-75.20
-99.29
-111.22
-114.23
-113.30
-112.62
-113.87
-116.35
-118.56
-119.76
-120.44
-121.56
-123.25
-124.20
-122.36
-116.19
-105.79
-92.85
-79.45
-66.90
-55.18
-43.35
-30.59
-16.86
-2.93
10.19
21.80
31.67
39.76
45.83
49.58
50.97
50.41
48.67
46.67
44.99
43.70
42.33
40.19
36.76
32.00
26.47
21.13
16.91
14.35
13.32
13.21
13.26
12.96
12.29
11.66
11.64
12.59
14.53
17.06
19.51
21.19
21.55
20.37
17.79
14.23
10.35
6.85
4.19
2.19
-0.24
-5.02
-14.16
-29.03
-49.50
-73.66
-98.29
-119.77
-135.12
-142.42
-140.91
-130.43
-111.76
-86.82
-58.24
-28.60
0.57
28.94
56.85
84.26
110.36
132.55
147.22
151.78
146.44
134.86
122.24
113.11
109.73
112.89
121.25
132.22
143.18
152.35
159.55
164.79
167.93
168.72
168.60
168.87
169.83
170.45
168.77
163.23
152.15
134.35
102.24
55.85
2.91
-45.57
-81.55
-107.82
-128.26
-145.87
-160.48
-171.66
-177.86
-178.79
-175.79
-171.01
-166.06
-160.56
-153.59
-144.63
-134.07
-121.92
-108.81
-95.90
-84.40
-74.96
-66.85
-59.19
-51.27
-42.84
-33.16
-21.95
-9.75
2.37
13.33
22.95
31.53
39.51
47.01
53.96
59.73
63.27
63.77
61.18
56.56
51.37
46.89
43.76
42.19
41.89
42.10
41.48
38.18
30.41
17.15
-0.97
-21.43
-40.39
-54.11
-60.44
-59.55
-53.58
-45.45
-37.57
-31.18
-26.39
-22.83
-20.23
-18.50
-17.61
-17.27
-16.97
-16.20
-14.73
-12.65
-10.37
-8.33
-6.82
-5.91
-5.49
-5.33
-5.15
-4.70
-3.81
-2.54
-1.14
-0.06
0.27
-0.33
-1.70
-3.37
-4.75
-5.47
-5.45
-4.90
-4.20
-3.64
-3.36
-3.30
-3.30
-3.17
-2.78
-2.11
-1.23
-0.31
0.47
0.96
1.10
1.03
0.99
1.20
1.77
2.60
3.41
3.88
3.84
3.29
2.42
1.45
0.50
-0.42
-1.36
-2.42
-3.58
-4.69
-5.52
-5.80
-5.27
-3.78
-1.40
1.54
4.56
7.21
9.33
11.08
12.83
14.87
17.24
19.82
22.51
25.44
28.91
33.03
37.43
41.22
43.36
43.20
40.92
37.43
33.89
31.07
28.98
27.06
24.63
21.36
17.42
13.35
9.60
6.22
2.84
-1.13
-6.15
-12.29
-19.11
-25.84
-31.62
-35.80
-38.16
-38.80
-38.09
-36.33
-33.69
-30.17
-25.74
-20.59
-15.09
-9.81
-5.20
-1.53
1.30
3.51
5.35
6.94
8.26
9.23
9.87
10.24
10.40
10.32
9.89
9.00
7.70
6.19
4.76
3.62
2.77
2.01
1.04
-0.30
-1.96
-3.66
-5.05
-5.91
-6.27
-6.41
-6.69
-7.45
-8.81
-10.70
-12.91
-15.23
-17.51
-19.73
-21.99
-24.36
-26.89
-29.52
-32.13
-34.56
-36.70
-38.49
-39.95
-41.23
-42.49
-43.95
-45.80
-48.16
-50.98
-53.97
-56.74
-58.82
-59.95
-60.22
-60.09
-60.24
-61.33
-63.81
-67.86
-73.44
-80.42
-88.62
-97.79
-107.48
-117.03
-125.74
-133.20
-139.42
-144.75
-149.39
-152.83
-153.63
-149.73
-139.29
-121.52
-97.14
-67.95
-35.96
-2.51
31.93
67.15
102.26
135.22
163.07
183.13
194.21
197.21
194.63
189.50
184.06
179.24
174.80
170.13
164.93
159.42
154.17
149.54
145.43
141.31
136.50
130.52
123.31
115.24
106.90
98.83
91.31
84.32
77.59
70.79
63.79
56.65
49.72
43.36
37.89
33.38
29.72
26.67
23.96
21.38
18.81
16.19
13.54
10.93
8.48
6.35
4.63
3.34
2.38
1.63
0.98
0.39
-0.10
-0.46
-0.65
-0.70
-0.66
-0.62
-0.61
-0.69
-0.85
-1.00
-0.98
-0.52
0.61
2.50
5.07
8.00
10.93
13.61
15.99
18.21
20.45
22.82
25.30
27.87
30.58
33.59
37.13
41.25
45.77
50.25
54.19
57.39
60.08
62.99
67.16
73.56
82.71
94.47
107.89
121.39
132.91
140.34
141.83
136.26
123.44
104.25
80.46
54.21
27.52
1.84
-22.10
-44.09
-64.05
-81.73
-96.75
-108.76
-117.78
-124.25
-128.85
-132.11
-134.09
-134.42
-132.68
-128.90
-123.82
-118.77
-115.03
-113.25
-113.00
-112.98
-111.55
-107.46
-100.37
-90.91
-80.38
-70.14
-61.13
-53.65
-47.36
-41.69
-36.09
-30.31
-24.39
-18.58
-13.11
-8.10
-3.51
0.79
4.83
8.53
11.73
14.31
16.33
18.01
19.59
21.02
21.82
21.12
17.90
11.47
1.83
-10.17
-23.10
-35.41
-45.92
-54.09
-59.96
-63.80
-65.74
-65.55
-62.64
-56.40
-46.62
-33.66
-18.54
-2.66
12.48
25.63
36.00
43.19
47.17
48.06
46.05
41.44
34.64
26.30
17.24
8.33
0.32
-6.40
-11.81
-16.17
-19.81
-22.95
-25.54
-27.39
-28.32
-28.35
-27.71
-26.77
-25.85
-25.11
-24.51
-23.94
-23.29
-22.58
-21.81
-20.95
-19.94
-18.74
-17.44
-16.24
-15.29
-14.67
-14.26
-13.93
-13.59
-13.32
-13.27
-13.41
-13.48
-12.98
-11.41
-8.56
-4.65
-0.30
3.73
6.84
8.77
9.65
9.88
9.98
10.40
11.44
13.16
15.45
18.08
20.80
23.36
25.61
27.41
28.73
29.55
29.98
30.14
30.21
30.24
30.21
29.95
29.24
27.90
25.88
23.28
20.35
17.39
14.63
12.19
10.02
7.87
5.41
2.32
-1.57
-6.15
-11.03
-15.53
-18.90
-20.49
-19.97
-17.35
-13.05
-7.72
-2.13
3.01
7.10
9.72
10.68
9.97
7.88
4.82
1.33
-2.09
-5.06
-7.40
-9.16
-10.48
-11.63
-12.87
-14.39
-16.24
-18.39
-20.67
-22.90
-24.90
-26.60
-28.01
-29.26
-30.51
-31.80
-32.99
-33.70
-33.36
-31.46
-27.71
-22.22
-15.39
-7.77
0.14
8.01
15.57
22.48
28.25
32.35
34.46
34.63
33.43
31.64
30.01
28.92
28.34
27.91
27.21
26.01
24.29
22.20
19.89
17.42
14.71
11.67
8.29
4.67
1.04
-2.30
-5.15
-7.41
-9.09
-10.31
-11.12
-11.56
-11.61
-11.29
-10.70
-10.05
-9.58
-9.39
-9.34
-9.03
-8.01
-6.00
-3.16
-0.06
2.59
4.24
4.76
4.43
3.73
3.07
2.67
2.63
3.06
4.12
5.81
7.77
9.19
9.05
6.62
1.89
-4.27
-10.52
-15.48
-18.31
-18.89
-17.54
-14.79
-11.01
-6.46
-1.37
3.87
8.79
12.91
15.87
17.62
18.23
17.91
16.87
15.35
13.61
11.97
10.69
9.91
9.56
9.42
9.23
8.81
8.15
7.26
6.21
5.05
3.83
2.74
2.06
2.12
3.17
5.21
7.99
11.08
13.93
15.99
16.84
16.18
13.94
10.31
5.76
0.96
-3.37
-6.59
-8.30
-8.34
-6.79
-4.00
-0.51
3.02
5.90
7.62
8.05
7.42
6.20
4.86
3.62
2.41
1.04
-0.61
-2.43
-4.05
-5.09
-5.46
-5.40
-5.45
-6.15
-7.80
-10.36
-13.57
-17.12
-20.81
-24.53
-28.14
-31.34
-33.68
-34.66
-33.97
-31.66
-28.01
-23.50
-18.56
-13.49
-8.46
-3.67
0.66
4.26
6.94
8.70
9.78
10.59
11.54
12.78
14.12
15.06
15.02
13.72
11.33
8.48
5.92
4.15
3.14
2.44
1.39
-0.40
-2.77
-5.09
-6.62
-6.88
-5.93
-4.43
-3.23
-3.04
-4.09
-6.05
-8.23
-9.86
-10.35
-9.40
-7.06
-3.57
0.70
5.44
10.51
16.11
22.76
31.16
41.75
54.39
68.22
81.95
94.31
104.54
112.54
118.75
123.83
128.37
132.64
136.39
138.60
137.45
130.67
116.41
94.26
66.05
35.66
7.93
-12.93
-24.76
-27.90
-24.56
-17.80
-10.33
-3.96
0.36
2.24
1.46
-2.08
-8.18
-16.23
-25.07
-33.24
-39.34
-42.41
-42.27
-39.52
-35.23
-30.62
-26.60
-23.66
-21.88
-21.19
-21.52
-22.97
-25.69
-29.73
-34.80
-40.25
-45.09
-48.35
-49.44
-48.39
-45.92
-43.15
-41.23
-40.93
-42.44
-45.34
-48.80
-51.79
-53.37
-52.93
-50.42
-46.38
-41.77
-37.56
-34.32
-31.95
-29.80
-26.96
-22.82
-17.28
-10.88
-4.50
0.98
4.99
7.34
8.14
7.73
6.53
5.05
3.88
3.46
3.99
5.20
6.36
6.52
4.94
1.70
-2.17
-4.85
-4.56
-0.55
6.35
13.75
18.65
18.65
12.99
2.93
-8.85
-19.31
-26.09
-28.11
-25.54
-19.38
-10.90
-1.37
7.99
15.96
21.39
23.36
21.53
16.32
8.97
1.09
-5.73
-10.59
-13.47
-15.08
-16.47
-18.31
-20.58
-22.50
-22.94
-21.02
-16.64
-10.55
-4.13
1.11
4.08
4.39
2.28
-1.55
-6.25
-11.00
-15.10
-18.00
-19.40
-19.23
-17.64
-14.97
-11.65
-8.15
-4.88
-2.23
-0.51
0.05
-0.65
-2.50
-5.26
-8.59
-12.06
-15.27
-17.80
-19.29
-19.52
-18.44
-16.22
-13.28
-10.11
-7.24
-5.09
-3.95
-3.98
-5.19
-7.42
-10.34
-13.43
-16.16
-18.14
-19.27
-19.85
-20.38
-21.29
-22.73
-24.39
-25.66
-26.01
-25.28
-23.89
-22.62
-22.21
-22.88
-24.17
-25.15
-24.84
-22.62
-18.46
-12.74
-6.05
0.94
7.50
12.71
15.70
15.96
13.79
10.57
8.44
9.50
15.03
25.02
38.34
53.32
68.32
81.99
93.23
100.94
104.09
101.97
94.63
83.03
68.85
54.00
40.05
27.93
17.79
9.16
1.13
-7.22
-16.35
-25.67
-33.40
-36.92
-33.81
-23.00
-5.55
15.63
36.79
54.71
67.61
75.25
78.28
77.37
72.88
64.98
54.19
41.65
29.08
18.20
10.17
5.14
2.33
0.42
-1.97
-5.80
-11.42
-18.57
-26.54
-34.42
-41.35
-46.64
-49.93
-51.14
-50.43
-48.10
-44.49
-39.91
-34.72
-29.30
-24.16
-19.84
-16.92
-15.82
-16.69
-19.39
-23.49
-28.32
-33.06
-36.81
-38.73
-38.11
-34.60
-28.25
-19.54
-9.29
1.53
12.07
21.73
30.22
37.50
43.52
48.10
50.86
51.30
49.10
44.34
37.61
29.93
22.43
15.98
11.01
7.41
4.76
2.63
0.71
-1.08
-2.72
-4.23
-5.76
-7.54
-9.82
-12.80
-16.50
-20.80
-25.43
-30.01
-34.15
-37.55
-40.10
-41.88
-43.18
-44.25
-45.22
-46.02
-46.40
-46.18
-45.41
-44.41
-43.69
-43.72
-44.73
-46.50
-48.32
-49.05
-47.42
-42.39
-33.65
-21.78
-8.24
5.10
16.56
25.17
30.91
34.45
36.61
37.79
37.73
35.66
30.90
23.30
13.46
2.55
-8.19
-18.01
-26.72
-34.47
-41.27
-46.76
-50.37
-51.88
-51.75
-50.94
-50.41
-50.36
-50.03
-47.97
-42.90
-34.58
-24.04
-13.21
-3.90
3.07
8.24
13.02
18.82
26.27
34.78
43.02
49.63
54.07
56.86
59.18
61.89
64.74
66.18
64.00
56.55
43.80
27.68
11.37
-1.94
-10.37
-13.95
-14.28
-13.55
-13.40
-14.37
-15.96
-17.23
-17.46
-16.46
-14.46
-11.72
-8.22
-3.65
2.27
9.38
16.99
24.08
29.71
33.33
34.90
34.79
33.53
31.58
29.22
26.53
23.45
19.81
15.42
10.20
4.24
-2.07
-8.18
-13.42
-17.23
-19.32
-19.68
-18.64
-16.67
-14.27
-11.78
-9.32
-6.71
-3.59
0.42
5.48
11.43
17.81
23.93
29.19
33.19
35.78
36.97
36.91
35.74
33.55
30.43
26.42
21.51
15.60
8.53
0.25
-9.04
-18.81
-28.26
-36.49
-42.72
-46.45
-47.46
-45.91
-42.18
-36.90
-30.81
-24.67
-19.09
-14.41
-10.68
-7.79
-5.54
-3.72
-2.18
-0.77
0.69
2.34
4.14
5.93
7.42
8.35
8.60
8.23
7.41
6.36
5.26
4.18
3.14
2.12
1.16
0.35
-0.15
-0.21
0.19
0.89
1.60
1.96
1.72
0.85
-0.51
-2.05
-3.50
-4.70
-5.62
-6.31
-6.84
-7.19
-7.32
-7.11
-6.53
-5.61
-4.50
-3.36
-2.33
-1.45
-0.65
0.18
1.09
2.04
2.90
3.56
3.92
4.05
4.03
3.97
3.94
3.91
3.81
3.53
3.02
2.28
1.39
0.54
-0.09
-0.36
-0.26
0.12
0.59
0.98
1.15
1.09
0.88
0.58
0.29
0.06
-0.10
-0.20
-0.20
-0.06
0.25
0.73
1.28
1.78
2.09
2.13
1.89
1.44
0.87
0.22
-0.48
-1.22
-1.94
-2.57
-2.99
-3.14
-3.03
-2.77
-2.48
-2.27
-2.17
-2.13
-2.06
-1.86
-1.42
-0.73
0.15
1.11
1.93
2.43
2.46
2.02
1.20
0.18
-0.82
-1.59
-1.96
-1.84
-1.28
-0.47
0.28
0.65
0.43
-0.36
-1.45
-2.45
-3.01
-2.94
-2.30
-1.27
-0.07
1.11
2.15
2.96
3.46
3.57
3.28
2.70
1.96
1.26
0.71
0.36
0.18
0.09
0.03
-0.06
-0.16
-0.25
-0.33
-0.39
-0.49
-0.70
-1.01
-1.38
-1.69
-1.84
-1.78
-1.56
-1.25
-0.90
-0.55
-0.19
0.18
0.56
0.95
1.33
1.72
2.08
2.34
2.36
2.08
1.53
0.90
0.44
0.31
0.51
0.83
1.02
0.91
0.50
-0.07
-0.61
-0.97
-1.13
-1.11
-0.96
-0.74
-0.46
-0.16
0.19
0.57
0.96
1.36
1.69
1.88
1.86
1.60
1.13
0.56
0.03
-0.40
-0.74
-1.02
-1.31
-1.59
-1.80
-1.90
-1.89
-1.84
-1.85
-2.01
-2.31
-2.69
-2.98
-3.06
-2.88
-2.41
-1.73
-0.90
-0.01
0.84
1.54
2.03
2.31
2.43
2.48
2.49
2.47
2.36
2.10
1.69
1.16
0.61
0.12
-0.24
-0.49
-0.68
-0.89
-1.18
-1.56
-2.00
-2.44
-2.78
-2.98
-2.97
-2.77
-2.42
-1.96
-1.44
-0.89
-0.34
0.19
0.70
1.20
1.69
2.14
2.54
2.86
3.08
3.22
3.31
3.36
3.38
3.36
3.27
3.11
2.94
2.81
2.82
3.00
3.32
3.66
3.86
3.78
3.32
2.51
1.48
0.41
-0.49
-1.08
-1.31
-1.21
-0.89
-0.48
-0.13
0.06
0.01
-0.29
-0.80
-1.45
-2.14
-2.79
-3.36
-3.78
-4.05
-4.19
-4.22
-4.19
-4.16
-4.16
-4.18
-4.20
-4.17
-4.08
-3.90
-3.64
-3.29
-2.83
-2.22
-1.43
-0.52
0.43
1.23
1.72
1.84
1.62
1.21
0.77
0.41
0.14
-0.12
-0.45
-0.88
-1.36
-1.82
-2.16
-2.37
-2.45
-2.44
-2.39
-2.26
-2.03
-1.65
-1.12
-0.50
0.12
0.67
1.13
1.59
2.19
3.04
4.14
5.33
6.40
7.15
7.50
7.59
7.68
8.04
8.76
9.74
10.71
11.44
11.81
11.95
12.08
12.37
12.84
13.29
13.49
13.35
13.01
12.81
13.17
14.29
16.08
18.14
19.90
20.87
20.74
19.50
17.37
14.60
11.30
7.33
2.40
-3.73
-10.96
-18.63
-25.56
-30.26
-31.36
-27.99
-19.96
-7.87
6.93
22.53
36.60
46.76
51.07
48.58
39.89
27.12
13.46
2.13
-4.58
-5.95
-2.79
3.07
9.68
15.62
20.31
23.89
26.86
29.70
32.52
35.13
37.20
38.58
39.45
40.31
41.66
43.69
45.98
47.60
47.57
45.40
41.45
36.84
32.89
30.46
29.64
29.73
29.66
28.46
25.54
20.71
14.05
5.83
-3.56
-13.56
-23.41
-32.23
-39.19
-43.75
-45.77
-45.47
-43.32
-39.90
-35.74
-31.35
-27.10
-23.15
-19.41
-15.67
-11.73
-7.65
-3.75
-0.54
1.54
2.33
2.03
1.05
-0.18
-1.39
-2.53
-3.66
-4.87
-6.12
-7.33
-8.38
-9.08
-9.18
-8.32
-6.07
-2.08
3.78
11.25
19.63
27.87
34.76
39.26
40.84
39.61
36.30
31.93
27.43
23.31
19.66
16.21
12.72
9.06
5.28
1.44
-2.48
-6.63
-11.14
-16.05
-21.21
-26.40
-31.40
-36.08
-40.39
-44.28
-47.71
-50.57
-52.68
-53.83
-53.81
-52.56
-50.38
-47.89
-45.91
-45.16
-45.93
-47.97
-50.60
-53.09
-54.86
-55.53
-54.81
-52.24
-47.25
-39.44
-28.89
-16.43
-3.37
9.05
20.17
30.12
39.50
48.72
57.45
64.56
68.66
68.95
65.84
60.85
55.93
52.35
50.18
48.33
45.31
40.12
32.72
23.89
14.68
5.73
-2.91
-11.72
-21.33
-32.21
-44.42
-57.56
-70.82
-83.16
-93.46
-100.90
-105.06
-105.96
-103.91
-99.28
-92.42
-83.76
-73.94
-63.93
-54.76
-47.18
-41.39
-37.10
-33.78
-31.29
-30.08
-30.99
-34.77
-41.36
-49.44
-56.54
-59.73
-56.51
-45.61
-27.28
-2.90
25.58
56.34
87.98
119.51
149.94
178.05
202.31
221.23
233.90
240.26
240.84
236.22
226.38
210.67
188.50
160.25
128.00
95.25
65.69
41.77
23.79
9.93
-2.70
-16.81
-34.04
-54.78
-78.38
-103.46
-127.90
-148.95
-163.57
-169.31
-165.31
-152.93
-135.56
-117.34
-101.77
-90.47
-82.98
-77.50
-72.00
-65.20
-56.97
-48.05
-39.47
-32.04
-26.16
-22.00
-19.61
-18.82
-19.16
-19.68
-19.08
-16.02
-9.64
-0.01
11.77
23.82
34.09
41.07
44.25
44.32
42.84
41.60
41.87
43.77
46.13
46.90
43.91
35.84
23.01
7.64
-6.58
-15.40
-15.41
-5.20
14.00
38.61
63.72
84.53
97.57
101.35
96.31
84.27
67.63
48.65
29.09
10.02
-8.00
-24.62
-39.43
-51.72
-60.52
-64.85
-64.17
-58.88
-50.54
-41.68
-35.17
-33.34
-37.27
-46.51
-59.34
-73.41
-86.43
-96.75
-103.52
-106.47
-105.68
-101.26
-93.36
-82.36
-68.95
-54.11
-38.80
-23.77
-9.51
3.52
14.59
22.43
25.43
22.39
13.41
0.47
-12.88
-22.69
-26.12
-22.61
-13.88
-3.07
6.73
13.62
17.17
18.07
17.24
15.31
12.58
9.25
5.90
3.46
3.00
5.09
9.56
15.41
21.17
25.48
27.53
27.37
25.69
23.48
21.52
20.12
19.07
17.88
16.18
13.92
11.44
9.21
7.64
6.84
6.58
6.52
6.35
5.95
5.38
4.75
4.12
3.46
2.65
1.63
0.40
-0.97
-2.44
-3.99
-5.60
-7.23
-8.82
-10.26
-11.48
-12.46
-13.20
-13.72
-13.99
-13.96
-13.59
-12.88
-11.89
-10.73
-9.56
-8.54
-7.79
-7.43
-7.49
-7.94
-8.60
-9.23
-9.59
-9.49
-8.94
-8.08
-7.18
-6.55
-6.36
-6.64
-7.25
-7.96
-8.57
-9.00
-9.33
-9.68
-10.11
-10.54
-10.73
-10.40
-9.39
-7.74
-5.70
-3.65
-1.90
-0.56
0.43
1.25
2.06
2.90
3.62
4.01
3.89
3.24
2.20
1.05
0.08
-0.58
-0.94
-1.15
-1.37
-1.70
-2.18
-2.76
-3.43
-4.17
-4.98
-5.79
-6.47
-6.81
-6.64
-5.87
-4.52
-2.75
-0.75
1.25
3.00
4.32
5.06
5.17
4.74
3.94
3.05
2.37
2.05
2.13
2.46
2.78
2.81
2.39
1.49
0.22
-1.24
-2.72
-4.10
-5.33
-6.36
-7.10
-7.46
-7.38
-6.84
-5.87
-4.54
-2.90
-0.99
1.11
3.28
5.31
6.97
8.08
