1540902196.00
64.000000
-0.00
-0.00
-0.00
-0.00
-0.00
-0.00
-0.00
-0.00
-0.00
-0.00
0.00
0.01
0.01
-0.00
-0.03
-0.05
-0.05
0.00
0.13
0.36
0.66
1.01
1.37
1.72
2.06
2.40
2.79
3.24
3.80
4.42
5.06
5.66
6.20
6.68
7.15
7.68
8.31
9.14
10.10
11.06
11.92
12.63
13.24
13.93
14.89
16.30
18.36
20.90
23.63
26.26
28.62
30.78
33.06
35.88
39.56
44.48
50.29
56.46
62.41
67.80
72.66
77.50
83.01
89.72
98.17
107.84
117.94
127.59
136.22
143.87
151.16
159.43
167.40
177.32
189.78
204.89
221.45
236.54
245.83
244.68
229.76
200.20
158.38
108.14
53.80
-1.42
-55.95
-109.56
-162.36
-214.00
-263.61
-309.72
-351.43
-388.03
-418.95
-443.31
-459.74
-466.55
-461.97
-445.08
-415.94
-376.19
-328.44
-275.82
-221.35
-167.53
-116.89
-70.75
-29.72
6.06
36.52
61.73
81.93
97.61
109.43
118.24
125.03
130.53
135.23
139.27
142.60
145.12
146.76
147.49
147.35
146.54
145.18
143.25
140.67
137.24
132.75
127.47
121.57
115.20
108.57
101.80
95.01
88.24
81.53
74.90
68.42
62.05
55.78
49.66
43.71
37.94
32.36
27.01
21.91
17.07
12.49
8.16
4.11
0.34
-3.13
-6.30
-9.17
-11.73
-13.95
-15.85
-17.40
-18.63
-19.54
-20.15
-20.48
-20.56
-20.43
-20.11
-19.64
-19.07
-18.45
-17.81
-17.20
-16.66
-16.20
-15.85
-15.62
-15.52
-15.56
-15.74
-16.04
-16.42
-16.82
-17.18
-17.42
-17.50
-17.36
-16.99
-16.38
-15.56
-14.57
-13.45
-12.24
-10.99
-9.78
-8.63
-7.58
-6.65
-5.84
-5.17
-4.60
-4.13
-3.76
-3.49
-3.31
-3.23
-3.23
-3.32
-3.47
-3.67
-3.91
-4.15
-4.36
-4.53
-4.63
-4.63
-4.48
-4.17
-3.66
-2.92
-1.94
-0.74
0.69
2.33
4.18
6.30
8.70
11.37
14.30
17.38
20.49
23.46
26.16
28.39
29.95
30.63
30.15
28.24
24.63
19.12
11.70
2.51
-8.12
-19.70
-31.63
-43.37
-54.49
-64.65
-73.66
-81.40
-87.77
-92.63
-95.88
-97.49
-97.67
-96.93
-95.98
-95.58
-96.22
-97.99
-100.48
-103.02
-104.99
-106.23
-107.22
-108.93
-112.44
-118.30
-126.08
-134.53
-142.03
-147.64
-151.88
-156.81
-165.01
-177.93
-194.63
-211.78
-225.08
-231.16
-228.81
-218.75
-202.22
-179.58
-150.38
-114.74
-75.13
-36.72
-5.62
14.34
23.92
28.43
34.74
47.24
65.25
83.65
96.24
99.74
95.76
89.86
88.04
93.07
102.74
111.36
113.11
105.76
92.12
78.65
71.80
74.34
83.54
92.56
94.31
85.59
69.10
52.11
42.42
43.85
53.91
65.07
68.98
61.36
44.59
26.47
15.87
17.59
29.41
43.24
49.71
43.60
26.95
7.97
-3.63
-2.21
10.50
26.47
36.07
33.60
20.59
4.55
-5.45
-4.19
6.79
20.32
28.04
25.30
13.85
0.66
-6.25
-2.60
9.66
23.39
30.49
26.55
13.57
-1.21
-9.35
-6.12
6.70
21.74
30.26
27.17
14.10
-1.53
-10.70
-8.03
4.96
20.67
29.76
26.57
12.42
-5.06
-16.28
-15.22
-2.88
13.36
24.09
23.34
11.95
-3.06
-12.78
-11.68
-0.86
12.79
20.80
18.20
6.50
-7.26
-14.66
-10.87
2.37
17.77
26.63
23.84
10.82
-5.19
-15.35
-14.11
-2.41
12.90
23.03
22.29
11.32
-3.33
-12.95
-11.82
-0.54
14.27
23.70
21.88
9.36
-7.12
-18.41
-18.27
-6.99
8.80
19.95
20.18
9.65
-5.22
-15.58
-15.44
-5.03
9.34
19.24
19.01
9.10
-4.29
-12.92
-11.35
-0.16
14.35
23.79
22.57
11.13
-4.25
-14.91
-14.84
-4.09
11.14
22.04
22.26
11.60
-3.75
-14.75
-14.72
-3.42
12.77
24.38
24.44
12.53
-4.92
-18.36
-20.64
-11.10
4.18
16.11
17.95
9.16
-4.51
-14.60
-15.04
-5.73
7.51
16.47
15.55
4.99
-9.08
-18.29
-16.80
-4.89
11.17
22.52
22.85
12.04
-3.72
-15.41
-16.39
-6.25
8.92
19.98
20.14
8.85
-7.73
-20.29
-21.66
-11.02
5.62
18.92
21.56
12.42
-2.90
-15.41
-18.03
-9.61
4.45
15.63
17.28
8.55
-5.19
-15.49
-15.87
-5.65
9.62
21.30
22.68
12.85
-2.64
-15.03
-17.27
-8.13
7.02
19.34
21.61
12.44
-2.84
-15.26
-17.41
-7.75
8.35
21.71
24.65
15.38
-0.96
-15.26
-19.75
-12.38
2.04
14.76
18.32
10.79
-3.16
-15.10
-17.91
-9.93
4.01
15.57
17.77
9.10
-5.47
-17.46
-19.72
-10.65
4.78
17.79
20.90
12.22
-3.34
-16.76
-20.13
-11.19
5.24
19.94
24.64
16.73
0.70
-14.46
-20.48
-14.52
-0.70
12.58
17.54
11.59
-1.33
-13.29
-17.09
-10.52
2.36
13.72
16.67
9.25
-4.21
-15.69
-18.03
-9.20
6.34
20.09
24.25
16.29
0.56
-14.12
-19.33
-11.97
3.85
19.07
24.90
17.81
1.67
-14.56
-21.96
-16.83
-2.71
11.86
18.38
13.41
0.42
-12.47
-17.40
-11.41
1.79
14.22
18.38
11.69
-1.99
-14.62
-18.72
-11.69
2.59
15.95
20.62
13.77
-0.76
-14.62
-19.66
-12.68
2.58
17.53
23.58
17.13
1.64
-14.28
-21.77
-16.82
-2.56
12.67
20.23
16.14
3.34
-10.22
-16.39
-11.60
1.04
13.74
18.71
12.80
-0.67
-13.82
-18.88
-12.67
1.44
15.42
21.21
15.34
0.98
-13.83
-20.76
-15.93
-2.21
12.42
19.45
14.79
1.06
-13.71
-20.77
-15.69
-1.00
15.23
23.93
20.27
6.39
-9.86
-19.50
-17.52
-5.71
8.54
16.73
14.22
2.90
-10.04
-16.51
-12.32
0.25
13.80
20.25
15.53
2.15
-12.31
-19.48
-15.08
-1.49
13.56
21.43
17.54
4.09
-11.10
-19.10
-15.02
-0.99
14.95
23.46
19.31
4.44
-13.12
-23.85
-22.22
-9.76
5.96
15.82
14.54
3.55
-9.97
-17.52
-14.33
-2.14
11.86
19.38
15.87
3.29
-11.07
-18.73
-15.01
-1.84
13.32
21.63
18.05
4.33
-11.91
-21.43
-18.71
-5.12
11.73
22.47
21.22
8.99
-7.04
-17.77
-17.46
-6.98
6.92
15.68
14.09
3.25
-10.10
-17.63
-14.37
-1.66
13.53
22.68
20.55
8.28
-7.23
-17.24
-16.08
-4.56
10.52
20.21
18.64
6.45
-9.42
-19.74
-18.42
-6.05
10.35
21.46
21.04
9.58
-6.13
-17.02
-17.09
-6.85
7.12
16.15
14.66
3.38
-11.08
-20.18
-18.35
-6.35
9.14
19.31
18.26
6.46
-9.49
-20.54
-20.27
-8.73
7.49
19.07
19.29
7.92
-8.59
-20.87
-22.10
-11.86
3.71
15.59
17.28
8.47
-4.88
-14.19
-13.45
-2.81
11.58
21.09
19.80
8.01
-7.83
-18.80
-18.52
-6.97
9.42
21.35
21.99
10.82
-5.93
-18.93
-21.04
-11.32
4.44
17.22
19.97
11.63
-2.37
-13.42
-14.89
-6.01
7.70
17.73
17.68
7.09
-8.20
-19.43
-19.98
-9.34
6.57
18.73
20.17
10.08
-5.80
-18.32
-20.23
-10.33
5.76
18.84
21.48
12.20
-3.61
-17.00
-20.59
-12.83
1.18
12.86
15.32
7.29
-6.06
-16.34
-16.87
-6.72
8.70
20.69
22.31
12.41
-3.65
-16.94
-20.01
-11.19
4.38
17.66
20.92
12.19
-3.56
-17.31
-21.24
-13.30
1.77
15.21
19.45
12.46
-1.17
-13.06
-16.03
-8.32
5.31
16.52
18.24
8.90
-6.52
-19.32
-22.04
-12.80
3.45
17.70
21.98
13.94
-1.77
-16.11
-20.86
-13.29
2.20
16.75
22.25
15.91
1.85
-11.50
-16.40
-10.34
2.58
14.16
17.09
9.27
-4.92
-17.22
-20.30
-12.09
2.97
16.46
20.77
13.43
-1.43
-15.39
-20.50
-13.80
0.94
15.28
20.99
14.77
0.23
-14.25
-20.36
-14.70
-0.79
13.10
18.83
13.18
-0.27
-13.26
-17.85
-11.01
3.47
17.25
22.26
15.44
0.49
-14.10
-20.00
-13.75
1.13
16.08
22.39
16.26
0.97
-14.95
-22.63
-18.03
-4.18
10.66
17.97
13.83
1.25
-11.86
-17.39
-11.83
1.59
14.89
20.01
13.56
-1.15
-15.95
-22.45
-16.84
-2.15
13.35
20.94
16.36
2.30
-13.15
-21.08
-16.97
-3.18
12.43
21.12
18.35
6.26
-7.69
-15.22
-12.07
-0.52
12.13
17.92
12.95
-0.20
-13.95
-20.16
-14.82
-0.54
14.88
22.85
18.88
5.19
-10.48
-19.35
-16.53
-3.92
10.97
19.45
16.64
4.35
-10.10
-18.22
-15.37
-3.47
10.14
17.14
13.07
0.15
-14.13
-21.33
-16.94
-3.18
12.28
20.73
17.35
4.04
-11.55
-20.42
-17.29
-3.72
12.66
22.58
20.47
7.61
-8.54
-18.82
-17.58
-6.03
8.71
17.76
15.87
4.32
-9.85
-18.08
-15.31
-2.98
11.84
20.52
17.89
5.19
-10.45
-20.15
-18.20
-5.57
10.70
21.31
20.16
7.86
-8.63
-19.93
-19.80
-8.63
6.79
17.42
17.24
6.80
-7.32
-16.40
-14.87
-3.51
10.98
19.95
17.78
5.28
-10.82
-21.58
-20.97
-9.30
6.82
18.30
18.79
8.27
-6.98
-18.12
-18.82
-8.99
5.31
15.51
15.66
5.87
-7.75
-16.78
-15.47
-4.16
10.82
20.82
19.89
8.26
-7.60
-18.67
-18.43
-6.75
10.00
22.43
23.54
12.70
-4.04
-17.38
-20.22
-11.60
2.75
14.05
15.49
6.35
-7.70
-18.04
-18.22
-7.76
7.36
18.33
18.55
7.60
-8.44
-20.37
-21.24
-10.28
6.47
19.70
22.18
12.88
-2.47
-14.85
-17.16
-8.46
5.67
16.35
16.82
6.33
-9.27
-20.97
-21.77
-10.80
6.14
19.80
22.82
13.82
-1.73
-14.76
-17.76
-9.09
6.13
19.02
22.20
13.99
-0.67
-13.14
-16.21
-8.32
5.52
16.73
18.20
8.56
-7.00
-19.61
-21.98
-12.60
3.18
16.26
18.96
9.57
-6.59
-20.25
-23.53
-14.40
2.05
16.70
21.69
14.85
0.90
-11.55
-14.99
-7.55
6.11
17.47
19.27
9.79
-6.06
-19.55
-23.07
-14.64
0.92
14.70
18.81
11.00
-4.06
-17.46
-21.33
-13.29
2.07
16.03
20.78
14.01
0.09
-12.47
-16.15
-8.70
5.44
17.78
20.69
11.88
-4.29
-19.02
-24.17
-16.83
-1.12
14.21
20.66
14.97
0.92
-13.02
-18.59
-12.71
0.82
13.64
17.92
10.99
-2.95
-15.48
-18.89
-10.76
4.51
18.21
22.47
14.68
-0.85
-15.39
-20.69
-13.72
1.59
16.52
22.66
16.68
2.15
-12.46
-18.87
-13.69
-0.45
12.65
17.54
11.16
-2.75
-15.86
-20.19
-12.77
2.42
16.83
22.22
15.41
0.22
-14.71
-20.94
-14.91
-0.15
14.89
21.69
16.51
2.53
-12.09
-18.93
-14.31
-1.30
11.97
17.23
10.91
-3.65
-18.12
-23.95
-17.43
-1.96
13.87
21.21
16.09
1.76
-13.26
-20.11
-14.71
-0.07
15.55
23.51
19.76
6.99
-6.99
-14.02
-10.22
1.70
14.19
19.26
13.25
-1.09
-15.94
-22.97
-18.02
-3.74
11.95
20.21
16.50
3.14
-11.99
-20.10
-16.60
-3.81
10.45
17.61
13.36
0.31
-13.62
-19.91
-14.47
-0.10
15.01
22.17
17.04
2.33
-13.79
-22.31
-18.44
-4.36
12.04
21.73
19.71
7.68
-6.93
-15.46
-12.96
-1.19
12.56
19.68
15.44
1.72
-13.83
-22.35
-18.79
-5.10
10.93
20.03
16.88
3.32
-12.79
-22.15
-19.39
-6.23
9.55
18.84
16.43
4.11
-10.54
-18.67
-15.35
-2.42
12.53
20.72
17.22
3.83
-11.91
-21.00
-18.14
-4.77
11.70
22.14
20.91
9.01
-6.46
-16.56
-15.65
-4.70
9.42
17.93
15.43
3.01
-12.25
-21.54
-19.33
-6.79
8.96
18.88
17.30
5.21
-10.28
-20.15
-18.61
-6.53
9.14
19.50
18.84
7.95
-6.51
-15.90
-14.71
-3.76
10.28
18.81
16.29
3.58
-12.50
-22.87
-21.38
-8.41
9.28
22.20
23.51
12.84
-3.48
-16.16
-18.23
-9.12
5.20
15.77
16.07
5.85
-8.60
-18.29
-16.85
-4.48
12.02
23.12
22.11
9.06
-9.14
-22.69
-24.40
-13.80
2.78
15.93
18.67
10.37
-3.16
-13.19
-13.33
-3.30
10.91
20.67
19.70
7.94
-8.39
-20.16
-20.66
-9.43
7.26
20.05
21.76
11.57
-4.52
-17.32
-19.69
-10.82
3.46
14.20
14.64
4.27
-10.85
-21.74
-21.65
-10.15
6.57
19.25
20.92
10.86
-4.93
-17.31
-19.15
-9.50
6.01
18.46
20.81
12.01
-2.61
-14.37
-16.43
-7.62
6.72
18.08
19.49
9.74
-5.95
-18.81
-21.52
-12.42
3.33
16.79
20.27
11.88
-3.30
-16.29
-19.41
-10.93
3.95
16.11
18.06
8.31
-7.60
-20.42
-22.52
-12.52
4.04
17.72
20.85
11.81
-4.04
-17.49
-20.82
-12.14
3.54
17.36
21.68
14.52
0.52
-11.77
-15.05
-7.43
6.37
17.86
19.70
10.15
-5.93
-19.58
-23.06
-14.21
2.08
16.71
21.57
14.20
-0.76
-14.49
-19.12
-12.46
0.89
12.31
14.52
5.85
-8.56
-19.94
-20.97
-10.23
6.86
20.95
24.29
15.07
-1.45
-15.91
-20.14
-11.80
4.35
19.31
24.94
18.69
4.72
-8.52
-13.45
-7.67
4.61
15.24
16.97
7.82
-7.70
-21.02
-24.55
-16.03
-0.01
14.67
19.96
13.27
-1.05
-14.28
-18.50
-11.25
2.98
15.42
18.33
9.50
-6.31
-20.28
-24.51
-16.71
-1.41
12.67
17.73
11.35
-2.18
-14.48
-17.97
-10.26
4.38
17.59
21.72
14.37
-0.29
-13.78
-18.38
-11.48
2.82
16.10
20.52
13.46
-1.10
-14.73
-19.51
-12.55
2.34
16.86
23.00
17.62
4.19
-9.40
-15.32
-10.47
1.83
13.67
17.33
9.68
-5.66
-20.35
-25.97
-19.00
-2.92
13.52
21.33
16.43
1.98
-13.37
-20.61
-15.56
-1.32
13.60
20.35
15.03
0.87
-13.64
-19.88
-14.05
0.35
14.79
20.63
14.31
-0.57
-15.29
-21.22
-14.73
0.51
15.72
22.22
16.29
1.51
-13.63
-20.43
-15.16
-1.00
13.73
20.59
15.72
2.12
-12.22
-18.91
-14.01
-0.24
14.50
21.84
17.61
4.26
-10.67
-18.91
-16.24
-4.93
7.78
13.86
9.37
-3.28
-16.57
-22.34
-16.48
-1.63
14.25
22.38
18.19
4.15
-11.62
-19.98
-16.15
-2.50
12.80
20.69
16.44
2.57
-12.82
-20.73
-16.67
-3.16
11.64
18.95
14.40
0.69
-14.07
-21.07
-15.99
-1.40
14.67
23.48
20.55
8.09
-6.29
-14.19
-11.18
0.58
13.74
20.03
15.14
1.25
-14.07
-22.21
-18.33
-4.37
12.20
22.33
20.68
8.61
-6.73
-16.50
-15.40
-4.71
8.51
15.77
12.04
-0.98
-16.00
-24.20
-20.55
-6.77
9.43
18.88
16.17
2.88
-13.29
-22.95
-20.39
-6.92
9.92
20.76
19.84
8.29
-6.65
-15.91
-13.89
-1.80
13.22
22.24
19.85
7.22
-8.48
-18.29
-16.58
-4.39
11.27
21.41
20.29
8.68
-6.65
-16.83
-16.14
-5.26
9.05
17.94
15.66
2.99
-13.12
-23.53
-22.24
-9.87
6.61
17.93
17.87
6.85
-8.44
-19.07
-19.10
-9.13
4.21
12.34
9.99
-1.73
-15.75
-23.40
-19.43
-5.30
11.61
22.18
20.82
8.66
-7.07
-17.21
-15.94
-4.09
11.37
21.42
20.25
8.65
-6.52
-16.31
-14.97
-3.33
11.63
20.98
19.00
6.63
-9.07
-19.03
-17.40
-4.97
11.28
22.23
21.88
10.66
-4.77
-15.61
-15.85
-5.89
7.89
16.75
14.91
2.83
-12.83
-23.09
-21.79
-9.24
7.93
20.57
22.17
12.59
-2.06
-12.97
-13.91
-4.75
8.45
17.15
15.33
3.17
-12.99
-24.14
-23.88
-12.06
4.91
17.77
19.65
10.00
-5.06
-16.45
-17.33
-7.25
7.61
18.12
17.66
6.00
-10.34
-21.96
-22.01
-10.35
6.40
18.65
19.44
8.41
-7.98
-20.27
-21.53
-11.26
4.33
16.14
17.40
7.77
-6.81
-17.49
-17.90
-7.77
6.79
17.12
16.95
6.32
-8.50
-18.62
-17.74
-5.92
10.34
21.91
22.27
11.31
-4.54
-16.19
-17.00
-6.74
8.38
19.30
19.51
8.74
-6.76
-17.99
-18.39
-7.62
8.22
20.26
21.91
12.80
-1.30
-11.83
-12.53
-3.13
10.43
19.62
18.22
6.13
-10.44
-22.42
-22.97
-11.48
6.00
20.11
23.39
14.44
-1.28
-14.76
-18.54
-11.05
2.62
13.73
15.25
5.80
-9.31
-21.29
-22.88
-12.68
4.05
18.34
22.62
15.05
0.41
-12.64
-16.66
-9.72
3.51
14.56
16.16
6.64
-9.08
-22.09
-24.78
-15.18
1.65
16.56
21.49
14.09
-0.86
-14.41
-18.62
-11.24
2.99
15.10
17.44
7.99
-8.24
-22.14
-25.72
-16.82
-0.28
14.75
20.22
13.68
-0.32
-13.00
-16.51
-8.63
5.98
18.52
21.21
12.10
-3.90
-17.65
-21.31
-12.83
2.59
15.69
18.50
9.06
-7.39
-21.45
-25.03
-15.98
0.60
15.39
20.26
12.95
-1.69
-14.65
-17.96
-9.47
6.06
19.59
23.25
14.88
-0.71
-14.46
-18.35
-10.04
5.80
20.26
25.24
18.27
3.64
-10.02
-14.96
-8.70
4.42
16.06
18.64
9.99
-5.42
-19.05
-23.27
-15.78
-1.01
12.53
17.21
10.66
-2.78
-14.87
-18.19
-10.66
3.27
15.21
17.81
9.05
-6.38
-19.83
-23.48
-14.89
1.57
17.23
23.90
18.60
5.04
-8.52
-14.23
-9.06
3.32
14.96
18.29
10.76
-3.65
-16.64
-20.51
-12.64
2.78
17.19
22.47
15.65
0.67
-14.01
-20.17
-14.64
-1.07
12.17
17.05
10.33
-4.22
-18.17
-23.26
-16.20
-0.68
14.81
21.85
16.92
3.38
-10.53
-16.67
-11.62
1.26
13.94
18.47
11.76
-2.64
-16.52
-21.82
-15.27
-0.44
14.41
20.99
15.80
2.18
-11.78
-17.86
-12.57
0.76
13.93
18.85
12.06
-2.94
-17.79
-23.95
-17.74
-2.32
13.94
22.39
18.84
5.91
-8.47
-15.88
-12.13
0.20
13.36
18.92
12.92
-1.90
-17.43
-24.97
-20.14
-5.52
10.93
20.40
18.25
6.63
-7.07
-14.55
-11.53
-0.26
11.85
16.83
10.72
-3.77
-18.78
-25.74
-20.38
-5.21
11.74
21.55
19.38
7.19
-7.47
-15.96
-13.58
-2.30
10.51
16.49
11.46
-2.15
-16.49
-22.97
-17.25
-1.95
14.85
24.17
21.21
8.15
-7.36
-16.54
-14.62
-3.54
9.31
15.68
11.23
-1.69
-15.50
-21.82
-16.42
-1.70
14.51
23.50
20.63
7.91
-7.11
-15.88
-13.67
-2.38
10.71
17.20
12.59
-1.06
-16.21
-24.21
-20.25
-6.25
10.30
20.53
19.33
8.22
-5.73
-14.07
-12.00
-1.13
11.42
17.50
12.60
-1.16
-16.26
-24.08
-19.89
-5.56
11.36
21.98
21.09
9.96
-4.39
-13.48
-12.17
-1.68
11.27
18.44
15.04
2.53
-12.10
-20.48
-17.68
-5.20
9.84
18.81
16.59
4.64
-9.99
-18.62
-16.17
-4.09
10.35
18.45
15.09
1.89
-13.69
-22.66
-19.75
-6.43
9.83
19.96
18.50
6.70
-8.19
-17.38
-15.43
-3.63
10.96
19.54
16.85
4.17
-11.36
-20.86
-18.84
-6.34
9.65
20.25
19.69
8.70
-6.19
-16.29
-15.95
-5.67
8.11
17.02
15.60
4.61
-9.41
-17.98
-15.69
-3.43
12.05
21.98
20.69
8.90
-6.62
-17.08
-16.59
-5.80
8.69
18.05
16.58
4.88
-10.32
-20.22
-18.99
-7.28
8.11
18.16
16.83
4.72
-11.34
-22.03
-21.03
-8.65
8.18
20.02
20.27
9.11
-6.64
-17.54
-16.95
-4.99
11.47
22.79
22.26
9.85
-7.56
-20.28
-21.28
-10.32
6.13
18.59
20.21
10.48
-4.49
-15.75
-16.76
-7.19
6.84
16.50
15.42
3.61
-12.50
-23.63
-23.17
-10.93
6.49
19.62
21.44
11.47
-4.09
-16.06
-17.62
-8.26
5.91
15.88
15.18
3.61
-12.48
-23.93
-23.95
-12.16
5.27
19.10
22.24
13.67
-1.09
-13.30
-16.07
-8.25
4.92
15.10
15.74
6.05
-8.61
-19.72
-20.67
-10.54
5.23
18.03
20.99
12.89
-1.13
-12.70
-15.05
-7.03
6.22
16.27
16.48
5.88
-9.97
-22.21
-23.68
-13.12
4.00
18.59
23.09
15.71
1.37
-11.29
-15.03
-8.17
4.50
14.65
15.39
5.50
-9.90
-22.14
-24.11
-14.36
1.95
16.04
20.43
13.18
-0.95
-13.51
-17.06
-9.60
4.32
16.25
18.88
10.24
-4.94
-17.93
-21.06
-12.19
3.96
18.47
23.29
15.98
0.95
-13.03
-18.02
-11.49
2.16
14.42
17.56
9.41
-5.42
-18.20
-21.28
-12.52
3.33
17.46
22.05
14.77
0.16
-13.20
-17.59
-10.72
3.04
15.16
18.19
10.01
-4.75
-17.45
-20.37
-11.36
4.97
19.83
25.21
18.59
4.11
-9.65
-14.81
-8.64
4.71
16.91
20.23
12.25
-2.65
-15.91
-19.76
-11.88
3.16
16.50
20.19
11.78
-4.14
-18.64
-23.59
-16.43
-1.52
12.35
17.21
10.43
-3.76
-16.85
-20.94
-13.41
1.49
15.08
19.16
10.92
-5.44
-20.84
-26.54
-19.03
-2.23
14.87
23.18
18.71
4.77
-10.16
-17.37
-13.11
-0.66
11.65
15.66
8.20
-6.75
-20.43
-24.42
-15.67
1.67
18.51
26.05
20.75
6.21
-8.96
-16.17
-11.76
0.96
13.86
18.76
12.40
-1.77
-15.52
-20.80
-14.30
0.36
14.86
20.92
15.13
0.98
-13.25
-19.28
-13.66
0.25
14.14
19.81
13.79
-0.51
-14.88
-20.97
-15.22
-0.86
13.94
20.73
15.78
2.03
-12.43
-19.19
-14.25
-0.48
14.19
21.28
16.75
3.28
-11.31
-18.63
-14.66
-2.15
10.95
16.27
9.84
-5.24
-20.59
-27.26
-20.96
-4.53
13.52
23.98
21.96
9.65
-5.20
-13.82
-11.51
-0.32
12.32
18.02
12.60
-1.51
-16.40
-23.44
-18.19
-3.23
13.36
22.48
19.33
6.16
-9.17
-17.70
-14.70
-2.32
11.63
18.56
14.05
0.61
-13.84
-20.64
-15.49
-1.02
14.64
22.60
18.34
4.17
-11.86
-20.81
-17.84
-5.06
9.93
18.30
15.34
3.02
-11.15
-18.60
-14.75
-1.76
12.61
19.60
14.48
-0.49
-17.32
-26.67
-23.20
-8.59
9.34
21.11
20.90
9.68
-5.41
-15.36
-14.47
-3.67
10.13
18.17
15.24
2.70
-12.15
-20.43
-16.90
-3.23
13.06
22.79
20.47
7.48
-8.85
-19.42
-18.63
-7.42
7.20
16.59
15.24
4.12
-10.03
-18.69
-16.42
-4.19
11.16
20.79
19.03
6.62
-9.45
-20.04
-18.97
-6.77
9.77
21.33
21.50
10.38
-5.57
-17.34
-18.57
-9.22
4.50
13.95
13.13
2.35
-12.00
-21.18
-19.29
-6.70
9.99
21.86
22.78
12.80
-1.79
-12.36
-12.81
-3.28
10.08
18.72
16.97
5.34
-9.56
-18.90
-16.76
-3.85
12.87
23.97
22.99
10.27
-7.30
-20.11
-21.34
-10.73
5.14
16.98
17.90
7.53
-7.91
-19.38
-20.22
-10.15
4.62
14.96
14.33
2.57
-13.78
-25.29
-24.97
-12.43
5.96
20.58
24.07
15.39
0.17
-12.67
-16.10
-9.02
3.35
12.81
13.15
4.00
-8.94
-17.35
-15.31
-2.94
13.40
24.67
24.37
12.26
-5.30
-18.90
-21.36
-11.83
3.79
16.18
18.04
8.17
-7.78
-20.64
-22.99
-13.52
2.19
14.95
17.18
7.54
-8.50
-21.64
-24.19
-14.46
2.35
17.17
22.30
15.69
2.06
-10.07
-13.39
-6.09
7.11
17.66
18.60
8.58
-7.07
-19.39
-21.08
-10.92
5.45
18.64
20.98
11.01
-5.64
-19.48
-22.65
-13.35
3.04
17.38
21.79
14.38
0.00
-12.70
-16.31
-9.06
4.29
15.30
16.97
7.83
-7.04
-19.07
-21.13
-11.70
4.33
18.32
22.94
16.22
2.50
-10.00
-14.02
-7.43
5.49
16.66
18.84
10.01
-5.25
-18.42
-21.87
-13.46
2.02
15.50
18.87
9.69
-7.14
-22.25
-27.07
-18.84
-2.07
14.06
21.07
15.97
2.68
-10.41
-15.53
-10.04
2.13
12.97
15.28
7.11
-6.96
-18.44
-19.98
-9.76
7.16
21.59
25.47
16.42
-0.66
-16.43
-22.23
-15.03
0.89
16.35
22.63
16.40
1.46
-13.47
-20.01
-14.79
-1.42
11.75
16.57
9.96
-4.37
-17.99
-22.81
-15.70
-0.43
14.62
21.27
16.27
3.08
-10.26
-15.83
-10.55
2.17
14.32
18.24
11.08
-3.29
-16.61
-20.98
-13.54
1.69
16.10
21.28
14.03
-1.89
-17.60
-24.26
-17.95
-2.02
14.86
23.58
19.76
6.11
-9.31
-17.82
-15.22
-4.08
7.87
12.65
6.89
-5.97
-17.79
-20.59
-11.51
5.37
21.24
27.72
21.59
6.63
-8.54
-15.49
-10.73
2.27
15.21
19.80
12.63
-2.78
-18.00
-24.48
-18.50
-3.49
11.94
18.93
13.38
-1.44
-16.98
-24.14
-18.64
-3.34
13.41
22.69
20.06
7.89
-6.13
-13.63
-10.37
1.29
14.01
19.69
14.52
1.02
-13.18
-19.91
-15.17
-1.57
13.07
20.28
15.67
1.76
-13.63
-21.68
-17.78
-4.21
11.11
19.33
15.72
2.50
-12.48
-20.44
-16.69
-3.50
11.32
18.82
14.38
0.25
-15.55
-23.89
-19.78
-5.25
11.82
22.16
20.41
8.12
-7.31
-16.90
-15.43
-4.39
8.89
15.80
11.59
-1.56
-15.80
-22.25
-16.37
-0.75
16.09
24.73
20.17
4.82
-12.78
-22.90
-20.05
-6.15
10.80
21.19
19.48
7.14
-8.29
-17.69
-15.72
-3.89
10.36
18.24
14.71
1.76
-12.92
-20.40
-15.85
-1.44
14.83
23.83
20.52
6.79
-9.49
-19.13
-16.75
-3.93
11.81
21.33
19.13
6.50
-9.38
-19.45
-18.16
-6.63
7.97
16.69
14.01
1.30
-14.02
-22.74
-19.29
-5.03
12.43
23.67
22.80
10.65
-5.67
-17.01
-17.36
-7.29
6.52
15.28
13.36
1.56
-13.29
-22.26
-19.63
-6.30
10.53
21.46
20.22
7.48
-9.54
-21.11
-20.56
-8.12
9.17
21.66
22.61
12.01
-3.44
-14.43
-14.48
-3.87
10.62
19.70
17.31
4.21
-12.36
-22.94
-21.37
-8.54
8.08
18.74
17.00
3.57
-14.12
-26.01
-25.26
-11.95
6.85
21.22
23.87
14.12
-1.86
-14.89
-17.94
-10.24
2.59
11.98
11.80
1.91
-11.58
-20.14
-17.88
-5.19
11.28
22.47
21.98
9.99
-6.93
-19.37
-20.39
-9.46
7.35
20.89
24.08
15.83
1.54
-10.33
-13.10
-5.86
6.18
14.86
14.13
3.64
-10.82
-20.73
-19.88
-8.17
8.15
19.95
20.39
8.98
-8.07
-21.30
-23.28
-12.83
4.33
18.85
23.06
15.24
0.51
-12.37
-16.03
-8.88
4.06
14.27
14.96
5.19
-9.44
-20.15
-20.20
-9.08
7.04
18.83
19.22
7.67
-9.44
-22.36
-23.61
-12.18
5.84
20.85
25.06
16.87
1.51
-12.11
-16.53
-10.02
2.69
13.25
14.89
6.31
-7.39
-17.84
-18.36
-8.07
7.38
18.94
19.38
7.62
-10.45
-25.15
-28.43
-18.39
-0.45
15.92
22.37
16.40
2.49
-10.70
-15.46
-9.59
2.59
12.86
14.30
5.48
-8.52
-19.10
-19.25
-7.81
9.65
23.85
27.04
17.44
0.31
-14.98
-20.29
-13.08
2.05
16.27
21.57
15.27
1.47
-11.54
-16.18
-10.08
2.60
13.70
16.02
7.71
-6.53
-18.17
-19.93
-10.17
5.96
19.39
22.35
12.90
-3.89
-18.74
-23.56
-15.86
-0.26
14.30
19.73
13.30
-0.80
-14.07
-18.71
-12.15
1.49
13.82
17.31
9.66
-4.69
-17.16
-20.11
-11.28
4.62
18.67
22.80
14.57
-1.40
-16.04
-21.13
-13.93
1.22
15.56
20.92
14.47
0.19
-13.49
-18.65
-12.44
1.33
14.38
18.99
12.31
-1.87
-15.42
-20.61
-14.56
-0.96
12.16
17.10
11.04
-2.26
-14.63
-18.36
-10.67
4.48
18.61
23.55
16.15
0.14
-15.89
-23.25
-17.97
-3.03
13.44
22.78
20.61
9.08
-4.57
-12.42
-10.51
-1.11
8.85
12.11
5.60
-7.46
-19.46
-22.87
-14.88
0.65
15.22
20.58
13.54
-2.02
-17.27
-23.47
-16.97
-1.35
14.62
22.03
16.88
2.28
-13.31
-21.10
-16.84
-3.35
11.34
18.62
14.42
1.46
-12.45
-19.02
-14.43
-1.63
11.45
16.70
10.67
-3.17
-16.43
-20.79
-12.88
3.50
19.51
26.34
20.28
4.84
-11.27
-19.08
-14.45
-0.36
14.99
22.87
19.03
5.99
-8.59
-16.38
-13.24
-1.60
11.05
16.66
11.29
-2.35
-16.52
-22.92
-17.54
-3.12
12.29
20.02
15.74
1.99
-13.20
-21.04
-16.90
-3.04
12.81
21.85
19.17
6.49
-9.02
-18.80
-17.74
-6.97
6.94
15.90
14.88
4.77
-8.30
-16.70
-15.69
-6.34
5.25
11.62
8.58
-2.12
-13.73
-18.47
-12.34
2.29
17.75
25.47
20.92
6.34
-10.46
-20.50
-18.62
-6.32
9.17
19.21
18.46
7.88
-6.01
-15.03
-14.00
-3.79
9.26
17.03
14.51
2.76
-11.58
-20.13
-17.76
-5.71
8.98
17.63
14.98
2.53
-12.39
-20.80
-17.42
-3.75
12.66
22.68
20.70
7.88
-8.57
-19.51
-19.00
-7.57
8.17
19.38
20.12
10.53
-3.37
-13.33
-13.76
-5.00
6.93
14.05
11.22
-0.49
-14.37
-21.92
-17.90
-3.71
13.16
23.29
20.78
6.71
-11.24
-23.14
-22.32
-9.25
8.84
22.00
23.25
12.37
-4.16
-16.96
-19.15
-10.15
4.20
15.23
16.51
7.63
-5.79
-15.49
-15.48
-5.70
7.87
16.71
14.88
2.68
-13.20
-23.63
-22.17
-9.09
8.68
21.34
21.84
9.93
-7.72
-21.21
-22.98
-12.00
5.73
20.72
25.29
17.80
3.29
-9.61
-13.82
-7.81
3.66
12.57
12.59
3.01
-10.72
-20.23
-19.19
-7.31
9.28
21.47
22.35
11.34
-5.48
-18.73
-21.12
-11.45
4.65
18.08
21.42
13.05
-2.00
-15.03
-18.68
-11.13
2.91
14.93
17.68
9.40
-5.29
-17.91
-21.17
-13.27
1.01
13.12
15.69
7.09
-7.57
-19.32
-20.67
-10.00
7.18
21.43
24.65
14.75
-3.02
-19.03
-24.65
-16.99
-0.52
15.55
22.62
17.41
3.69
-10.09
-15.90
-10.81
1.35
12.39
14.76
6.31
-8.39
-20.61
-22.69
-12.65
4.41
19.14
23.38
14.81
-1.55
-16.32
-21.05
-13.10
2.84
17.56
22.62
15.17
-0.43
-15.19
-20.69
-13.92
1.01
15.41
21.05
15.00
1.17
-12.06
-16.82
-10.47
2.94
15.03
18.22
10.17
-4.68
-17.65
-20.98
-12.26
3.89
18.49
23.22
15.27
-1.06
-16.73
-23.05
-16.54
-0.98
14.90
22.41
17.75
4.07
-10.44
-17.48
-13.32
-0.97
11.74
16.85
11.01
-2.55
-15.95
-21.27
-15.36
-1.73
11.43
16.11
9.31
-5.04
-18.29
-22.20
-13.77
2.61
17.73
22.85
14.79
-1.99
-17.99
-24.03
-16.50
0.58
17.89
26.23
21.52
6.98
-8.87
-17.28
-14.13
-2.10
11.12
17.44
13.19
1.05
-11.60
-17.05
-11.94
0.72
13.30
18.04
11.57
-2.84
-17.17
-23.17
-17.11
-2.07
13.77
21.74
17.61
3.99
-11.15
-19.06
-15.25
-2.07
12.66
20.25
16.10
2.45
-12.95
-21.29
-17.81
-4.51
11.02
20.04
17.74
5.83
-8.55
-17.01
-14.91
-3.97
8.79
15.38
11.48
-0.78
-14.15
-20.43
-15.41
-1.48
13.62
21.15
16.56
2.19
-13.95
-22.65
-18.83
-4.44
12.54
22.70
20.48
7.36
-9.02
-19.28
-17.60
-5.09
10.96
21.23
19.96
7.98
-7.62
-17.87
-17.06
-6.20
7.70
15.89
13.08
0.67
-14.03
-22.18
-18.60
-4.90
11.37
21.04
18.77
6.07
-9.46
-18.60
-15.79
-2.44
13.90
23.84
21.54
8.06
-9.25
-20.99
-20.92
-9.52
6.48
18.02
18.96
9.38
-4.66
-14.80
-15.39
-6.70
5.31
12.70
10.37
-0.78
-14.24
-21.75
-18.22
-4.90
11.12
21.00
19.25
7.03
-8.44
-18.08
-16.14
-3.59
12.34
22.41
20.55
7.48
-9.64
-21.27
-20.85
-8.50
9.02
22.20
24.06
14.01
-1.99
-14.96
-18.01
-10.21
3.04
13.35
14.37
5.49
-7.74
-17.07
-16.51
-6.02
8.34
17.97
16.78
5.04
-10.73
-21.41
-20.62
-8.48
8.28
20.21
20.52
9.01
-7.75
-20.24
-21.30
-10.27
6.66
19.96
22.17
12.06
-4.66
-18.53
-21.81
-12.70
3.58
17.87
22.38
15.03
0.58
-12.35
-16.35
-9.70
2.80
12.76
13.35
3.56
-11.23
-22.31
-22.95
-12.41
3.49
15.79
17.60
8.17
-6.62
-17.78
-18.37
-7.54
8.81
21.50
23.31
13.17
-3.25
-16.62
-19.34
-9.80
6.69
20.86
24.81
16.39
0.37
-14.32
-19.71
-13.24
0.80
13.91
18.32
11.49
-2.55
-15.62
-20.27
-14.05
-1.02
10.88
14.49
7.73
-5.17
-16.29
-18.73
-10.75
3.13
14.78
17.28
9.10
-4.99
-16.52
-18.30
-8.66
7.40
20.95
24.17
14.90
-1.98
-17.23
-22.37
-14.49
2.07
18.18
25.17
19.59
5.11
-9.76
-16.74
-12.49
-0.50
11.17
14.77
7.56
-6.66
-19.67
-23.83
-16.62
-2.21
10.96
15.23
8.24
-5.52
-17.47
-19.98
-10.94
4.80
18.33
21.80
13.15
-2.71
-16.65
-20.64
-12.34
3.50
17.74
22.14
14.02
-2.21
-17.48
-23.29
-16.46
-0.97
14.27
20.54
14.17
-1.50
-18.04
-26.87
-23.99
-12.14
1.09
7.72
4.00
-7.56
-19.90
-25.62
-21.21
-8.97
4.48
12.21
10.99
3.06
-5.39
-7.98
-2.08
9.51
20.15
23.31
16.52
2.97
-10.12
-15.69
-10.92
1.01
12.77
17.10
10.96
-2.71
-16.75
-23.85
-20.61
-9.30
3.66
11.54
11.02
3.82
-4.58
-8.44
-5.05
3.74
12.76
16.56
12.57
2.58
-8.30
-14.41
-12.69
-4.23
6.34
13.67
14.54
9.72
3.29
0.06
2.63
9.53
15.97
16.73
9.39
-3.89
-17.20
-24.16
-21.50
-11.05
1.22
8.55
7.19
-1.47
-11.74
-17.02
-13.73
-3.59
7.07
10.77
3.06
-14.69
-35.67
-51.04
-54.42
-45.22
-28.72
-12.87
-3.75
-2.15
-3.29
0.01
12.77
34.45
58.77
77.03
82.73
74.91
58.43
40.97
28.77
23.82
23.59
23.65
21.01
16.09
12.17
12.86
19.25
28.65
36.00
36.86
30.30
19.83
11.86
12.27
23.03
40.55
56.75
62.81
53.39
29.61
-1.26
-29.06
-45.64
-48.73
-42.58
-35.13
-33.09
-38.16
-46.19
-50.27
-45.44
-32.21
-16.68
-6.88
-7.89
-18.44
-31.56
-38.52
-34.00
-19.39
-2.14
8.54
7.05
-5.27
-20.77
-29.93
-26.78
-12.53
5.13
16.41
15.02
1.87
-15.41
-26.72
-25.31
-11.53
7.28
20.99
22.41
11.24
-5.82
-18.92
-20.57
-9.92
7.03
20.87
24.33
16.23
2.05
-9.56
-11.95
-4.40
7.47
15.32
13.13
1.08
-14.43
-24.47
-22.95
-10.34
6.46
17.97
17.80
6.25
-9.75
-20.74
-20.16
-8.24
8.16
19.50
19.14
7.27
-9.25
-20.78
-20.59
-8.67
8.08
19.95
20.01
8.14
-8.85
-21.11
-21.45
-9.43
8.44
22.31
24.67
14.38
-2.73
-17.24
-21.48
-13.69
1.12
14.17
17.90
10.32
-4.05
-16.85
-20.73
-13.74
-0.39
10.98
13.30
4.89
-9.24
-20.51
-21.71
-11.44
4.95
18.46
21.64
13.06
-2.01
-14.50
-17.04
-8.12
6.84
18.88
20.75
11.15
-4.30
-16.56
-18.27
-8.31
7.51
19.70
20.72
9.45
-8.04
-21.82
-23.87
-12.59
6.04
21.97
26.64
17.84
0.89
-14.54
-19.86
-12.45
3.07
17.52
22.59
15.47
0.39
-13.92
-19.37
-13.11
0.75
13.74
17.89
10.46
-4.42
-18.27
-23.11
-16.27
-1.88
11.51
16.02
9.06
-4.99
-17.56
-20.80
-12.34
3.20
16.94
20.94
12.95
-2.32
-15.82
-19.62
-11.41
3.98
17.50
21.12
12.61
-3.16
-17.07
-20.97
-12.58
3.31
17.37
21.31
12.62
-3.86
-18.69
-23.19
-14.39
3.18
20.13
27.43
21.55
6.27
-9.67
-17.55
-13.66
-1.16
11.84
17.36
11.90
-1.39
-14.80
-20.66
-15.75
-3.28
9.13
13.85
7.95
-5.23
-17.84
-22.16
-15.18
-0.47
13.80
19.66
13.94
0.31
-13.06
-18.04
-11.50
2.84
16.65
21.88
15.55
1.47
-11.95
-16.80
-10.23
3.74
16.62
20.47
12.55
-2.96
-17.34
-22.26
-14.69
1.48
17.40
24.38
18.72
3.74
-12.02
-19.80
-15.33
-1.41
13.90
21.82
17.86
4.35
-11.04
-19.58
-16.55
-3.93
10.75
18.86
15.47
2.43
-12.85
-21.72
-19.30
-7.42
6.53
13.94
10.20
-2.61
-16.76
-23.56
-18.43
-3.78
12.38
21.19
18.02
5.29
-9.16
-16.61
-12.63
0.34
14.45
21.23
16.60
3.31
-10.62
-16.80
-11.30
2.68
16.79
22.39
15.66
0.00
-15.90
-23.05
-17.39
-2.11
14.09
22.09
17.51
3.16
-12.57
-20.64
-16.37
-2.17
14.09
23.39
20.74
7.93
-7.73
-17.47
-16.18
-5.21
8.43
16.33
13.43
1.15
-13.54
-22.25
-19.97
-8.18
6.11
14.38
11.75
-0.28
-14.50
-22.32
-18.75
-5.43
10.33
19.78
17.78
5.86
-8.86
-17.71
-15.55
-3.74
10.75
19.45
17.37
5.82
-8.37
-16.97
-15.06
-4.06
9.23
16.68
13.58
1.65
-12.00
-18.95
-14.65
-1.11
13.85
21.30
16.40
1.43
-15.29
-24.18
-19.87
-4.54
13.34
23.77
21.02
6.99
-9.92
-19.65
-16.34
-1.71
15.89
26.48
24.09
10.23
-7.06
-17.98
-16.48
-3.81
12.47
22.76
20.99
7.90
-9.35
-21.41
-22.03
-11.49
3.55
14.11
14.00
3.46
-11.11
-20.97
-20.11
-8.95
5.97
15.85
14.90
3.73
-10.93
-20.27
-18.59
-6.74
8.33
17.81
16.06
4.15
-10.92
-20.14
-17.92
-5.26
10.69
20.91
19.80
8.34
-6.38
-15.57
-13.75
-2.16
12.12
20.30
17.13
4.11
-11.42
-20.47
-17.71
-4.57
11.43
21.10
18.93
6.21
-9.55
-19.14
-16.86
-4.02
11.87
21.37
18.59
4.79
-12.42
-23.17
-21.13
-6.96
11.83
25.25
26.30
14.86
-2.36
-15.72
-18.02
-8.50
6.97
19.23
21.22
11.84
-3.52
-16.13
-19.07
-11.15
2.30
12.83
13.70
4.02
-10.71
-21.86
-22.80
-12.84
2.25
13.58
14.57
4.69
-10.06
-20.79
-20.87
-9.97
5.77
17.40
18.31
8.25
-6.71
-17.58
-17.83
-7.13
8.38
19.77
20.57
10.49
-4.37
-15.27
-15.84
-5.99
8.13
17.72
16.62
5.00
-10.62
-21.03
-19.83
-7.09
10.36
22.91
23.58
12.06
-5.01
-17.94
-19.39
-8.70
7.87
20.66
22.29
11.84
-4.60
-17.49
-19.37
-9.10
7.41
20.78
23.37
13.80
-2.44
-16.16
-19.77
-11.64
3.06
15.37
17.92
9.00
-6.24
-19.01
-22.01
-13.66
0.83
12.76
14.97
6.14
-8.49
-20.18
-21.96
-12.74
2.08
13.74
15.51
6.45
-7.90
-18.86
-19.62
-9.31
6.56
19.24
21.74
12.94
-1.97
-14.29
-17.05
-8.81
5.35
16.98
19.20
10.69
-3.44
-14.78
-16.45
-7.30
7.46
19.17
20.88
11.39
-3.99
-16.44
-18.80
-9.65
5.63
18.09
20.29
10.64
-5.52
-19.14
-22.50
-13.84
1.67
14.84
17.98
9.34
-5.85
-18.38
-20.70
-11.15
4.85
18.13
21.09
12.21
-3.08
-15.70
-18.09
-8.84
6.69
19.35
21.64
11.98
-4.29
-17.91
-21.10
-11.81
4.86
19.73
24.57
16.82
1.05
-13.70
-18.98
-11.81
3.71
18.62
24.40
17.60
1.98
-13.71
-20.89
-15.89
-2.22
11.79
17.72
12.07
-1.80
-15.75
-21.62
-16.11
-2.65
10.55
15.51
9.01
-5.27
-19.03
-24.14
-17.41
-2.62
11.86
17.76
11.91
-2.04
-15.71
-20.99
-14.82
-0.94
12.26
16.98
10.41
-3.41
-16.15
-20.06
-12.61
2.03
15.45
19.88
12.89
-1.35
-14.37
-18.46
-11.09
3.49
16.83
21.32
14.50
0.67
-11.87
-15.53
-8.01
6.36
19.09
22.43
13.99
-1.94
-16.65
-21.94
-14.75
1.02
16.75
23.87
18.73
4.63
-10.20
-17.23
-12.72
0.24
13.46
18.60
12.16
-2.44
-16.64
-21.92
-14.65
1.40
17.32
23.95
17.22
0.68
-16.70
-25.40
-20.95
-6.28
9.89
18.26
14.31
0.81
-13.87
-20.84
-15.72
-1.49
13.57
20.55
15.27
0.81
-14.36
-21.14
-15.33
0.05
16.19
23.82
18.45
3.04
-13.52
-21.74
-16.82
-1.62
15.21
24.12
20.29
6.29
-9.53
-17.92
-14.11
-0.42
14.98
23.07
18.97
4.77
-11.67
-21.31
-18.91
-6.18
9.47
18.97
16.96
4.65
-10.85
-20.57
-18.92
-6.81
8.76
18.90
17.80
6.14
-9.31
-19.68
-18.93
-7.50
8.12
19.04
19.16
8.52
-6.71
-17.88
-18.86
-9.44
4.48
14.62
15.07
5.76
-7.56
-16.73
-16.09
-5.81
8.10
17.30
16.17
5.03
-9.92
-20.12
-19.72
-9.06
5.54
15.57
15.18
4.75
-9.45
-18.96
-18.09
-7.30
7.10
16.64
15.89
5.43
-8.35
-17.15
-15.67
-4.78
8.92
17.13
14.68
2.77
-11.78
-20.40
-17.87
-5.34
10.18
19.83
18.17
6.20
-9.08
-18.74
-16.97
-4.55
11.65
22.56
22.07
10.57
-5.38
-16.77
-17.41
-7.28
7.36
17.81
17.99
7.90
-6.32
-16.11
-15.41
-4.37
10.74
21.08
20.33
8.48
-8.15
-20.38
-21.53
-11.18
4.44
16.11
16.92
6.30
-9.59
-21.51
-22.43
-11.74
4.47
16.83
18.26
8.09
-7.56
-19.27
-19.92
-8.72
8.14
21.13
22.89
12.43
-4.24
-17.62
-20.16
-10.74
4.92
17.49
19.62
10.22
-4.89
-16.41
-17.09
-5.92
11.00
24.17
25.99
15.30
-2.02
-16.41
-20.05
-11.40
4.14
17.28
20.36
11.67
-3.60
-16.45
-19.33
-10.43
5.14
18.50
21.87
13.22
-2.70
-16.99
-21.63
-14.11
1.29
15.80
21.34
14.86
0.23
-14.18
-20.21
-14.65
-1.06
12.42
17.72
11.68
-2.17
-15.71
-20.96
-14.86
-1.03
12.29
17.19
10.64
-3.61
-17.28
-22.31
-15.61
-0.92
13.45
19.38
13.74
0.08
-13.44
-18.85
-13.01
0.48
13.50
18.23
11.65
-2.52
-15.99
-20.77
-13.79
1.15
15.69
21.64
15.79
1.64
-12.62
-18.92
-14.01
-1.29
11.25
15.91
9.61
-4.07
-17.18
-21.94
-15.36
-1.01
13.12
19.23
14.30
1.72
-10.70
-15.42
-9.64
2.97
14.44
17.41
9.45
-5.30
-18.48
-22.34
-14.31
1.37
16.06
21.61
15.07
0.29
-14.21
-20.10
-13.99
0.65
15.45
22.14
17.07
3.45
-10.68
-17.12
-12.27
0.70
13.85
19.09
13.10
-0.86
-14.71
-20.33
-14.33
-0.03
14.32
20.53
15.05
1.15
-13.04
-19.24
-13.79
0.18
14.57
21.01
15.82
1.98
-12.53
-19.44
-14.98
-2.05
11.55
17.83
13.18
0.60
-12.30
-17.67
-12.20
0.92
13.84
18.57
11.84
-3.06
-17.90
-24.30
-18.50
-3.56
12.25
20.34
16.52
3.48
-10.91
-18.18
-14.14
-1.27
12.67
19.33
14.73
1.48
-12.53
-18.88
-13.50
0.81
15.92
23.12
18.13
3.69
-12.07
-20.19
-16.17
-2.54
12.51
19.98
15.25
0.74
-15.29
-23.69
-19.54
-5.09
11.50
21.00
18.18
4.98
-10.82
-20.05
-17.49
-4.79
10.50
19.34
16.63
3.92
-11.37
-20.42
-18.07
-5.86
9.00
17.87
15.73
4.11
-9.86
-17.69
-14.53
-1.97
12.67
20.79
17.47
4.36
-11.07
-19.97
-17.10
-3.97
11.98
21.71
19.79
7.52
-7.86
-17.38
-15.59
-3.79
10.75
19.05
15.79
2.36
-13.78
-23.49
-21.13
-7.95
8.73
19.63
18.86
7.24
-8.24
-18.43
-17.31
-5.39
10.53
21.38
21.05
9.79
-5.84
-16.90
-17.17
-6.74
8.02
18.19
17.51
6.10
-9.70
-20.82
-20.82
-9.58
6.59
18.53
19.63
9.51
-5.68
-16.97
-17.68
-7.43
7.70
18.62
18.68
7.52
-8.70
-20.78
-21.95
-11.70
3.75
15.25
16.07
5.89
-8.94
-19.23
-18.27
-6.04
10.84
22.82
22.98
11.16
-6.07
-19.08
-20.82
-10.83
4.59
16.12
16.96
6.70
-8.43
-19.33
-19.29
-8.00
8.37
20.58
21.83
11.50
-4.43
-16.83
-18.69
-9.03
6.45
18.73
20.75
11.39
-3.79
-15.87
-17.72
-8.24
7.03
19.01
20.51
10.45
-5.54
-18.27
-20.43
-10.80
4.93
17.54
19.67
10.08
-5.53
-17.99
-19.76
-9.50
7.24
21.14
24.47
15.47
-0.69
-14.86
-19.25
-11.69
3.05
16.16
19.92
12.14
-2.61
-15.67
-19.44
-11.83
2.50
14.86
17.69
9.18
-5.71
-18.08
-20.37
-10.87
5.17
18.55
21.61
12.55
-3.41
-17.18
-21.01
-13.01
1.84
14.69
17.98
9.81
-5.10
-18.09
-21.70
-13.88
0.77
13.69
17.44
9.83
-4.71
-17.69
-21.54
-13.94
0.83
14.43
19.20
12.68
-1.18
-14.29
-19.19
-13.29
-0.36
11.79
15.93
9.47
-3.90
-16.40
-20.64
-13.80
0.62
14.81
20.98
15.85
2.40
-11.74
-18.69
-14.75
-2.58
10.40
16.33
11.39
-1.90
-16.10
-23.08
-18.70
-5.25
9.92
18.41
15.77
3.91
-9.91
-17.29
-13.58
-0.63
14.11
22.03
18.24
4.62
-11.19
-20.26
-17.41
-4.42
11.10
20.05
17.24
4.43
-10.70
-18.97
-15.13
-0.88
15.96
26.09
23.91
10.85
-5.56
-16.18
-15.36
-4.41
9.45
17.21
13.55
0.21
-15.03
-22.77
-17.72
-1.94
15.99
26.03
22.43
7.22
-10.87
-21.60
-19.09
-5.33
11.21
20.54
17.19
3.36
-12.56
-20.99
-16.96
-2.86
12.82
20.74
16.09
1.46
-14.61
-22.73
-17.99
-3.00
13.76
22.66
18.59
3.87
-13.15
-22.86
-19.94
-6.34
9.78
18.98
15.95
2.56
-13.21
-22.01
-18.50
-4.56
11.85
21.24
18.15
4.34
-12.22
-21.93
-19.15
-5.41
11.40
21.67
19.75
7.11
-8.44
-17.41
-14.21
-0.43
16.04
25.72
22.97
9.34
-7.41
-17.86
-16.45
-4.57
10.19
18.72
15.77
2.95
-12.17
-20.59
-17.20
-3.78
12.02
21.18
18.51
5.67
-9.89
-19.26
-17.19
-5.15
9.64
18.38
15.84
3.24
-12.41
-22.46
-21.52
-10.45
4.21
14.12
13.87
4.04
-9.32
-18.27
-17.53
-7.52
5.96
15.11
14.64
4.81
-8.70
-18.01
-17.56
-7.34
6.99
17.30
17.55
7.41
-7.50
-18.73
-19.73
-9.81
5.50
17.44
19.09
9.32
-6.40
-19.15
-21.69
-12.62
2.76
15.59
18.45
9.90
-4.82
-16.86
-18.87
-9.46
6.12
18.87
21.49
12.53
-2.61
-14.94
-17.12
-7.76
7.59
19.91
21.89
12.32
-3.10
-15.21
-16.70
-6.62
9.11
21.02
21.77
10.55
-6.42
-19.45
-21.13
-10.60
5.84
18.59
20.26
10.03
-5.95
-18.32
-19.88
-10.00
5.28
16.66
17.29
6.73
-8.77
-19.86
-19.70
-7.88
9.09
21.62
22.61
11.49
-5.26
-17.99
-19.32
-8.47
8.26
21.22
22.94
12.53
-4.02
-17.27
-19.90
-10.89
3.95
15.51
16.71
6.62
-9.01
-21.17
-22.72
-12.60
3.71
17.26
20.76
12.64
-2.15
-15.16
-19.18
-12.30
1.00
12.53
15.18
6.91
-7.82
-20.60
-23.84
-15.03
1.52
17.06
23.29
17.06
2.26
-12.45
-18.57
-12.75
1.34
15.12
20.30
13.74
-0.63
-14.15
-18.68
-11.38
3.45
17.05
21.25
13.35
-2.21
-16.57
-21.51
-14.35
0.56
14.25
18.56
10.87
-4.26
-17.72
-21.30
-12.45
3.96
18.59
22.99
14.61
-1.57
-16.03
-20.20
-11.53
4.99
19.68
23.98
15.41
-1.01
-15.66
-20.04
-11.66
4.45
18.77
22.87
14.28
-2.07
-16.81
-21.61
-14.04
1.20
15.02
19.28
11.50
-3.92
-18.29
-23.71
-17.46
-3.32
10.59
16.63
11.74
-0.91
-13.83
-19.56
-14.65
-1.73
12.17
19.44
16.25
4.68
-8.45
-15.38
-11.91
0.07
13.45
20.10
15.45
1.51
-14.19
-22.87
-19.57
-6.27
9.35
18.23
15.41
2.91
-11.52
-18.99
-14.94
-1.74
12.55
19.24
14.13
0.17
-14.32
-20.61
-14.71
0.03
15.04
21.36
15.09
-0.36
-16.26
-23.50
-18.05
-3.10
12.68
20.36
15.81
2.15
-12.19
-18.42
-12.59
2.11
17.22
24.04
18.61
4.13
-11.05
-18.20
-13.30
0.69
15.57
22.60
17.54
3.07
-12.80
-21.31
-17.84
-4.64
10.62
19.17
16.20
3.50
-11.54
-20.26
-17.75
-5.68
8.61
16.39
12.67
-0.78
-16.37
-24.89
-20.89
-5.88
12.34
24.05
23.15
10.59
-6.10
-17.25
-16.65
-5.15
9.91
19.16
16.87
4.43
-10.60
-18.99
-15.47
-1.97
13.49
21.59
17.25
2.65
-13.93
-23.04
-19.45
-5.26
11.39
21.00
18.28
5.11
-10.62
-19.63
-16.68
-3.57
11.94
20.84
18.11
5.70
-8.73
-16.48
-12.90
-0.21
13.94
20.99
16.51
2.81
-12.47
-20.82
-17.68
-5.10
9.56
17.77
14.81
2.20
-13.00
-22.27
-20.36
-8.27
7.29
17.63
17.07
6.18
-8.54
-18.40
-17.53
-6.43
8.26
17.71
16.15
4.47
-10.31
-19.13
-16.37
-3.35
12.35
21.45
18.48
4.98
-11.26
-20.85
-18.20
-4.85
11.55
21.62
19.70
7.09
-8.79
-18.68
-16.97
-4.77
10.56
19.89
17.58
4.86
-10.89
-20.48
-18.26
-5.53
10.28
19.95
17.79
5.03
-11.14
-21.71
-20.93
-9.52
5.98
16.97
17.73
8.43
-5.11
-14.89
-15.24
-6.02
7.28
16.80
16.68
6.62
-7.82
-18.31
-18.44
-7.66
8.25
20.27
21.45
10.96
-5.26
-17.92
-19.80
-10.09
5.15
16.61
17.32
6.86
-8.30
-18.84
-18.05
-5.99
10.49
21.80
21.30
9.10
-7.92
-20.19
-20.95
-10.16
5.58
16.91
17.19
6.20
-9.72
-21.41
-22.15
-11.52
4.41
16.58
18.07
8.13
-7.44
-19.67
-21.41
-11.60
4.24
17.15
20.00
11.59
-2.65
-13.83
-14.93
-4.90
10.52
22.29
23.33
12.80
-3.40
-16.08
-18.10
-8.65
6.36
17.75
18.57
8.14
-7.51
-19.17
-19.88
-9.02
7.16
19.34
20.38
9.56
-7.04
-20.06
-22.23
-12.53
3.35
16.36
19.26
10.76
-3.93
-16.15
-18.85
-10.53
3.91
16.01
18.72
10.36
-4.37
-17.08
-20.47
-12.59
1.95
14.67
18.14
10.36
-3.89
-15.81
-17.79
-7.97
8.45
22.09
24.97
15.18
-1.83
-16.33
-20.03
-10.87
5.62
19.75
23.32
14.51
-1.19
-14.34
-17.22
-8.43
6.46
18.21
19.45
8.94
-7.83
-21.94
-26.00
-18.27
-3.50
9.98
14.85
8.73
-4.61
-17.46
-22.56
-17.07
-4.23
8.60
14.13
9.41
-2.36
-13.65
-17.01
-9.63
4.84
18.17
22.46
14.86
-0.58
-15.09
-20.24
-12.92
2.79
17.89
23.72
16.96
1.65
-13.22
-18.99
-12.47
2.26
16.19
20.77
12.95
-2.98
-17.95
-23.44
-16.40
-1.04
13.74
19.47
12.99
-1.79
-16.31
-22.22
-16.09
-1.35
13.87
21.27
17.16
4.46
-9.04
-15.26
-10.50
2.34
15.37
20.42
13.91
-0.90
-15.54
-21.37
-14.66
1.07
17.01
24.21
18.76
4.14
-10.89
-17.41
-11.73
2.55
16.71
22.02
14.86
-1.24
-17.64
-25.61
-21.11
-7.04
8.61
17.25
14.51
2.54
-11.26
-18.63
-15.12
-2.74
11.20
18.30
14.18
1.04
-13.39
-20.39
-15.40
-1.04
14.36
21.55
15.93
0.39
-16.22
-24.14
-18.45
-2.05
16.07
25.99
22.45
7.85
-9.33
-19.49
-17.40
-5.01
9.86
18.22
15.10
2.30
-12.71
-21.26
-18.36
-5.64
9.66
18.84
16.70
4.55
-10.47
-19.57
-17.27
-4.76
10.74
20.08
17.57
4.39
-12.00
-22.11
-20.00
-6.82
9.78
20.32
18.90
6.82
-8.35
-17.33
-14.70
-2.14
12.69
20.80
17.27
4.07
-11.19
-19.82
-17.14
-5.01
9.34
17.58
15.00
3.12
-11.29
-20.05
-18.07
-6.29
8.84
18.90
18.22
7.20
-7.95
-18.59
-18.68
-8.34
6.08
15.79
14.77
3.48
-11.32
-20.53
-18.15
-5.02
11.62
22.32
21.01
8.47
-7.97
-18.81
-17.77
-5.52
10.87
21.96
21.36
9.46
-6.95
-18.63
-19.09
-8.30
7.37
18.90
19.81
9.88
-4.83
-15.57
-16.00
-5.95
8.55
18.73
18.34
7.33
-8.08
-19.01
-19.08
-8.32
6.85
17.37
16.86
5.37
-10.57
-21.78
-21.73
-10.35
5.95
17.92
18.86
8.38
-7.27
-18.93
-19.67
-8.82
7.64
20.50
22.52
12.59
-3.70
-17.26
-20.70
-12.56
2.02
14.33
17.30
9.64
-3.50
-13.69
-14.24
-4.40
10.22
20.86
20.86
9.64
-6.80
-19.24
-20.63
-10.18
6.12
18.91
20.82
10.64
-5.93
-19.65
-23.00
-14.40
0.91
13.97
17.27
8.94
-6.17
-19.32
-22.85
-14.63
0.71
14.43
18.67
11.14
-3.61
-16.79
-20.41
-12.15
3.25
16.69
20.19
11.64
-3.84
-16.87
-19.40
-9.62
6.86
20.44
23.10
13.19
-3.58
-17.55
-20.79
-11.66
4.35
17.78
20.83
11.67
-4.54
-18.69
-22.86
-14.70
1.29
16.39
22.48
16.65
2.78
-10.76
-15.77
-9.07
5.57
19.48
24.17
16.27
-0.22
-16.17
-22.63
-16.09
-0.61
14.53
20.42
13.74
-1.37
-15.76
-20.90
-13.83
1.07
14.81
19.15
11.37
-4.10
-18.46
-23.58
-16.62
-1.65
12.88
18.90
13.42
0.26
-12.27
-16.16
-8.43
6.92
21.04
25.41
16.84
-0.47
-17.10
-23.79
-16.85
-0.38
16.00
22.84
16.29
0.31
-15.65
-22.36
-16.23
-1.34
13.04
18.06
10.46
-5.64
-21.10
-27.18
-20.36
-4.37
12.07
20.19
16.09
2.84
-11.44
-18.17
-13.28
0.44
15.01
21.87
16.95
3.02
-11.83
-18.93
-14.18
-0.49
13.83
20.06
14.24
-0.51
-15.69
-22.49
-16.81
-1.63
14.69
23.26
19.60
6.06
-9.62
-18.69
-16.32
-4.21
10.37
18.79
16.03
3.61
-11.27
-19.89
-17.11
-4.61
10.03
17.79
13.65
-0.20
-15.53
-22.84
-17.13
-1.01
16.78
26.50
23.13
9.16
-6.99
-16.13
-13.46
-1.27
12.69
19.79
15.53
2.08
-13.13
-21.69
-18.89
-6.45
8.60
17.84
16.33
5.26
-8.71
-17.40
-15.74
-4.78
8.89
17.06
14.73
2.99
-11.54
-20.58
-18.98
-7.73
6.72
16.10
15.13
4.48
-9.60
-18.93
-18.06
-7.46
6.77
16.40
15.85
5.51
-8.53
-17.95
-17.08
-6.32
7.97
17.15
15.52
3.65
-11.62
-21.18
-18.92
-5.41
12.27
24.58
25.01
13.70
-2.65
-14.82
-16.32
-7.00
6.98
16.94
16.67
6.14
-8.57
-18.86
-18.56
-7.64
7.72
18.53
18.33
6.93
-9.30
-21.04
-21.40
-9.98
6.80
19.44
20.91
10.71
-4.78
-16.20
-16.76
-6.19
9.11
20.00
19.92
8.72
-7.30
-19.14
-20.22
-10.15
5.16
16.95
18.64
9.62
-4.45
-14.95
-15.31
-5.00
10.04
20.80
20.40
8.31
-9.14
-22.21
-23.41
-11.82
6.11
20.42
23.24
13.37
-3.10
-16.50
-19.28
-10.33
4.49
15.98
17.08
7.11
-7.94
-19.00
-19.26
-8.26
7.86
19.73
20.36
9.07
-7.97
-21.27
-23.36
-13.08
3.77
17.86
21.53
13.19
-1.90
-14.86
-18.29
-10.50
3.59
15.43
17.84
9.19
-5.60
-17.93
-20.46
-11.43
4.20
17.53
20.82
11.99
-3.98
-17.86
-21.48
-12.55
3.87
18.28
22.21
13.19
-3.81
-19.34
-24.93
-18.02
-3.19
10.64
15.52
8.95
-4.78
-17.20
-20.64
-12.60
2.82
17.17
22.50
15.88
1.18
-13.05
-18.50
-11.92
2.87
17.05
22.09
14.72
-0.93
-15.78
-21.14
-13.91
1.57
16.19
21.47
14.49
-0.55
-14.90
-20.40
-14.09
0.21
14.14
19.75
13.96
0.28
-13.22
-18.63
-12.78
0.78
13.86
18.42
11.46
-3.06
-16.42
-20.29
-11.82
4.58
19.63
24.73
16.91
0.64
-14.80
-20.70
-13.88
1.45
16.21
21.65
14.50
-1.19
-16.32
-22.03
-14.84
1.18
16.71
22.57
15.10
-1.56
-17.93
-24.67
-18.03
-2.09
13.76
20.35
14.03
-1.27
-16.46
-22.68
-16.38
-1.28
13.87
20.41
14.70
0.16
-14.67
-21.09
-15.18
-0.14
15.53
22.91
17.81
3.23
-12.41
-20.03
-15.26
-0.93
14.51
22.07
17.36
3.22
-11.93
-19.17
-14.15
0.23
15.52
22.65
17.15
1.88
-14.65
-23.04
-18.43
-3.37
13.50
22.48
18.34
3.39
-13.76
-23.30
-19.84
-5.64
10.69
19.31
14.97
0.07
-16.64
-25.26
-20.44
-4.54
13.72
24.32
21.62
7.63
-9.33
-19.48
-17.19
-4.23
11.39
20.22
16.94
3.59
-11.76
-19.68
-15.08
-0.30
16.11
24.55
19.93
4.66
-12.68
-22.41
-19.27
-5.35
11.22
21.04
18.75
6.05
-9.33
-18.23
-15.27
-2.00
13.92
23.14
20.00
5.91
-11.41
-22.29
-20.71
-7.89
8.41
18.50
16.47
3.70
-12.06
-21.35
-18.57
-5.35
10.54
19.77
16.91
3.53
-12.74
-22.65
-20.50
-7.51
8.98
19.64
18.50
6.37
-9.65
-20.19
-19.02
-6.73
9.61
20.55
19.80
7.86
-8.24
-19.07
-18.30
-6.48
9.37
19.79
18.33
5.32
-12.33
-24.96
-25.47
-13.41
4.81
19.38
22.63
13.37
-2.46
-15.30
-17.55
-8.12
6.84
17.79
17.55
5.79
-10.65
-21.80
-20.57
-7.11
11.21
24.07
24.34
12.05
-5.66
-18.75
-19.98
-9.02
7.51
19.89
20.94
10.08
-6.27
-18.49
-19.33
-8.16
8.49
20.77
21.26
9.38
-8.16
-21.31
-22.51
-11.25
5.67
18.09
18.55
6.56
-11.07
-24.17
-25.08
-12.96
5.75
20.99
24.88
15.99
0.09
-13.33
-16.56
-8.10
6.43
17.78
18.54
7.62
-8.91
-21.32
-22.01
-10.08
7.92
21.64
23.01
10.87
-8.18
-23.64
-26.97
-16.55
1.61
17.35
22.38
14.87
0.32
-11.91
-14.20
-5.11
9.71
21.10
21.78
10.73
-6.15
-19.54
-22.03
-12.39
3.74
17.20
20.51
12.09
-2.97
-15.85
-19.15
-11.16
3.21
15.24
17.52
8.36
-7.24
-20.38
-23.50
-14.75
0.85
14.35
18.15
10.28
-4.35
-17.05
-20.37
-12.38
2.29
15.22
19.01
11.69
-2.27
-14.48
-17.50
-9.30
5.55
18.28
21.19
12.14
-3.97
-17.90
-21.54
-12.66
3.64
17.96
22.04
13.59
-2.39
-16.62
-20.97
-13.05
2.45
16.54
21.18
13.72
-1.49
-15.71
-20.75
-13.81
0.91
14.55
18.74
10.63
-5.33
-19.75
-23.87
-14.75
2.73
18.69
23.99
15.48
-2.06
-18.74
-25.26
-18.23
-2.02
13.90
20.56
14.59
0.12
-13.81
-18.59
-11.15
4.18
18.23
22.48
14.18
-1.96
-16.56
-21.08
-12.96
2.85
16.82
20.52
11.56
-4.97
-19.40
-23.10
-13.37
4.86
21.90
28.63
21.68
5.17
-11.68
-19.79
-15.34
-1.80
12.16
17.89
11.67
-3.02
-17.69
-23.79
-17.56
-2.33
13.58
21.50
17.45
4.33
-9.79
-16.32
-11.13
2.94
17.72
24.44
18.84
3.82
-12.22
-20.28
-16.03
-2.43
12.04
18.48
12.81
-1.77
-16.64
-22.84
-16.34
-0.44
16.02
23.87
18.74
3.72
-12.48
-20.59
-16.02
-1.71
13.81
21.24
16.07
1.17
-15.03
-23.36
-19.28
-5.40
10.07
18.26
14.63
1.59
-12.99
-20.41
-16.15
-2.54
12.50
20.20
15.94
2.02
-13.47
-21.38
-16.78
-1.99
14.69
23.70
19.79
5.14
-11.98
-21.89
-19.10
-5.48
10.97
20.72
18.28
5.36
-10.29
-19.41
-16.68
-3.86
11.15
19.20
15.13
0.98
-15.11
-23.75
-19.64
-4.90
12.19
21.94
18.81
4.59
-12.53
-22.75
-20.28
-6.80
9.64
19.16
15.97
1.84
-14.94
-24.40
-20.68
-5.65
12.19
22.65
19.91
5.76
-11.37
-21.52
-18.83
-5.01
11.93
22.33
20.49
7.89
-7.78
-17.19
-14.71
-1.86
13.70
22.54
19.03
4.74
-12.42
-22.81
-20.65
-7.44
8.91
18.87
16.81
4.27
-10.98
-19.68
-16.41
-2.80
13.53
23.30
21.01
8.03
-8.15
-18.21
-16.27
-3.42
12.99
23.39
21.52
8.03
-9.80
-22.23
-22.53
-10.89
5.77
17.79
18.39
7.54
-8.02
-18.81
-18.13
-6.05
10.51
21.89
21.28
8.76
-8.61
-20.95
-21.25
-9.57
7.10
18.81
18.56
6.37
-10.81
-23.03
-23.11
-10.89
6.78
19.93
21.26
10.32
-6.19
-18.42
-19.10
-7.73
9.03
21.33
21.87
10.12
-7.28
-20.54
-22.30
-11.86
4.50
17.21
19.06
9.24
-6.18
-17.92
-18.92
-8.47
7.29
19.06
19.90
9.35
-6.27
-17.55
-17.61
-6.19
10.08
21.63
21.51
9.44
-7.86
-20.65
-21.67
-10.43
6.40
18.95
19.67
7.90
-9.70
-22.98
-24.16
-12.40
5.71
19.93
22.30
11.76
-5.39
-19.05
-21.26
-10.63
6.86
21.32
24.75
15.37
-1.32
-15.79
-20.08
-12.27
2.34
14.47
16.30
6.15
-10.38
-23.78
-26.07
-15.69
1.62
16.15
19.87
11.08
-4.65
-17.73
-20.24
-10.52
5.83
19.24
21.78
11.89
-4.80
-18.58
-21.54
-12.04
4.27
17.83
20.85
11.74
-3.84
-16.43
-18.30
-7.99
8.77
22.41
24.95
14.68
-2.83
-17.92
-22.35
-14.05
1.70
15.35
18.84
10.23
-5.08
-17.64
-19.51
-9.01
8.19
22.45
25.64
15.87
-1.49
-16.83
-21.89
-14.38
0.64
13.95
17.51
9.21
-5.81
-18.27
-20.19
-9.78
7.42
21.60
24.54
14.38
-3.20
-18.29
-22.40
-13.37
3.47
18.38
22.89
14.54
-1.69
-16.32
-20.89
-12.76
3.15
17.43
21.44
12.51
-4.60
-20.35
-25.85
-18.06
-1.41
14.64
21.17
14.85
-0.24
-15.05
-20.87
-14.45
0.19
14.04
18.57
10.68
-5.30
-20.09
-24.89
-16.58
0.34
16.37
22.43
15.24
-0.82
-16.25
-21.94
-14.49
1.79
17.48
23.47
16.43
0.60
-14.57
-20.00
-12.26
4.44
20.55
26.95
20.04
3.87
-12.24
-19.07
-12.85
2.48
17.60
23.27
15.64
-1.42
-18.39
-25.71
-19.22
-2.76
14.17
21.81
15.85
0.02
-16.25
-23.26
-16.77
-0.52
15.96
22.95
16.27
-0.37
-17.52
-25.50
-20.06
-4.78
11.05
18.08
12.29
-2.55
-17.28
-22.77
-15.19
1.55
18.17
25.42
19.34
3.57
-12.72
-20.25
-14.77
0.41
16.43
23.94
18.51
3.19
-13.39
-21.86
-17.56
-3.13
13.00
21.56
17.89
4.53
-10.37
-17.95
-13.93
-1.15
12.14
17.35
10.69
-4.44
-19.31
-25.21
-18.39
-2.59
13.22
19.88
13.58
-1.99
-17.69
-24.15
-17.23
-0.47
16.94
25.39
20.34
4.98
-11.70
-19.99
-15.18
-0.25
15.85
23.55
18.19
2.82
-13.61
-21.44
-15.94
-0.15
16.89
25.34
20.18
4.18
-13.69
-23.49
-20.06
-5.99
9.96
18.02
13.22
-1.63
-17.72
-25.36
-19.70
-3.64
13.85
22.95
18.73
3.91
-12.73
-21.49
-17.31
-2.69
13.76
22.49
18.41
3.84
-12.90
-22.42
-19.53
-6.33
9.27
18.24
15.66
3.59
-10.25
-17.18
-12.66
0.81
15.26
21.78
15.91
0.44
-16.15
-24.28
-18.87
-2.33
16.67
27.99
25.76
11.64
-6.22
-17.90
-17.32
-5.69
9.34
18.31
15.45
2.08
-14.22
-24.13
-21.95
-9.05
7.03
17.05
15.44
3.71
-10.44
-17.74
-12.87
2.17
19.14
28.14
23.66
7.79
-10.77
-21.71
-19.14
-4.91
12.43
22.71
20.04
6.10
-10.97
-21.39
-19.40
-6.60
9.14
18.36
15.46
1.93
-14.46
-24.31
-21.97
-8.98
7.01
16.64
14.45
2.06
-12.74
-20.61
-16.20
-1.41
15.60
25.11
21.51
6.54
-11.61
-22.89
-21.20
-7.75
9.50
20.60
19.27
6.48
-10.06
-20.45
-18.37
-4.86
12.19
22.86
20.75
7.00
-10.39
-21.29
-19.27
-5.56
11.76
22.46
20.11
5.92
-11.99
-23.31
-21.43
-7.33
10.99
23.13
22.27
8.99
-9.19
-22.12
-23.03
-12.20
3.21
13.69
12.94
1.58
-13.20
-21.97
-18.65
-4.26
13.54
24.94
23.53
10.17
-7.50
-19.43
-18.93
-6.54
10.34
21.66
20.58
7.42
-10.56
-23.28
-23.51
-11.05
7.27
21.47
24.21
14.78
-0.66
-12.72
-14.49
-5.37
8.51
18.20
17.19
5.47
-10.42
-21.32
-20.78
-9.02
7.17
18.37
18.05
6.43
-9.68
-20.75
-20.07
-7.70
9.55
21.97
22.54
11.02
-5.94
-18.59
-19.74
-8.92
7.33
19.26
19.81
8.61
-7.63
-19.14
-18.93
-7.02
9.47
20.57
19.20
5.52
-13.09
-26.36
-26.91
-14.55
3.84
18.21
21.23
12.33
-2.27
-13.34
-14.15
-4.44
9.62
19.12
17.89
6.19
-9.32
-19.45
-17.93
-5.15
11.82
23.39
23.02
10.92
-5.89
-17.80
-18.14
-7.12
8.35
18.73
17.40
4.51
-12.98
-25.42
-25.77
-13.79
3.95
17.72
20.28
10.93
-4.13
-15.53
-16.22
-5.70
9.63
20.34
19.59
7.27
-9.76
-21.70
-21.55
-9.24
8.17
20.58
20.94
9.08
-8.06
-20.51
-21.27
-10.14
6.03
17.56
17.51
5.70
-11.11
-23.31
-23.79
-12.26
4.77
17.65
19.31
9.25
-6.11
-17.35
-17.57
-6.47
9.38
20.53
20.24
8.48
-7.99
-19.55
-19.47
-7.77
8.67
20.18
20.10
8.51
-7.69
-18.83
-18.12
-5.71
11.36
23.19
22.69
9.72
-8.63
-22.20
-23.41
-11.65
6.36
20.45
22.93
12.95
-3.14
-15.48
-16.57
-5.65
10.84
23.01
23.38
11.19
-7.14
-21.66
-24.73
-15.22
0.78
13.69
16.09
6.91
-7.97
-19.23
-19.62
-8.36
8.45
21.30
22.85
12.12
-4.73
-18.21
-20.79
-11.39
4.12
16.39
18.14
8.50
-6.46
-17.38
-17.24
-5.70
10.56
21.67
20.52
6.90
-12.07
-26.04
-27.40
-15.59
2.52
16.72
19.33
9.55
-6.18
-18.05
-18.67
-7.34
9.56
22.36
23.68
12.71
-4.30
-17.76
-20.20
-10.69
4.81
16.88
18.30
8.29
-7.08
-18.40
-18.55
-7.02
9.64
21.57
21.43
8.63
-10.05
-24.30
-26.19
-14.78
3.34
17.85
20.55
10.09
-7.18
-21.02
-23.18
-12.17
5.76
20.46
23.70
14.02
-2.49
-15.82
-17.97
-7.69
8.93
21.95
23.57
12.73
-4.32
-17.71
-19.69
-9.20
7.45
20.39
21.93
10.93
-6.45
-20.32
-22.84
-12.71
4.06
17.69
20.25
10.33
-6.09
-19.21
-21.07
-10.28
7.08
21.00
23.33
12.56
-5.25
-19.99
-23.28
-13.43
3.74
18.12
21.27
11.34
-5.89
-20.35
-23.52
-13.42
4.19
19.18
22.98
13.47
-3.74
-18.64
-22.73
-13.86
2.53
16.72
20.36
11.43
-4.62
-18.11
-20.78
-10.67
6.69
21.56
25.59
16.63
0.02
-14.74
-19.39
-11.86
2.79
15.28
17.72
8.30
-7.69
-20.95
-23.66
-14.04
2.54
16.73
20.77
12.76
-2.06
-14.56
-17.08
-7.91
7.57
20.09
21.81
11.08
-6.53
-21.30
-24.96
-15.45
1.80
17.04
21.74
13.52
-2.48
-16.80
-20.97
-12.47
3.89
18.80
23.79
16.14
0.27
-14.84
-20.86
-14.92
-1.17
11.75
15.86
8.50
-5.98
-18.81
-22.02
-13.12
3.17
17.73
22.24
14.14
-1.83
-16.36
-21.01
-13.22
2.20
16.00
19.86
11.30
-4.75
-19.08
-23.42
-15.28
0.65
15.29
20.59
14.17
0.55
-11.55
-14.44
-6.11
8.55
20.62
22.38
12.00
-5.27
-20.00
-24.05
-15.16
1.45
16.22
20.69
12.38
-3.70
-17.91
-21.63
-12.28
5.12
20.80
25.87
17.45
0.39
-15.61
-21.56
-14.39
1.38
16.26
21.41
13.86
-1.99
-16.89
-22.25
-15.21
-0.25
13.47
17.53
9.19
-6.92
-21.50
-25.94
-17.14
0.47
17.58
25.21
19.61
4.43
-11.55
-19.43
-15.23
-2.06
11.93
18.34
13.46
0.41
-12.82
-18.02
-11.72
2.76
17.08
22.82
16.40
1.39
-13.59
-19.84
-13.82
0.69
14.78
19.67
11.90
-4.49
-20.22
-26.23
-18.80
-1.90
15.11
23.01
17.86
3.35
-11.51
-17.65
-11.35
3.60
18.20
23.40
15.55
-1.40
-18.24
-25.65
-19.58
-3.58
13.21
21.51
17.09
3.13
-11.85
-19.05
-14.55
-1.53
11.71
16.75
10.04
-5.01
-19.82
-25.67
-18.60
-1.91
15.67
24.99
21.45
7.62
-8.28
-17.24
-14.49
-2.27
11.80
19.05
14.99
1.92
-12.50
-19.77
-15.48
-2.09
12.58
19.97
15.76
2.47
-11.99
-18.98
-14.32
-0.69
13.74
20.23
14.68
0.01
-15.24
-22.04
-16.05
-0.37
16.30
24.64
20.04
5.20
-11.36
-20.42
-17.17
-4.12
10.62
18.06
13.67
0.14
-14.26
-20.62
-14.68
0.39
15.84
22.52
16.25
0.50
-15.67
-22.85
-16.80
-0.84
16.03
24.41
19.98
5.73
-9.85
-17.77
-13.76
-0.74
12.97
18.61
12.00
-3.90
-20.50
-28.48
-23.04
-6.81
11.57
22.30
19.97
6.62
-9.36
-18.30
-14.79
-0.97
14.81
22.87
17.95
2.38
-15.26
-25.03
-21.35
-6.24
11.83
22.86
21.05
8.08
-7.94
-17.27
-14.24
-0.63
15.36
24.04
19.89
4.79
-12.93
-23.45
-21.07
-7.56
8.94
18.79
16.44
3.62
-11.71
-20.22
-16.60
-2.76
13.28
21.98
17.84
2.69
-15.25
-25.94
-23.22
-8.51
9.91
21.69
20.32
6.91
-10.42
-21.43
-19.79
-6.72
9.69
19.41
16.46
2.37
-14.57
-24.32
-20.94
-6.12
11.78
22.65
20.46
6.66
-10.58
-21.37
-19.59
-6.54
9.98
20.28
18.52
6.08
-9.24
-17.95
-14.46
-0.49
15.93
25.10
21.36
6.38
-11.81
-23.27
-21.80
-8.42
9.24
21.27
21.18
9.42
-6.84
-18.04
-17.81
-6.68
8.24
17.61
15.32
2.20
-14.34
-24.76
-22.82
-9.39
8.04
19.68
19.15
7.18
-8.81
-19.12
-17.46
-4.73
11.59
21.70
19.37
5.66
-11.69
-22.56
-20.41
-6.04
12.73
25.57
25.57
13.08
-4.46
-17.03
-17.84
-7.20
7.79
17.62
16.02
3.69
-12.07
-21.70
-19.10
-5.26
12.13
23.19
21.55
8.07
-9.55
-21.35
-20.68
-8.11
9.00
20.67
20.10
7.64
-9.49
-21.27
-20.77
-8.16
9.31
21.63
21.85
10.06
-6.66
-18.52
-18.79
-7.59
8.11
18.78
17.95
5.94
-10.23
-20.97
-19.84
-7.31
9.41
20.63
19.67
6.81
-10.81
-23.43
-24.10
-12.75
3.97
16.52
18.11
8.51
-5.90
-16.05
-15.55
-4.47
10.68
20.79
19.52
7.04
-9.98
-22.01
-22.20
-10.22
7.35
20.75
22.64
12.20
-4.40
-17.53
-19.80
-10.24
5.12
17.00
18.26
8.21
-7.04
-18.23
-18.37
-7.04
9.34
21.23
21.49
9.63
-7.82
-21.11
-22.74
-11.92
5.13
18.64
21.02
11.20
-4.75
-17.28
-18.91
-8.78
6.85
18.34
18.40
6.50
-10.69
-23.23
-23.62
-11.22
7.33
21.91
24.80
14.98
-1.41
-14.67
-17.26
-8.19
6.46
17.36
17.35
5.73
-11.19
-23.82
-24.73
-12.99
5.21
20.04
23.72
14.83
-0.90
-13.97
-16.64
-7.49
7.84
19.92
21.12
10.19
-6.94
-20.56
-22.68
-11.87
5.78
20.19
23.10
12.86
-4.64
-19.42
-23.33
-14.66
0.87
13.71
16.18
6.92
-8.30
-20.03
-20.92
-9.97
6.63
19.20
20.18
8.68
-9.01
-23.03
-25.51
-15.15
2.26
17.04
21.34
13.54
-1.00
-13.16
-15.49
-6.57
8.09
19.41
20.11
9.05
-7.95
-21.28
-23.08
-11.73
6.96
22.94
27.72
18.97
1.98
-13.36
-18.47
-10.92
4.08
16.94
19.32
9.22
-7.72
-21.57
-23.92
-13.05
5.07
20.21
23.84
14.15
-2.94
-17.46
-21.14
-12.15
4.05
17.95
21.57
13.04
-2.52
-16.02
-19.72
-11.62
3.32
16.07
18.95
9.94
-5.98
-19.59
-22.86
-13.53
3.29
18.10
22.37
13.55
-3.46
-19.08
-24.63
-17.32
-1.78
12.82
18.10
11.37
-2.84
-15.60
-18.74
-9.83
6.33
20.49
24.21
14.88
-2.61
-18.68
-24.40
-16.69
0.01
16.24
23.00
16.90
1.96
-12.78
-18.69
-12.61
1.35
14.26
17.87
9.52
-6.24
-20.26
-24.21
-15.37
1.63
17.50
23.61
16.94
1.82
-12.69
-18.14
-11.60
2.58
15.57
19.28
11.14
-4.18
-17.62
-20.88
-11.45
5.82
21.39
26.46
18.05
0.75
-15.90
-22.87
-16.77
-1.67
13.22
19.05
12.47
-2.40
-16.39
-20.79
-12.55
3.70
18.32
22.37
12.84
-5.39
-22.29
-28.43
-20.28
-2.33
15.60
23.98
18.89
4.18
-11.00
-17.60
-11.98
2.10
15.85
20.71
13.46
-1.89
-16.42
-21.48
-13.77
2.68
18.80
25.62
19.43
3.92
-12.11
-19.82
-15.45
-2.36
11.01
16.25
9.94
-4.23
-17.64
-21.89
-13.75
2.58
17.93
23.44
15.73
-0.96
-17.25
-24.02
-17.63
-2.09
13.37
19.67
13.24
-1.95
-16.57
-21.61
-13.56
3.29
19.44
25.57
17.94
0.72
-16.58
-24.34
-18.41
-2.39
14.47
22.63
17.73
3.03
-12.62
-20.02
-15.05
-1.04
13.23
18.73
11.65
-4.33
-19.98
-26.02
-18.52
-1.42
15.72
23.30
17.15
1.01
-15.71
-23.48
-18.08
-3.01
12.82
20.26
15.34
1.49
-12.54
-18.04
-11.39
3.67
18.27
23.66
16.28
-0.04
-16.26
-23.25
-16.98
-0.84
16.17
24.58
19.87
4.91
-11.62
-20.39
-16.75
-3.43
11.20
18.14
13.03
-1.15
-15.89
-22.09
-15.55
0.38
16.72
24.05
18.02
1.97
-15.04
-23.43
-18.52
-3.32
13.38
22.04
17.87
3.61
-12.09
-19.78
-14.69
0.40
16.78
24.84
19.70
4.05
-13.33
-22.60
-18.51
-3.52
13.62
22.92
18.96
4.10
-12.94
-22.27
-18.56
-4.22
12.04
20.39
15.69
0.51
-16.28
-24.87
-20.15
-4.91
11.90
20.39
15.63
0.41
-16.32
-24.79
-19.99
-4.65
12.59
22.15
19.12
5.96
-9.12
-17.10
-13.47
-0.81
12.96
19.25
14.02
0.12
-14.35
-20.73
-14.98
0.02
15.88
23.56
18.61
3.74
-12.71
-21.51
-17.79
-3.83
12.32
21.45
18.54
5.63
-9.43
-17.59
-13.98
-0.85
13.68
20.43
14.59
-1.31
-18.59
-27.44
-22.47
-6.09
12.84
23.90
21.21
6.70
-11.02
-21.78
-19.73
-6.65
9.31
18.56
15.79
3.14
-11.26
-18.24
-13.10
1.42
16.88
24.01
18.24
2.48
-14.53
-23.11
-18.23
-2.36
15.75
26.13
23.12
8.60
-9.24
-20.64
-19.86
-8.32
6.39
15.09
12.47
0.13
-14.29
-21.87
-17.57
-3.42
12.61
21.26
17.38
2.99
-13.79
-23.24
-19.63
-4.55
13.99
25.94
24.99
12.10
-5.15
-17.10
-17.49
-7.22
6.51
14.64
11.69
-0.77
-15.14
-22.30
-17.19
-2.02
14.84
23.71
19.28
3.73
-14.45
-25.21
-22.62
-8.19
9.99
21.86
21.18
8.94
-7.32
-17.95
-16.87
-5.01
10.28
19.68
17.37
4.54
-11.30
-20.79
-18.19
-4.93
11.20
20.55
17.30
2.86
-14.84
-25.87
-23.87
-9.75
8.87
21.95
22.68
11.39
-4.82
-16.27
-16.35
-5.43
9.57
19.26
17.55
5.22
-10.32
-19.51
-16.38
-2.28
14.76
24.68
21.40
6.43
-11.95
-23.43
-21.55
-7.49
10.73
22.78
22.00
9.13
-8.24
-20.18
-20.11
-8.74
6.54
16.09
13.77
0.53
-15.98
-25.90
-23.03
-8.48
9.82
21.73
20.86
8.11
-8.84
-20.00
-18.83
-6.03
11.07
22.69
22.24
10.19
-6.32
-17.69
-17.43
-5.95
9.70
19.94
18.43
5.80
-10.52
-20.66
-18.16
-4.00
13.84
24.82
22.22
6.95
-12.77
-26.04
-25.49
-11.42
8.39
23.28
25.74
15.49
-0.63
-12.89
-14.42
-5.21
8.18
16.75
14.53
2.15
-13.32
-22.67
-19.98
-6.35
10.57
20.98
18.71
4.80
-12.92
-24.31
-22.75
-9.09
9.01
21.34
21.11
8.89
-7.85
-19.19
-18.48
-6.28
9.98
20.48
18.69
5.30
-12.11
-23.46
-22.05
-8.55
9.26
20.98
19.70
5.98
-12.34
-24.67
-23.74
-9.85
9.38
23.35
24.70
13.34
-3.63
-16.35
-17.82
-8.04
6.31
15.97
14.65
2.77
-12.68
-22.41
-20.34
-7.21
9.58
20.38
18.86
5.77
-11.34
-22.40
-20.58
-6.34
12.72
26.22
26.77
14.24
-4.28
-18.55
-20.97
-10.87
5.41
18.22
20.28
10.87
-3.83
-14.72
-15.14
-5.05
9.06
18.08
15.93
3.33
-12.50
-22.03
-19.17
-5.08
12.38
23.13
20.83
6.54
-11.85
-24.11
-23.37
-10.02
8.57
22.33
24.10
13.51
-2.89
-15.62
-17.72
-8.75
5.16
15.09
14.64
3.69
-11.34
-21.39
-20.13
-7.82
8.67
19.78
18.93
6.34
-10.92
-22.95
-22.70
-10.13
7.77
20.93
21.91
10.28
-7.30
-20.93
-23.06
-12.82
3.64
16.88
19.58
10.72
-3.89
-15.25
-16.31
-6.29
8.93
20.18
20.53
9.33
-7.21
-19.59
-20.58
-9.53
7.10
19.56
20.52
9.37
-7.33
-19.67
-20.08
-7.88
10.38
24.70
27.33
17.24
0.61
-12.92
-15.80
-7.04
7.29
17.93
17.75
6.21
-10.30
-22.22
-22.49
-10.84
6.01
18.16
18.43
6.47
-10.93
-23.80
-24.75
-13.25
4.15
17.58
19.57
9.30
-7.07
-20.00
-22.00
-11.88
4.59
18.14
21.24
12.47
-2.75
-15.43
-18.22
-9.65
4.94
16.72
18.55
9.27
-5.61
-17.08
-18.03
-7.51
8.55
20.87
22.29
11.90
-4.32
-16.97
-18.71
-8.60
7.36
19.58
20.54
9.17
-8.45
-22.47
-24.95
-14.46
3.00
17.49
20.80
11.24
-5.40
-19.28
-22.25
-12.67
3.63
16.88
19.06
8.78
-7.92
-21.06
-22.60
-11.28
6.53
20.50
22.47
11.18
-6.89
-21.25
-23.49
-12.16
6.37
21.54
24.77
14.36
-3.64
-18.93
-22.94
-13.74
2.97
17.34
21.09
12.38
-3.21
-16.15
-18.59
-8.95
7.02
19.80
21.67
11.29
-5.44
-18.80
-20.96
-10.52
6.50
20.17
22.45
11.83
-5.70
-19.93
-22.35
-11.12
7.82
24.03
28.47
18.81
0.56
-16.00
-21.80
-14.17
1.80
16.38
20.96
13.02
-2.41
-15.99
-19.63
-11.33
3.65
15.96
17.85
7.72
-8.80
-22.06
-24.20
-13.71
3.52
17.52
20.10
9.59
-8.16
-22.97
-26.29
-16.04
2.15
18.21
23.23
14.75
-2.16
-17.75
-23.25
-15.81
-0.01
15.00
20.91
14.99
1.62
-10.62
-14.12
-6.75
6.77
17.79
19.00
8.90
-7.22
-20.11
-22.16
-11.85
5.19
19.22
22.17
12.24
-4.96
-19.52
-22.95
-13.15
4.42
19.88
24.59
16.22
-0.15
-14.89
-19.50
-11.48
4.34
18.73
23.41
15.79
0.41
-13.89
-19.08
-12.54
1.41
14.18
17.91
10.09
-4.92
-18.40
-22.41
-14.48
0.82
14.40
18.08
9.40
-6.85
-21.12
-24.83
-15.38
2.22
18.17
23.57
15.62
-0.82
-16.04
-21.18
-13.38
2.60
17.24
21.88
13.77
-2.29
-16.91
-21.57
-13.47
2.72
17.85
23.52
16.89
2.33
-11.42
-16.38
-10.01
3.29
14.83
16.95
7.51
-8.59
-22.16
-25.08
-15.12
2.56
18.26
23.21
14.69
-2.38
-18.18
-23.57
-15.38
1.79
18.20
24.58
17.41
0.89
-15.43
-22.18
-15.43
0.93
17.62
25.21
19.55
4.18
-11.89
-19.49
-14.67
-1.06
12.47
17.17
9.71
-5.71
-19.75
-23.61
-14.35
3.19
19.00
23.87
14.74
-3.31
-20.05
-25.91
-17.63
-0.07
16.63
23.03
15.87
-0.17
-15.28
-20.43
-12.53
3.63
18.37
22.78
13.94
-3.37
-19.53
-25.59
-18.30
-1.95
14.22
21.29
15.76
1.44
-12.84
-18.47
-11.98
2.83
17.11
22.18
14.63
-1.62
-17.49
-24.05
-17.72
-2.45
12.57
18.25
11.11
-4.61
-19.39
-24.02
-15.14
2.71
19.56
25.83
17.86
0.14
-17.24
-24.34
-17.08
0.45
18.32
26.41
20.24
3.43
-14.47
-23.49
-18.92
-3.87
12.68
21.25
17.26
3.68
-10.94
-17.65
-12.45
1.45
15.57
21.34
15.20
0.68
-13.62
-19.18
-12.56
2.50
17.16
22.68
15.54
-0.41
-16.01
-22.24
-15.37
0.63
16.35
22.34
14.65
-2.74
-20.13
-27.61
-20.74
-3.22
15.34
24.84
20.48
5.35
-11.47
-20.28
-16.26
-2.22
13.23
20.87
16.21
2.16
-12.83
-19.85
-14.75
-0.69
13.82
20.03
14.12
-0.52
-15.20
-21.12
-14.53
0.91
16.16
22.13
14.93
-1.68
-18.47
-26.00
-20.15
-4.59
11.46
18.58
12.79
-2.18
-17.05
-22.60
-15.08
1.49
17.78
24.51
17.90
1.88
-14.30
-21.33
-15.15
0.73
17.24
24.97
19.41
3.46
-14.23
-24.19
-21.37
-7.87
8.37
18.19
16.47
4.87
-9.23
-17.25
-14.38
-2.47
11.21
18.32
14.51
2.06
-11.42
-17.50
-11.98
2.41
17.50
24.39
18.75
3.47
-12.85
-20.92
-16.13
-1.33
14.74
22.52
17.15
1.42
-15.73
-24.45
-19.54
-3.70
14.07
23.63
19.48
3.98
-14.00
-24.23
-20.92
-6.17
11.47
21.90
19.43
6.04
-9.93
-18.71
-14.91
-0.74
15.41
23.84
19.39
4.48
-12.33
-21.41
-17.65
-3.60
12.15
20.00
15.05
-0.05
-16.68
-25.39
-21.35
-7.23
8.46
16.45
12.11
-1.89
-17.18
-24.59
-19.63
-5.07
10.70
18.58
14.16
0.34
-14.34
-20.68
-14.31
1.63
18.26
25.94
19.92
3.16
-15.28
-25.33
-21.51
-6.16
11.97
22.73
20.39
6.78
-9.84
-19.58
-16.70
-2.83
13.90
23.79
21.16
7.59
-9.01
-19.08
-16.97
-4.22
11.46
20.82
18.43
5.94
-9.00
-17.29
-13.68
0.07
16.10
25.17
21.92
8.09
-8.42
-18.34
-16.25
-3.84
11.13
19.46
15.92
2.41
-13.23
-21.82
-18.33
-4.95
10.24
17.93
13.18
-1.60
-18.01
-26.46
-21.74
-6.19
11.63
21.84
18.83
4.60
-12.36
-22.04
-18.49
-3.41
14.75
25.79
23.43
9.05
-9.10
-20.76
-19.48
-6.33
10.86
22.12
21.11
8.77
-7.51
-18.27
-17.48
-6.20
8.33
16.99
14.22
1.47
-13.79
-22.48
-19.34
-6.19
9.12
17.26
13.06
-1.41
-17.87
-26.71
-22.53
-7.30
10.78
22.11
21.13
9.38
-5.60
-14.87
-13.30
-2.52
10.31
16.87
12.70
0.00
-13.62
-19.62
-13.68
1.56
17.73
25.50
19.94
3.51
-15.11
-25.86
-22.95
-8.21
9.93
21.27
19.77
6.85
-9.43
-19.18
-16.47
-2.74
13.91
23.62
20.37
5.52
-12.87
-24.69
-23.40
-9.77
8.50
21.21
21.44
9.35
-7.96
-20.59
-21.48
-10.48
5.68
17.40
17.90
7.13
-8.24
-18.85
-18.22
-6.57
9.32
20.12
19.49
7.75
-8.22
-19.19
-18.83
-7.41
8.32
19.31
19.40
8.99
-5.25
-14.52
-13.00
-1.47
13.14
21.94
19.39
6.66
-8.87
-18.13
-15.53
-2.50
13.33
22.50
19.17
4.60
-13.46
-25.22
-24.25
-11.38
5.95
17.88
17.81
6.22
-9.69
-20.22
-18.79
-5.97
10.87
21.88
20.49
7.31
-10.09
-21.63
-20.43
-7.02
11.01
23.39
23.07
10.35
-7.35
-19.87
-20.08
-8.12
8.81
20.69
20.60
8.66
-7.98
-19.46
-18.91
-6.49
10.84
23.23
23.74
12.25
-4.57
-17.24
-18.88
-9.22
5.44
15.82
15.28
3.71
-12.43
-23.87
-24.00
-12.85
2.90
13.83
13.35
1.74
-14.05
-24.51
-23.04
-10.05
7.34
19.42
19.54
7.99
-8.18
-19.21
-18.53
-6.48
9.86
20.96
20.36
8.51
-7.56
-18.36
-17.66
-6.13
9.06
18.51
16.24
3.34
-12.60
-21.94
-18.71
-4.26
13.48
24.58
22.84
9.44
-7.85
-19.13
-18.18
-5.97
9.85
19.62
17.34
4.10
-12.44
-22.54
-20.02
-5.78
12.47
24.75
24.50
12.12
-5.15
-17.41
-17.77
-6.23
10.25
21.93
21.79
9.69
-7.59
-20.25
-21.09
-9.77
6.91
18.94
18.90
6.26
-12.19
-26.15
-27.79
-16.19
1.99
16.44
19.21
9.17
-7.31
-20.17
-21.57
-10.44
6.92
20.57
22.87
12.94
-2.86
-14.81
-15.58
-4.75
11.08
22.23
21.78
9.76
-6.85
-18.32
-17.85
-5.63
11.23
22.98
22.82
10.82
-6.12
-18.45
-19.37
-8.74
6.83
18.05
18.21
7.11
-8.78
-20.13
-20.19
-8.76
7.61
19.45
19.82
8.48
-7.99
-20.09
-20.86
-10.13
5.53
16.69
16.63
5.40
-10.26
-20.97
-20.16
-8.13
8.12
19.06
18.16
5.77
-10.98
-22.31
-21.41
-8.46
9.37
21.98
22.14
9.65
-8.39
-21.77
-22.91
-11.44
5.70
18.32
19.01
7.50
-9.10
-20.64
-19.79
-6.60
11.52
24.07
23.70
10.49
-8.04
-21.24
-21.48
-8.62
9.97
23.61
24.48
12.11
-6.40
-20.45
-22.02
-10.30
7.94
22.25
24.58
13.88
-3.43
-17.20
-19.46
-9.06
7.82
21.20
23.25
12.84
-3.94
-17.48
-20.16
-10.90
4.32
16.06
17.02
6.35
-9.92
-22.42
-23.90
-13.50
2.87
15.88
18.33
9.28
-5.51
-17.06
-18.38
-8.74
6.03
17.00
17.41
6.91
-8.28
-19.01
-18.61
-6.97
9.33
20.78
20.56
8.63
-8.25
-20.47
-21.13
-10.17
5.71
17.04
17.09
5.87
-9.98
-21.08
-20.86
-9.38
6.72
18.18
18.50
7.79
-7.32
-17.60
-16.62
-4.68
11.34
21.97
20.75
8.09
-8.79
-20.08
-19.06
-6.23
10.89
22.12
20.55
6.62
-12.10
-25.24
-25.58
-13.22
4.53
17.50
18.52
7.49
-8.61
-19.83
-19.13
-6.41
11.31
24.05
24.62
12.72
-4.80
-17.91
-19.22
-8.18
8.47
20.77
21.27
9.46
-7.94
-20.80
-21.55
-9.54
8.44
22.18
23.95
12.92
-4.42
-18.05
-20.37
-10.49
5.24
17.20
18.19
7.61
-8.22
-19.66
-19.70
-7.90
9.14
21.63
22.41
10.94
-6.20
-19.10
-20.41
-9.50
7.00
19.18
19.69
7.98
-9.27
-22.01
-22.77
-10.93
6.76
20.22
21.91
11.06
-5.83
-18.81
-20.29
-9.37
7.59
20.69
22.28
11.30
-6.17
-20.20
-22.90
-12.87
3.97
17.83
20.80
11.28
-5.02
-18.51
-21.29
-11.76
4.43
17.69
20.20
10.30
-6.44
-20.48
-23.80
-14.42
2.28
16.81
20.98
12.54
-3.50
-17.85
-22.24
-14.28
1.09
14.67
18.31
9.82
-5.77
-19.04
-21.88
-12.21
4.61
18.89
22.35
12.91
-4.06
-18.77
-22.79
-13.77
3.09
18.18
23.07
15.35
0.05
-13.52
-17.22
-8.92
6.19
18.85
21.13
11.40
-4.75
-17.82
-20.01
-9.88
6.67
19.92
22.05
11.75
-5.06
-18.73
-21.49
-11.96
4.07
17.12
19.46
9.66
-6.62
-19.93
-22.57
-12.95
3.28
16.67
19.40
9.96
-5.93
-18.70
-20.57
-10.16
6.62
20.05
22.27
11.96
-4.89
-18.52
-21.14
-11.43
4.71
17.74
20.05
10.45
-5.18
-17.46
-18.98
-8.68
7.48
20.09
21.72
11.35
-5.01
-17.86
-19.78
-9.67
6.54
19.41
21.49
11.65
-4.31
-17.09
-19.28
-9.72
5.90
18.41
20.44
10.82
-4.85
-17.48
-19.79
-10.60
4.52
16.53
18.18
8.33
-7.34
-19.74
-21.57
-11.66
4.36
17.36
19.96
10.94
-4.17
-16.30
-18.24
-8.84
6.31
18.25
19.86
10.17
-5.17
-17.15
-18.67
-8.77
6.82
19.06
20.70
10.76
-5.01
-17.39
-19.06
-8.89
7.29
20.09
21.99
11.74
-4.82
-18.21
-20.77
-11.17
4.81
17.69
19.79
9.85
-6.44
-19.65
-22.27
-13.10
2.14
14.17
15.66
5.63
-10.00
-21.88
-22.64
-11.37
5.86
19.51
22.01
12.27
-3.79
-16.62
-18.69
-8.78
7.33
20.24
22.47
12.74
-3.29
-16.36
-19.06
-10.10
4.96
17.04
18.87
9.38
-5.74
-17.40
-18.46
-8.07
7.81
19.85
20.81
9.90
-6.72
-19.56
-21.32
-11.18
4.66
16.80
18.09
7.94
-7.41
-18.64
-18.85
-7.78
8.11
19.42
19.36
7.82
-8.61
-20.40
-20.68
-9.27
7.27
19.46
20.38
9.78
-5.89
-17.34
-17.78
-7.05
8.41
19.32
19.06
7.57
-8.61
-20.14
-20.32
-8.99
7.34
19.30
20.05
9.22
-6.89
-18.93
-19.90
-9.19
7.06
19.51
21.04
10.86
-5.10
-17.58
-19.36
-9.44
6.37
18.97
21.18
12.04
-2.70
-13.93
-14.61
-3.89
12.18
24.19
24.81
13.03
-5.10
-19.90
-23.60
-14.67
1.23
14.64
17.86
9.32
-5.55
-17.63
-19.49
-9.73
6.07
18.73
20.83
10.98
-5.28
-18.77
-21.97
-13.39
1.42
13.28
14.74
4.44
-11.92
-24.92
-26.93
-16.55
0.41
14.37
17.63
8.77
-6.48
-18.62
-20.01
-9.38
7.36
20.65
22.91
12.95
-3.29
-16.18
-18.20
-8.31
7.27
18.73
18.59
6.07
-12.21
-25.93
-27.11
-14.81
4.22
19.43
22.63
12.60
-4.18
-17.42
-19.15
-8.33
8.43
20.89
21.31
8.99
-9.18
-22.65
-23.47
-10.84
8.27
23.15
25.69
14.91
-2.43
-15.76
-17.07
-5.57
11.81
24.48
24.60
11.60
-7.30
-21.24
-22.21
-9.66
9.12
23.30
24.82
13.01
-5.05
-18.73
-20.12
-8.64
8.63
21.22
21.53
9.22
-8.47
-21.08
-21.18
-8.72
8.81
20.90
20.26
7.07
-11.00
-23.32
-22.63
-9.31
8.73
20.83
19.75
5.91
-12.84
-25.68
-25.19
-11.55
7.51
21.35
22.45
10.74
-6.48
-18.88
-19.19
-7.43
9.20
20.60
19.85
7.23
-9.90
-21.48
-20.72
-8.11
8.81
20.01
18.89
6.22
-10.39
-20.98
-19.15
-5.84
11.22
22.15
20.67
7.72
-9.20
-20.40
-19.56
-7.46
8.64
19.18
17.92
5.58
-10.68
-21.35
-20.19
-7.94
8.20
18.73
17.43
5.11
-10.95
-21.24
-19.56
-6.68
10.17
21.43
20.84
8.99
-7.12
-18.22
-17.97
-6.74
8.79
19.35
18.46
6.25
-10.63
-22.76
-23.30
-12.04
4.51
16.73
17.54
6.48
-9.99
-22.32
-23.32
-12.45
4.01
16.57
18.12
8.09
-7.32
-18.86
-19.57
-8.95
6.94
18.97
20.42
10.89
-3.47
-13.70
-13.35
-2.43
12.55
22.34
20.55
7.53
-9.63
-21.18
-20.30
-7.21
10.92
24.05
25.01
13.64
-3.24
-15.76
-16.76
-6.00
9.80
20.81
20.03
7.39
-10.07
-22.30
-22.16
-9.73
7.77
20.06
20.03
7.86
-9.06
-20.53
-19.49
-6.38
11.27
23.18
22.47
9.57
-8.00
-20.22
-20.28
-8.73
7.08
17.33
15.58
2.55
-14.25
-24.91
-22.91
-8.95
9.39
22.00
22.11
10.10
-6.61
-18.03
-17.34
-4.98
11.61
22.34
20.41
6.51
-11.49
-23.21
-21.78
-8.00
10.05
21.91
20.79
7.62
-9.50
-20.26
-18.16
-4.51
12.44
22.38
18.95
3.52
-15.56
-27.85
-26.78
-13.44
4.14
15.84
15.20
3.27
-12.17
-21.25
-17.84
-3.29
14.35
25.08
22.80
8.87
-8.60
-19.63
-18.18
-5.70
9.86
18.91
15.91
2.65
-12.77
-20.90
-16.47
-1.59
15.46
25.09
21.83
7.54
-9.70
-20.29
-18.49
-5.65
10.68
21.18
20.08
8.35
-7.02
-17.14
-16.35
-5.45
8.86
18.04
16.62
5.48
-8.81
-17.75
-15.97
-4.42
10.13
18.96
16.55
3.80
-12.34
-22.73
-21.42
-9.04
7.37
18.50
18.04
6.32
-9.86
-21.19
-21.21
-10.07
5.54
16.33
15.98
4.82
-10.22
-19.69
-17.33
-3.77
13.49
24.59
23.08
9.85
-7.31
-18.24
-16.44
-3.00
13.95
24.11
21.15
6.46
-11.62
-22.68
-20.41
-6.31
11.21
21.89
19.65
6.16
-10.23
-19.55
-16.12
-1.98
14.35
23.05
18.79
3.93
-12.94
-22.00
-18.07
-3.52
12.99
21.74
17.55
2.85
-13.77
-22.61
-18.48
-3.81
12.79
21.40
16.69
0.95
-17.18
-27.59
-24.48
-9.68
8.50
20.00
18.77
6.11
-10.24
-20.71
-19.36
-7.31
8.12
17.71
15.81
3.60
-11.66
-20.88
-18.47
-5.71
10.09
19.69
17.37
4.35
-11.85
-21.79
-19.45
-5.92
11.28
22.47
21.45
9.13
-7.00
-17.29
-15.55
-2.78
13.45
23.39
20.96
7.28
-9.83
-20.57
-18.72
-5.42
11.53
22.27
20.53
7.34
-9.61
-20.56
-19.30
-6.96
8.77
18.22
15.50
1.99
-14.33
-23.77
-20.47
-6.18
10.88
20.82
17.95
4.20
-12.06
-21.03
-17.28
-3.04
13.12
21.54
17.10
2.38
-13.80
-21.65
-16.16
-0.17
17.18
25.83
20.63
4.45
-13.50
-22.93
-18.46
-2.71
15.25
25.25
21.80
7.20
-9.87
-19.59
-16.57
-2.97
12.90
21.57
17.87
3.84
-12.58
-22.20
-19.91
-7.51
7.35
15.82
12.95
0.54
-13.92
-21.61
-17.60
-3.79
12.08
20.88
17.43
3.57
-12.76
-22.00
-18.51
-3.91
13.62
24.15
21.72
7.89
-9.02
-18.88
-15.75
-1.52
15.07
23.68
18.65
2.47
-15.61
-24.91
-19.85
-3.24
15.30
25.08
20.67
5.02
-12.48
-21.60
-17.34
-2.77
12.98
20.23
14.55
-0.71
-16.54
-23.51
-17.45
-1.79
14.39
21.62
15.66
-0.21
-16.96
-25.07
-19.97
-4.62
12.08
20.57
16.04
1.28
-15.06
-23.46
-19.02
-4.39
11.89
20.30
15.96
1.54
-14.40
-22.37
-17.36
-1.93
15.37
24.89
21.43
7.27
-9.25
-18.50
-15.11
-1.17
15.12
24.05
20.20
5.56
-11.42
-20.79
-16.95
-2.03
15.13
24.13
19.11
2.39
-16.73
-27.48
-23.82
-8.20
10.03
20.13
16.39
1.54
-14.99
-22.92
-17.20
-1.26
15.20
22.06
14.88
-2.25
-19.22
-25.87
-17.98
0.11
18.11
25.82
19.08
2.05
-15.19
-22.75
-16.59
-0.75
15.10
21.55
14.94
-0.69
-15.93
-21.70
-14.41
1.89
17.96
24.73
18.45
2.70
-13.62
-21.47
-16.71
-2.38
13.09
20.83
16.57
3.07
-11.52
-18.49
-13.70
-0.07
14.04
19.86
13.44
-1.81
-16.99
-22.86
-15.35
1.90
19.51
27.83
22.52
7.09
-9.28
-17.09
-12.17
1.90
15.98
20.83
12.74
-4.25
-20.63
-26.98
-19.53
-2.44
14.61
22.02
15.86
0.08
-15.92
-22.86
-17.02
-2.23
12.40
17.98
11.12
-4.30
-19.31
-25.25
-18.74
-3.60
11.44
17.92
12.41
-1.40
-15.01
-19.93
-12.63
3.33
19.29
26.39
20.57
5.09
-11.27
-19.22
-14.13
1.02
17.39
25.30
19.79
3.61
-14.30
-24.13
-20.87
-7.23
7.98
15.32
10.30
-3.82
-18.12
-23.48
-16.07
0.13
15.86
22.03
15.22
-0.28
-15.01
-19.95
-11.77
5.02
20.86
26.61
18.87
1.89
-14.85
-22.16
-16.36
-1.26
14.11
20.96
15.60
1.51
-12.82
-18.98
-13.44
0.39
14.22
19.77
13.60
-0.91
-15.50
-21.75
-16.03
-1.60
13.17
19.69
14.06
-0.50
-15.50
-21.97
-15.81
-0.23
15.88
23.27
17.64
2.36
-13.44
-20.22
-13.65
2.68
19.23
26.15
19.09
1.90
-15.66
-23.54
-17.37
-1.04
15.64
22.74
16.15
-0.01
-15.97
-22.06
-14.59
1.99
17.72
23.10
14.68
-2.88
-19.67
-26.39
-19.72
-4.14
10.82
16.33
9.41
-5.47
-19.06
-22.91
-14.22
2.43
17.74
23.09
15.41
-0.85
-16.39
-22.18
-14.64
2.13
18.74
25.75
19.09
2.49
-14.66
-22.66
-17.09
-1.46
14.91
22.29
16.20
0.11
-16.61
-24.32
-18.58
-3.00
13.10
20.17
14.15
-1.13
-16.29
-22.04
-14.70
1.53
17.17
23.14
16.16
0.68
-13.86
-18.66
-10.80
5.11
19.69
24.38
16.43
0.41
-14.49
-19.83
-12.85
2.05
15.84
20.21
12.37
-3.33
-17.92
-22.95
-15.40
0.54
15.84
21.84
15.18
-0.27
-15.55
-21.86
-15.58
-0.39
14.80
21.16
15.04
0.24
-14.25
-19.45
-11.86
4.39
19.88
25.35
17.27
-0.05
-16.97
-24.01
-17.56
-1.83
13.56
19.33
12.02
-3.97
-19.09
-24.32
-16.49
-0.18
15.04
20.29
12.63
-3.29
-18.02
-22.88
-15.05
0.88
15.66
20.88
13.76
-1.16
-14.81
-18.77
-10.13
6.76
22.75
28.96
21.80
5.06
-12.20
-20.74
-16.38
-2.48
12.15
18.30
11.85
-3.70
-19.22
-25.35
-18.06
-1.25
15.51
22.58
15.99
-0.14
-15.99
-21.91
-14.16
2.76
18.86
24.55
16.35
-1.05
-17.69
-24.20
-17.39
-1.88
12.72
17.62
10.01
-5.53
-19.74
-24.24
-16.30
-0.32
14.73
20.65
14.56
0.47
-13.07
-17.94
-11.17
3.42
17.27
22.14
14.88
-0.61
-15.43
-20.78
-13.13
3.60
20.15
27.14
20.53
4.00
-13.16
-21.35
-16.27
-1.42
13.98
20.44
13.88
-1.92
-17.62
-23.86
-16.88
-0.76
14.95
20.94
13.70
-2.42
-17.90
-23.67
-16.50
-0.83
13.95
19.04
11.49
-4.25
-18.86
-23.60
-15.33
1.70
18.33
25.62
19.97
5.08
-10.21
-16.99
-11.34
3.31
18.19
24.27
17.47
1.32
-15.18
-22.64
-16.94
-1.69
13.81
20.08
13.17
-2.96
-18.70
-24.58
-16.84
0.25
16.92
23.64
16.73
0.44
-15.61
-22.06
-15.30
0.54
16.07
22.21
15.49
-0.16
-15.65
-22.02
-15.58
0.02
15.90
23.15
17.73
2.88
-12.88
-20.58
-16.02
-2.21
12.46
19.11
13.64
-0.77
-15.41
-21.12
-13.84
2.74
19.14
25.58
17.75
-0.42
-19.03
-27.81
-22.17
-5.80
11.57
19.88
14.73
-0.26
-15.77
-22.35
-15.99
-0.46
15.10
21.65
15.44
0.21
-15.12
-21.62
-15.54
-0.34
15.20
22.19
16.68
2.00
-13.15
-19.82
-13.96
1.06
16.33
22.66
15.91
-0.29
-16.68
-23.71
-17.21
-0.91
15.77
23.23
17.43
2.16
-13.27
-19.70
-13.51
1.20
15.23
19.87
12.07
-3.77
-18.39
-23.10
-14.88
1.94
18.08
24.69
18.22
2.35
-14.11
-22.20
-17.74
-3.65
11.79
19.69
15.57
2.04
-12.74
-19.75
-14.47
0.39
16.28
23.79
18.30
2.82
-13.65
-21.40
-15.78
-0.21
15.84
22.41
15.12
-2.23
-19.82
-27.65
-21.35
-4.70
12.64
20.89
15.83
1.04
-14.42
-21.34
-15.70
-0.89
14.52
21.72
16.80
2.86
-11.77
-18.40
-12.93
1.72
17.21
24.58
19.36
4.38
-11.88
-20.20
-15.94
-1.98
13.05
19.72
13.53
-2.37
-18.99
-26.77
-21.19
-5.37
11.75
20.66
16.77
2.88
-12.60
-20.53
-16.35
-2.65
12.47
20.07
15.59
1.41
-14.30
-22.40
-17.90
-3.00
14.06
23.82
20.88
7.18
-9.05
-18.18
-14.75
-0.82
15.24
23.71
19.32
4.42
-12.35
-21.27
-17.22
-2.85
13.03
20.62
15.12
-0.54
-17.39
-25.72
-20.71
-5.27
11.72
20.61
16.55
2.15
-14.09
-22.75
-18.85
-4.75
11.29
19.92
16.10
2.01
-14.01
-22.45
-17.94
-2.65
14.95
24.98
21.82
7.59
-9.24
-18.79
-15.69
-2.18
13.23
20.89
15.94
1.09
-14.92
-22.64
-17.42
-2.16
14.45
22.97
18.73
4.35
-11.82
-20.52
-16.81
-2.82
13.48
22.92
20.15
6.69
-9.88
-20.41
-19.13
-7.06
8.62
18.81
17.65
6.07
-8.85
-18.04
-15.90
-3.64
11.32
19.82
16.48
3.01
-12.82
-21.72
-18.46
-5.02
10.54
18.80
14.59
0.03
-16.66
-25.94
-22.37
-7.86
9.53
20.18
18.43
5.68
-10.38
-20.33
-18.27
-5.23
11.37
22.08
20.72
8.03
-8.74
-20.00
-19.30
-7.20
9.08
19.88
18.80
6.60
-9.25
-19.07
-16.75
-3.51
12.83
22.53
19.73
5.89
-11.07
-21.46
-19.40
-6.17
10.71
21.80
21.26
9.93
-5.14
-14.93
-13.64
-2.11
12.55
21.29
18.25
4.46
-12.56
-23.20
-21.30
-7.99
8.93
19.44
17.17
3.22
-14.53
-25.98
-24.63
-11.33
6.34
18.47
18.64
7.33
-8.42
-19.20
-18.65
-7.02
8.97
20.11
20.11
9.17
-6.00
-16.24
-15.19
-3.24
12.54
22.59
20.34
6.32
-12.04
-24.66
-24.58
-12.06
5.57
18.27
19.09
8.18
-7.43
-18.06
-16.99
-4.41
12.68
24.54
24.32
11.92
-5.79
-18.88
-20.09
-8.96
7.84
20.35
21.10
9.50
-7.74
-20.49
-21.17
-9.29
8.24
21.17
21.88
9.98
-7.58
-20.68
-21.90
-10.88
5.59
17.69
18.44
7.65
-8.13
-19.42
-19.44
-8.05
8.21
19.94
20.38
9.22
-7.14
-19.32
-20.36
-9.72
6.27
18.19
18.81
7.44
-9.58
-22.57
-24.04
-13.10
3.99
17.46
19.76
10.04
-5.42
-17.04
-17.63
-6.73
9.10
20.17
19.58
7.22
-10.09
-22.46
-22.74
-10.57
7.34
21.08
23.10
12.45
-4.67
-18.52
-21.31
-11.64
4.67
18.07
20.69
11.00
-5.28
-18.56
-20.95
-10.99
5.52
18.91
21.35
11.50
-4.78
-17.89
-20.11
-10.16
6.03
18.83
20.60
10.08
-6.80
-20.30
-22.55
-12.07
5.27
19.60
22.77
12.97
-4.11
-18.67
-22.42
-13.41
2.91
16.92
20.51
11.85
-3.65
-16.57
-19.05
-9.40
6.86
20.20
22.72
12.63
-4.55
-19.16
-22.95
-13.75
3.16
18.15
22.71
14.30
-2.12
-16.96
-21.54
-13.17
3.24
18.03
22.39
13.62
-3.33
-18.67
-23.45
-14.79
2.50
18.69
24.82
17.79
1.96
-13.48
-19.85
-14.03
-0.11
13.09
17.36
9.74
-5.58
-19.71
-24.23
-16.11
0.34
16.02
22.14
15.47
0.22
-14.45
-19.80
-12.70
2.54
16.68
21.18
13.30
-2.27
-16.31
-20.46
-12.22
3.57
17.55
21.43
12.70
-3.82
-18.67
-23.21
-14.49
2.88
19.36
25.88
18.97
2.86
-12.99
-19.39
-12.82
2.50
17.06
21.65
12.92
-4.69
-21.39
-27.79
-20.34
-3.38
13.51
21.00
15.43
0.61
-14.49
-21.04
-15.37
-1.00
13.50
19.63
13.74
-0.71
-15.16
-20.88
-14.00
1.95
18.19
25.56
19.87
4.38
-12.07
-20.21
-15.69
-1.65
13.12
19.47
13.36
-1.80
-17.13
-23.56
-17.14
-1.49
14.36
21.23
15.17
-0.31
-16.15
-23.11
-17.05
-1.42
14.73
22.10
16.38
0.90
-15.45
-23.32
-18.29
-3.44
12.64
20.73
16.45
2.59
-12.53
-19.93
-15.23
-1.09
14.32
22.11
17.82
3.98
-11.27
-18.90
-14.11
0.70
17.22
26.01
21.78
6.66
-10.97
-21.29
-18.69
-5.11
11.15
20.26
16.71
2.50
-14.10
-23.45
-20.22
-6.47
9.60
18.54
15.19
1.62
-14.06
-22.48
-18.38
-3.67
13.57
23.79
21.29
7.55
-9.58
-20.45
-19.10
-6.78
8.82
18.13
15.45
2.32
-13.33
-21.91
-17.95
-3.34
13.69
23.37
20.19
5.95
-11.22
-21.54
-19.19
-5.60
11.45
22.31
20.90
8.19
-8.36
-19.20
-18.13
-5.97
9.96
20.12
18.35
5.45
-11.24
-22.15
-21.03
-8.62
7.77
18.57
17.60
5.56
-10.31
-20.41
-18.44
-5.09
12.19
23.48
22.11
8.55
-9.68
-22.32
-22.34
-9.94
7.50
19.76
19.81
7.83
-8.97
-20.60
-20.14
-7.72
9.60
22.00
22.61
11.38
-4.90
-16.63
-16.89
-5.58
10.50
21.65
20.89
8.13
-9.60
-22.26
-22.56
-10.37
7.22
19.93
20.33
8.12
-9.74
-23.12
-24.54
-13.40
3.78
17.17
19.44
9.72
-5.87
-17.95
-19.33
-9.15
6.56
18.48
19.38
8.43
-8.23
-21.01
-22.47
-11.63
5.32
18.68
20.90
10.90
-5.23
-17.85
-19.42
-8.84
7.90
21.22
23.54
13.61
-2.72
-15.90
-18.21
-8.33
7.90
20.86
22.72
12.14
-4.90
-18.58
-20.87
-10.37
6.86
20.76
23.09
12.17
-6.10
-21.73
-26.32
-17.80
-1.60
12.71
17.02
9.33
-5.15
-17.10
-18.74
-8.41
8.31
21.76
23.93
13.16
-4.74
-19.79
-23.58
-14.06
3.20
18.32
22.80
14.36
-1.87
-16.33
-20.68
-12.49
3.27
17.21
20.99
12.20
-4.25
-18.96
-23.50
-15.37
0.51
14.75
18.99
10.86
-4.61
-18.08
-21.40
-12.46
3.53
17.23
20.58
11.58
-4.57
-18.46
-21.97
-12.87
3.73
18.36
22.65
14.15
-2.22
-16.96
-21.58
-13.38
2.80
17.46
21.96
13.54
-3.13
-18.53
-23.92
-16.16
0.37
16.37
23.01
16.82
1.77
-13.18
-19.12
-12.47
2.96
18.19
24.23
17.47
1.74
-13.85
-20.26
-13.87
1.40
16.45
22.29
15.39
-0.38
-16.02
-22.64
-16.54
-1.42
13.97
20.79
15.23
0.76
-13.92
-19.93
-13.37
2.26
17.99
24.62
18.09
1.84
-15.01
-23.05
-17.96
-3.00
12.89
20.38
15.16
0.31
-15.47
-22.97
-17.85
-3.08
12.73
20.35
15.25
0.29
-15.97
-24.23
-19.80
-5.39
10.52
18.66
14.38
0.44
-14.70
-21.79
-16.25
-0.87
15.75
24.21
19.75
4.92
-11.84
-21.05
-17.66
-3.98
11.79
20.29
16.47
2.60
-13.07
-21.22
-16.83
-2.32
13.92
22.37
17.98
3.13
-13.75
-23.14
-19.79
-5.83
10.55
19.93
17.04
3.86
-11.61
-19.99
-16.04
-1.74
14.79
24.00
20.50
6.14
-10.98
-21.20
-18.87
-5.54
10.98
21.19
19.37
6.89
-8.77
-18.32
-16.11
-3.45
12.23
21.60
19.00
5.71
-10.66
-20.62
-18.19
-4.68
12.09
22.30
19.80
5.77
-11.86
-23.10
-21.55
-8.18
9.26
20.84
20.15
7.93
-8.42
-19.21
-18.19
-6.12
9.61
19.45
17.28
4.02
-12.80
-23.39
-21.36
-7.50
10.62
22.99
22.77
10.24
-7.44
-20.31
-21.27
-10.15
6.31
18.42
19.09
8.08
-8.06
-19.75
-20.06
-8.81
7.31
18.68
18.53
6.82
-9.51
-20.77
-20.14
-7.79
9.11
20.64
19.81
6.76
-11.28
-24.08
-24.35
-11.87
6.27
19.86
21.43
10.54
-6.08
-18.46
-19.27
-7.99
8.83
21.53
22.83
12.05
-4.59
-17.58
-19.59
-9.67
6.29
18.94
20.92
11.17
-4.52
-16.93
-18.76
-9.05
6.23
17.79
18.50
7.63
-8.57
-20.65
-21.38
-10.16
6.60
19.26
20.39
9.25
-7.79
-20.87
-22.36
-11.26
6.07
19.63
21.60
10.88
-6.15
-19.47
-21.31
-10.71
5.97
18.89
20.49
9.97
-6.33
-18.71
-19.73
-8.56
8.43
21.43
22.76
11.42
-6.34
-20.54
-23.14
-12.74
4.67
19.07
22.25
12.50
-4.49
-18.85
-22.34
-13.01
3.70
18.28
22.61
14.63
-0.60
-14.03
-17.93
-10.37
3.67
15.34
17.25
7.88
-7.47
-19.70
-21.41
-11.15
5.52
19.28
22.39
13.10
-3.29
-17.49
-21.47
-13.12
2.61
16.49
20.42
12.14
-3.48
-17.20
-20.83
-12.12
3.83
17.53
20.67
11.00
-6.18
-21.11
-25.21
-16.03
1.27
16.99
22.51
15.21
-0.06
-13.94
-18.11
-10.11
5.16
18.42
21.52
12.20
-4.45
-18.94
-22.82
-13.61
3.73
19.57
25.09
17.30
0.69
-15.34
-21.89
-15.64
-0.67
13.92
19.46
12.71
-2.19
-16.26
-20.94
-13.17
2.72
17.61
22.85
15.30
-0.68
-15.87
-21.44
-14.08
1.87
17.07
22.48
14.70
-2.03
-18.20
-24.62
-17.66
-1.45
14.65
21.61
15.80
1.11
-13.42
-19.12
-12.60
2.29
16.73
22.12
15.12
-0.40
-15.59
-21.70
-15.25
-0.05
14.88
20.61
13.41
-2.87
-19.10
-25.97
-19.38
-2.95
14.21
22.52
17.55
2.49
-13.76
-21.70
-16.69
-1.71
14.48
22.48
17.61
2.75
-13.26
-20.87
-15.34
0.45
17.59
26.31
21.64
6.26
-11.10
-20.67
-17.32
-3.42
12.52
20.93
16.72
2.22
-14.17
-22.89
-18.84
-4.46
11.87
20.61
16.76
2.80
-12.85
-20.74
-16.00
-1.34
14.56
22.17
16.76
1.22
-15.51
-23.85
-19.04
-4.09
12.06
19.80
14.41
-1.09
-17.70
-25.61
-19.88
-3.34
14.99
25.03
21.43
6.54
-10.95
-21.15
-18.58
-5.33
10.36
19.00
15.45
1.82
-13.76
-21.98
-17.73
-3.13
13.72
23.31
20.32
6.58
-9.87
-19.44
-16.47
-2.61
14.04
23.52
19.88
4.63
-13.93
-25.54
-23.81
-10.02
7.75
19.37
18.48
6.20
-9.65
-19.27
-16.60
-2.90
13.93
23.99
21.24
7.00
-10.64
-21.55
-19.47
-5.63
11.93
23.07
21.47
8.21
-8.88
-19.90
-18.61
-6.09
10.05
20.07
17.81
4.29
-12.92
-24.06
-22.76
-9.87
7.14
18.43
17.51
4.97
-11.71
-22.68
-21.28
-8.05
9.53
21.36
20.55
7.49
-10.37
-22.74
-22.46
-9.53
8.81
22.29
23.62
12.40
-4.52
-17.14
-18.20
-7.22
9.15
21.19
21.75
10.55
-5.76
-17.46
-17.48
-5.69
11.04
22.77
22.40
9.76
-8.13
-21.21
-22.13
-10.58
6.54
19.23
20.07
8.65
-8.33
-20.93
-21.75
-10.23
7.01
19.93
21.00
9.41
-8.38
-22.31
-24.60
-14.07
3.10
17.13
20.30
11.41
-3.62
-15.32
-16.38
-5.97
9.70
21.10
20.99
8.85
-8.87
-22.38
-24.16
-13.43
3.51
16.86
18.98
8.79
-7.58
-20.44
-22.00
-11.00
6.53
20.71
23.45
13.19
-4.18
-18.66
-21.99
-12.38
4.28
17.95
20.43
10.10
-7.01
-20.81
-23.13
-12.47
5.14
19.71
23.10
13.84
-2.31
-15.68
-18.32
-8.80
7.21
20.10
22.10
11.67
-5.42
-19.50
-22.49
-12.60
4.58
19.38
23.50
14.87
-1.24
-15.34
-19.27
-10.86
4.74
18.09
21.12
11.60
-5.38
-20.34
-24.97
-16.74
-0.44
14.60
19.87
12.61
-2.69
-16.80
-21.12
-12.75
3.79
19.11
24.47
16.80
0.57
-14.96
-21.02
-14.54
0.15
14.11
18.93
11.75
-3.01
-16.57
-20.79
-13.05
2.15
15.87
19.90
11.50
-4.88
-20.07
-25.44
-17.65
-0.78
16.10
23.96
18.90
4.27
-11.36
-19.13
-14.97
-1.81
12.22
18.65
13.72
0.48
-12.92
-18.15
-11.68
2.98
17.32
22.74
15.67
-0.10
-15.63
-21.90
-15.06
1.10
17.35
24.26
17.67
1.13
-16.12
-24.56
-19.75
-4.91
11.10
19.03
14.54
0.78
-13.63
-19.71
-13.46
1.77
17.10
23.36
16.48
-0.21
-17.68
-26.31
-21.33
-5.57
12.17
22.09
18.95
5.13
-10.90
-19.45
-15.30
-0.74
15.72
24.36
20.01
5.04
-11.95
-21.29
-17.73
-3.66
12.44
21.03
17.00
2.81
-13.07
-21.09
-16.22
-0.90
16.16
25.08
20.51
4.64
-13.89
-24.92
-22.58
-8.64
8.58
19.09
16.95
3.80
-12.33
-21.65
-18.47
-4.54
12.03
21.50
18.31
4.26
-12.43
-22.07
-19.03
-5.16
11.30
20.72
17.48
3.44
-13.16
-22.59
-19.24
-4.90
12.15
21.98
18.80
4.25
-13.45
-24.15
-21.66
-7.24
11.05
23.02
22.21
9.50
-7.49
-18.80
-18.00
-5.93
10.05
20.20
18.35
5.36
-11.36
-22.20
-20.84
-8.05
8.86
20.35
19.98
8.30
-7.56
-18.07
-16.86
-4.43
11.97
22.58
20.89
7.33
-10.82
-23.56
-23.91
-11.87
5.61
18.66
20.18
9.88
-5.65
-16.78
-16.56
-4.83
11.77
23.48
23.32
10.99
-6.80
-20.26
-22.03
-11.49
4.91
17.57
19.16
8.96
-6.80
-18.73
-19.71
-9.07
6.89
18.67
19.15
7.68
-9.41
-22.31
-23.56
-12.19
5.45
19.47
22.07
12.05
-4.53
-17.83
-20.02
-9.96
6.28
18.84
20.02
8.80
-8.46
-21.81
-23.28
-11.75
6.41
21.04
23.84
13.33
-4.43
-19.31
-22.98
-13.59
3.12
17.24
20.63
11.41
-4.81
-18.24
-20.72
-10.40
7.06
21.80
25.39
15.87
-1.33
-16.37
-20.76
-12.27
3.85
17.89
21.43
12.16
-4.55
-18.94
-22.38
-12.52
5.24
20.88
25.41
16.23
-1.50
-17.87
-24.02
-17.13
-2.00
11.95
16.40
8.78
-6.10
-19.07
-21.98
-12.53
4.39
19.45
24.18
15.96
-0.72
-16.59
-22.97
-16.65
-1.61
13.19
19.10
12.68
-2.08
-16.30
-21.20
-13.39
3.00
18.71
24.66
17.28
0.66
-15.82
-22.93
-16.79
-1.20
14.65
21.67
16.01
1.36
-13.28
-19.02
-12.32
2.97
17.79
23.23
15.92
-0.22
-16.06
-22.61
-16.27
-0.82
14.75
21.41
15.27
-0.08
-15.88
-23.04
-17.40
-2.19
13.88
21.56
16.32
1.04
-15.58
-24.06
-19.38
-4.05
13.35
23.11
19.85
5.62
-11.34
-21.40
-19.14
-6.20
9.62
19.07
16.85
4.46
-10.65
-19.45
-16.67
-3.87
11.54
20.44
17.46
4.24
-11.65
-20.97
-18.21
-4.99
10.94
20.22
17.26
3.70
-12.52
-21.90
-18.78
-4.81
12.06
22.18
19.91
6.74
-9.54
-19.43
-17.35
-4.66
11.08
20.61
18.38
5.79
-9.78
-19.13
-16.69
-3.89
11.82
21.10
18.40
5.03
-11.37
-21.35
-18.94
-5.31
11.82
22.68
20.90
7.37
-10.24
-21.94
-21.08
-8.20
9.22
21.11
20.84
8.66
-8.17
-19.76
-19.36
-7.27
9.37
20.73
20.03
7.60
-9.45
-21.35
-21.32
-9.63
6.62
17.69
16.85
4.34
-12.62
-24.14
-23.15
-9.69
9.06
22.83
24.11
12.37
-5.58
-19.54
-21.79
-11.33
5.45
18.64
20.58
10.24
-6.11
-18.56
-19.43
-7.87
9.67
23.04
24.40
12.72
-5.57
-20.36
-23.46
-13.48
3.58
17.85
21.19
12.01
-3.96
-17.13
-19.61
-9.83
6.55
19.99
22.70
12.98
-3.68
-17.80
-21.47
-12.77
3.03
16.63
20.09
11.54
-3.94
-17.22
-20.50
-12.00
3.14
15.77
18.24
8.87
-6.88
-19.68
-21.61
-10.92
6.77
21.77
25.64
16.19
-1.36
-17.31
-23.09
-15.95
-0.67
13.46
18.13
10.71
-4.09
-17.11
-20.15
-10.93
5.59
19.96
23.81
14.82
-2.03
-17.19
-21.98
-13.69
2.94
18.54
24.25
16.83
0.39
-16.06
-23.70
-18.77
-4.77
9.80
16.38
11.16
-2.56
-16.33
-21.56
-14.38
1.80
18.16
25.47
19.43
3.19
-14.33
-23.54
-19.77
-5.72
10.03
18.26
14.47
1.50
-12.37
-18.20
-11.95
3.14
18.44
24.84
18.31
2.13
-14.80
-23.24
-18.61
-3.83
12.56
21.39
17.91
4.66
-10.17
-17.64
-13.26
0.31
14.76
21.09
15.08
-0.38
-16.65
-24.45
-19.26
-3.91
12.97
21.92
18.00
3.74
-12.60
-21.64
-18.34
-4.90
10.66
19.11
15.32
1.25
-15.05
-24.17
-20.46
-5.57
12.38
23.49
21.62
7.96
-9.61
-21.03
-19.92
-7.08
9.88
21.12
20.31
8.26
-7.59
-17.56
-15.45
-2.35
14.07
23.83
20.68
5.72
-13.09
-25.45
-24.52
-11.00
7.30
20.00
20.00
7.64
-9.51
-21.24
-20.56
-7.78
9.65
21.73
21.76
10.08
-6.14
-17.16
-16.57
-4.95
10.52
20.18
17.74
3.92
-13.91
-25.95
-25.49
-12.87
4.90
18.05
19.59
9.24
-6.40
-17.89
-18.30
-7.26
8.75
20.34
20.64
9.32
-7.15
-19.27
-20.05
-9.01
7.43
19.76
20.96
10.54
-5.19
-16.77
-17.20
-6.18
9.84
21.21
20.84
8.37
-9.47
-22.75
-23.87
-12.11
5.92
20.11
22.52
11.95
-5.40
-19.60
-22.74
-13.31
2.94
16.52
19.74
11.07
-4.05
-16.43
-18.52
-8.89
6.97
19.74
21.76
11.51
-5.42
-19.53
-22.71
-13.08
3.90
18.53
22.36
13.17
-3.69
-18.43
-22.49
-13.49
3.31
18.20
22.73
14.53
-1.32
-15.28
-19.07
-10.50
5.30
18.84
21.92
12.43
-4.46
-19.34
-23.89
-15.81
0.03
14.37
19.02
11.60
-3.11
-16.00
-19.03
-9.95
6.29
20.36
23.96
14.57
-2.97
-19.13
-25.08
-17.56
-0.93
15.40
22.28
16.04
0.50
-15.25
-22.12
-16.31
-1.46
13.49
19.55
13.04
-2.25
-17.23
-22.90
-15.61
0.65
16.66
23.31
16.89
1.25
-14.47
-21.18
-15.11
0.01
15.06
20.90
13.70
-2.81
-19.45
-26.88
-20.96
-5.11
11.75
20.31
16.34
3.00
-11.08
-16.94
-10.59
4.47
19.39
25.12
17.69
0.73
-16.61
-24.87
-19.63
-4.06
12.83
21.50
17.27
2.98
-12.67
-20.19
-14.98
0.21
16.72
25.08
20.59
5.93
-10.33
-18.74
-14.47
-0.23
15.36
22.83
17.24
1.33
-16.25
-25.86
-22.25
-7.69
9.44
19.54
17.13
3.93
-12.12
-21.63
-19.14
-6.19
9.60
19.06
16.91
4.71
-9.99
-18.04
-14.23
-0.43
15.35
23.58
18.89
3.38
-14.44
-24.56
-21.05
-5.79
12.68
24.07
22.06
8.03
-9.87
-21.45
-20.40
-7.78
8.61
18.92
17.01
3.93
-12.73
-23.17
-21.18
-7.74
9.57
20.91
19.91
7.36
-9.31
-20.43
-19.51
-7.22
9.20
20.13
19.19
7.00
-9.08
-19.42
-17.66
-4.52
12.58
23.81
22.59
9.45
-8.31
-20.69
-20.76
-8.61
8.70
21.19
21.78
10.20
-6.90
-19.86
-21.56
-11.45
4.21
16.04
17.08
6.77
-8.61
-19.74
-19.62
-7.83
9.26
22.02
23.19
12.01
-5.21
-18.76
-20.99
-10.78
5.82
19.10
21.36
11.29
-5.27
-18.79
-21.54
-12.12
3.77
16.61
18.74
8.79
-7.38
-20.15
-21.85
-11.21
5.80
19.47
21.98
11.94
-4.80
-18.55
-21.35
-11.62
5.01
18.93
22.14
12.79
-3.71
-18.00
-22.00
-13.63
2.01
15.69
19.44
11.15
-4.07
-16.98
-19.63
-10.05
6.51
20.60
24.08
14.86
-1.93
-16.67
-20.97
-12.38
4.11
18.98
23.64
15.35
-1.16
-16.55
-22.11
-14.92
0.58
15.15
20.16
12.62
-3.07
-17.76
-22.93
-15.62
-0.20
14.31
19.45
12.31
-2.84
-16.96
-21.55
-13.57
2.71
18.20
24.12
17.13
1.11
-15.00
-22.27
-16.85
-2.16
13.14
20.19
15.01
0.87
-13.77
-20.22
-14.69
-0.46
13.99
19.99
13.72
-1.51
-17.06
-24.03
-18.38
-3.28
12.70
20.54
15.98
1.97
-13.11
-20.18
-14.80
0.25
16.52
24.78
20.33
5.78
-10.47
-19.13
-15.34
-1.57
13.94
21.85
17.29
2.57
-13.93
-22.75
-18.74
-4.09
12.91
22.62
19.50
5.27
-12.16
-23.19
-22.02
-9.92
5.68
15.54
14.10
2.61
-11.61
-19.71
-16.30
-2.82
13.30
22.97
20.70
7.73
-8.55
-18.88
-17.46
-5.18
10.82
21.33
20.39
8.64
-7.02
-17.43
-16.43
-4.64
10.98
21.11
19.45
6.54
-10.48
-22.04
-21.46
-8.93
8.48
20.98
21.59
10.14
-6.54
-18.61
-18.91
-6.98
10.59
23.98
25.93
15.76
-0.23
-12.52
-13.96
-4.02
10.97
21.64
21.13
9.46
-6.59
-17.39
-16.12
-3.07
14.35
25.83
24.03
8.80
-12.44
-28.96
-32.67
-22.53
-5.16
9.06
12.01
2.34
-13.91
-26.81
-28.54
-17.98
-1.34
11.44
12.49
0.77
-17.37
-31.83
-34.48
-23.86
-5.92
9.63
14.87
8.12
-5.18
-15.89
-16.54
-5.66
11.31
25.06
27.94
18.24
1.32
-13.37
-17.70
-9.46
6.40
20.62
25.01
17.17
1.87
-11.79
-15.60
-7.17
8.60
22.48
26.12
16.87
-0.57
-16.87
-23.37
-16.88
-1.63
13.29
19.29
13.09
-1.28
-14.95
-19.47
-11.90
3.53
17.74
22.21
14.06
-2.21
-17.22
-22.12
-13.87
2.89
18.57
24.16
16.40
-0.28
-16.34
-22.66
-15.69
0.37
16.17
22.63
16.12
0.53
-15.01
-21.48
-15.13
0.36
16.05
22.89
16.95
1.61
-14.39
-22.08
-17.39
-3.49
11.20
17.84
12.53
-1.57
-15.99
-21.96
-15.58
-0.18
15.50
22.54
16.81
1.59
-14.41
-22.01
-16.80
-1.86
14.13
21.88
16.84
1.90
-14.30
-22.35
-17.45
-2.21
14.81
23.99
20.13
5.41
-11.79
-21.76
-19.00
-5.36
11.09
20.77
18.27
5.43
-9.77
-17.87
-13.58
0.92
17.24
25.65
20.70
4.62
-14.03
-25.17
-22.86
-8.75
8.92
20.10
18.67
5.79
-10.77
-21.24
-19.42
-6.26
10.72
21.71
20.45
7.61
-9.48
-21.12
-20.84
-9.08
7.13
18.29
17.91
6.36
-9.50
-20.27
-19.49
-7.46
8.94
20.37
20.32
8.97
-6.94
-18.11
-17.99
-6.65
9.22
20.19
19.61
7.38
-9.82
-22.49
-23.64
-12.82
3.63
16.24
17.90
7.93
-7.52
-19.00
-19.37
-7.91
9.13
22.17
23.77
13.01
-3.99
-17.56
-20.05
-10.32
5.64
18.31
20.18
10.21
-5.55
-17.67
-18.77
-8.02
8.34
20.65
21.46
9.92
-7.62
-21.27
-23.24
-12.33
5.43
20.15
23.74
14.48
-2.18
-16.66
-20.87
-12.74
2.65
16.19
19.91
11.76
-3.34
-16.38
-19.48
-10.62
5.10
18.46
21.41
11.77
-5.31
-20.29
-24.70
-16.00
0.82
16.12
21.24
13.41
-2.64
-17.49
-22.56
-15.10
0.35
14.56
19.09
11.28
-4.35
-18.66
-23.30
-15.47
0.40
15.26
20.60
13.38
-2.20
-17.07
-22.43
-14.86
1.59
17.76
24.53
18.14
2.37
-13.52
-20.24
-13.75
2.21
18.25
24.94
18.12
1.60
-15.11
-22.33
-15.82
0.65
17.43
24.63
17.86
0.76
-17.02
-25.43
-19.79
-3.49
14.11
22.97
18.30
3.21
-13.20
-21.15
-15.88
-0.49
16.00
23.87
18.31
2.27
-15.28
-24.50
-20.28
-5.22
12.01
21.67
18.46
4.58
-11.71
-20.86
-17.56
-3.72
12.56
21.79
18.54
4.57
-12.14
-22.09
-19.69
-6.54
9.54
19.01
16.28
2.87
-13.39
-22.86
-19.75
-5.48
12.14
23.46
22.53
10.55
-5.03
-14.85
-13.26
-1.66
12.39
19.77
15.12
0.31
-16.58
-25.89
-21.91
-6.37
12.36
24.02
22.27
8.22
-10.08
-22.27
-21.59
-8.67
8.85
20.68
19.90
6.80
-11.21
-23.96
-24.32
-12.32
4.96
17.62
18.61
7.90
-7.71
-18.58
-18.00
-6.13
10.06
20.99
20.04
7.49
-9.52
-21.23
-20.71
-8.07
9.64
22.48
23.24
11.61
-5.74
-18.95
-20.70
-10.26
6.02
18.53
20.06
9.79
-6.02
-17.91
-18.64
-7.56
9.08
21.66
22.90
12.02
-4.80
-17.97
-20.07
-10.13
5.79
18.21
19.58
8.79
-8.19
-21.82
-24.32
-14.27
2.55
16.61
20.05
11.24
-4.25
-16.94
-19.00
-8.81
7.95
21.65
24.36
14.36
-2.77
-17.42
-21.48
-12.98
2.85
16.63
20.40
12.01
-3.50
-16.97
-20.42
-11.71
4.24
18.24
22.18
13.77
-2.25
-16.70
-21.32
-13.56
1.87
15.77
19.73
11.17
-5.20
-20.01
-24.58
-16.09
0.76
16.41
21.89
14.05
-2.51
-18.23
-23.96
-16.35
0.20
16.17
22.55
15.87
0.30
-14.97
-21.14
-14.72
0.35
15.15
21.00
14.43
-0.83
-15.98
-22.26
-16.02
-0.78
14.69
21.44
15.57
0.46
-15.09
-21.85
-15.58
0.36
17.03
24.90
19.47
3.97
-12.61
-20.65
-15.51
-0.27
16.04
23.81
18.33
2.61
-14.40
-23.04
-18.54
-3.79
12.39
20.48
15.77
1.10
-14.80
-22.49
-17.32
-2.15
14.16
21.94
16.44
0.51
-16.82
-25.60
-20.69
-4.74
13.27
23.20
19.59
4.80
-12.43
-21.94
-18.11
-3.13
14.33
24.13
20.63
5.82
-11.73
-22.03
-19.33
-5.50
11.19
20.95
18.24
4.96
-10.76
-19.34
-15.50
-1.31
14.92
23.56
19.17
3.76
-14.35
-25.24
-22.95
-8.91
8.85
20.39
19.44
7.00
-9.31
-19.62
-17.62
-4.16
13.12
24.18
22.50
8.71
-9.47
-21.83
-21.43
-8.68
8.93
21.13
20.92
8.52
-8.75
-20.79
-20.68
-8.71
7.82
19.01
18.20
5.89
-10.60
-21.50
-20.30
-7.54
9.54
21.34
21.23
9.54
-6.84
-18.43
-18.61
-7.44
8.32
19.19
18.47
6.11
-11.02
-23.11
-22.97
-10.25
8.24
22.27
24.16
12.98
-4.77
-18.93
-21.44
-10.96
6.40
20.57
23.34
13.05
-4.49
-19.32
-23.17
-14.18
1.97
15.47
18.22
8.68
-7.28
-19.79
-20.94
-9.53
8.16
22.05
24.15
13.23
-4.48
-18.97
-22.11
-12.41
4.24
18.09
21.14
11.78
-4.30
-17.52
-19.94
-9.96
6.77
20.55
23.30
13.22
-4.11
-18.98
-23.16
-14.66
1.11
14.62
17.83
8.85
-6.99
-20.32
-23.19
-13.75
2.69
16.77
20.48
11.82
-4.16
-18.20
-22.24
-14.00
1.79
16.15
21.03
13.87
-0.98
-14.80
-19.49
-12.28
2.63
16.54
21.27
13.92
-1.30
-15.45
-20.14
-12.35
3.51
18.17
22.82
14.43
-2.34
-17.83
-22.79
-14.10
3.50
19.99
25.98
18.04
0.76
-16.06
-23.11
-16.88
-1.66
13.16
18.63
11.55
-3.85
-18.37
-23.25
-15.39
0.89
16.35
22.16
15.10
-0.61
-15.74
-21.37
-14.02
2.17
17.93
24.07
16.91
0.32
-16.43
-23.98
-18.19
-2.50
14.15
22.52
18.31
4.62
-10.01
-16.64
-11.26
2.86
17.06
22.58
15.61
-0.27
-16.13
-22.87
-16.47
-0.42
16.21
23.97
18.37
2.51
-14.73
-23.67
-19.39
-4.46
12.52
21.84
18.28
3.94
-12.89
-22.62
-19.87
-6.61
9.12
17.93
14.65
1.33
-14.03
-22.17
-18.12
-4.03
11.95
20.50
16.56
2.30
-14.10
-23.10
-19.31
-4.71
12.49
22.56
19.80
5.86
-11.20
-21.60
-19.42
-6.03
10.74
21.25
19.65
7.21
-8.50
-18.13
-16.14
-3.93
11.08
19.86
17.19
4.62
-10.36
-18.79
-15.45
-1.99
13.91
22.98
19.74
5.71
-11.32
-21.70
-19.44
-5.74
11.63
22.65
20.90
7.17
-10.90
-23.20
-22.85
-10.26
7.23
19.62
20.03
8.56
-7.84
-19.52
-19.77
-8.68
6.87
17.39
16.39
4.23
-11.95
-22.43
-20.56
-6.89
11.19
23.53
23.23
10.57
-7.09
-19.73
-20.28
-8.79
7.72
19.48
19.63
8.24
-7.91
-19.27
-19.15
-7.53
8.89
20.67
20.99
9.66
-6.81
-18.91
-19.60
-8.42
8.20
20.67
21.77
10.84
-5.73
-18.36
-19.83
-9.58
5.94
17.11
16.91
5.08
-11.61
-23.37
-23.11
-10.81
6.55
18.96
19.31
7.41
-9.76
-22.23
-22.68
-10.69
6.99
20.40
22.11
11.40
-5.29
-18.10
-19.48
-8.57
8.33
21.42
23.06
12.33
-4.44
-17.44
-18.98
-8.07
8.98
22.26
24.00
13.12
-4.18
-17.98
-20.51
-10.55
5.83
18.88
20.82
10.38
-6.53
-20.22
-22.85
-13.03
3.39
16.81
19.40
9.72
-6.43
-19.40
-21.36
-10.84
6.30
20.24
22.90
12.62
-4.82
-19.51
-23.07
-13.57
3.44
18.05
21.76
12.42
-4.64
-19.56
-23.78
-14.82
2.11
17.27
22.04
13.89
-2.19
-16.66
-20.96
-12.71
3.09
17.02
20.81
12.27
-3.41
-16.78
-19.70
-10.18
6.31
20.01
22.62
12.15
-5.76
-21.09
-25.21
-15.82
1.78
17.62
22.85
14.73
-1.83
-17.17
-22.45
-14.68
1.53
16.80
22.37
15.24
-0.18
-14.67
-19.66
-12.32
2.86
16.64
20.58
12.07
-4.09
-18.54
-22.80
-14.39
1.81
16.44
21.12
13.34
-2.05
-15.71
-19.25
-10.04
7.07
22.48
27.34
18.57
0.65
-16.76
-24.21
-17.92
-1.81
14.68
22.05
16.15
0.54
-15.63
-22.99
-17.39
-2.44
12.78
19.03
12.50
-2.98
-18.16
-23.87
-16.48
-0.10
15.82
22.00
14.76
-1.73
-17.98
-24.56
-17.56
-0.91
15.92
23.50
17.74
2.30
-13.62
-20.68
-14.85
0.41
16.10
23.02
17.18
2.09
-13.34
-20.03
-14.00
1.16
16.50
22.94
16.60
1.14
-14.41
-21.01
-14.83
0.33
15.26
20.80
13.26
-3.31
-19.36
-25.45
-17.83
-0.73
16.15
23.21
16.52
0.10
-16.50
-23.75
-17.63
-1.84
14.42
21.86
16.41
1.55
-13.90
-20.81
-15.14
-0.19
15.33
22.32
16.51
1.03
-15.37
-23.31
-18.03
-2.37
14.93
24.18
20.21
5.42
-11.69
-21.37
-18.27
-4.54
11.52
20.44
17.00
3.42
-12.18
-20.55
-16.70
-3.07
12.07
19.49
14.47
-0.27
-16.09
-23.54
-17.92
-2.15
14.70
22.81
17.26
1.11
-16.39
-25.09
-19.77
-3.33
14.89
24.57
20.36
4.90
-12.67
-22.18
-18.21
-3.26
13.73
22.73
18.42
3.29
-13.89
-23.15
-19.17
-4.36
12.55
21.69
17.82
3.34
-12.98
-21.36
-16.49
-0.77
17.07
27.10
23.93
9.72
-7.13
-16.93
-14.35
-1.45
13.72
21.82
17.79
3.70
-12.48
-21.60
-18.59
-5.41
10.11
18.88
15.91
3.14
-11.69
-19.45
-15.23
-1.20
14.63
22.87
18.42
3.36
-14.10
-24.39
-21.92
-8.53
7.78
17.46
14.92
1.82
-13.99
-22.97
-19.51
-5.17
12.13
22.69
20.57
6.99
-10.33
-21.73
-20.96
-8.95
6.90
17.08
15.49
3.06
-12.88
-22.73
-20.38
-6.72
10.67
21.96
20.68
7.56
-9.89
-21.66
-20.92
-8.14
9.31
21.46
21.46
9.60
-6.97
-18.51
-18.34
-6.77
9.11
19.68
18.48
6.07
-10.33
-21.03
-19.57
-6.60
10.47
21.79
20.85
8.18
-8.80
-20.34
-19.96
-8.18
7.75
18.28
17.17
5.13
-10.54
-20.37
-18.19
-4.94
11.95
22.74
21.11
7.78
-9.77
-21.67
-21.23
-8.76
8.58
20.92
21.41
10.03
-6.47
-18.49
-19.31
-8.81
6.54
17.50
17.60
6.87
-8.09
-18.09
-16.71
-4.20
12.54
23.94
23.35
10.89
-6.49
-18.90
-19.41
-7.96
8.57
20.40
20.53
8.90
-7.60
-19.17
-18.81
-6.55
10.52
22.32
21.67
8.47
-10.12
-23.65
-24.52
-12.37
5.69
19.20
20.35
8.63
-9.08
-22.47
-23.80
-12.58
4.29
16.64
17.02
5.14
-11.98
-24.07
-23.70
-10.63
7.97
21.74
23.11
11.80
-5.18
-17.68
-18.36
-7.12
8.95
19.90
18.86
6.19
-10.71
-21.81
-20.27
-6.53
11.84
24.54
24.38
11.45
-7.02
-20.77
-22.20
-10.83
6.61
20.10
22.06
11.61
-4.94
-17.97
-20.05
-10.16
5.60
17.89
19.38
9.17
-6.83
-19.28
-20.77
-10.23
6.50
19.99
22.60
12.87
-3.56
-17.26
-20.34
-10.98
5.39
19.19
22.31
12.80
-3.96
-18.24
-21.63
-12.02
5.12
19.84
23.49
13.67
-4.15
-19.98
-24.98
-16.50
0.17
15.14
19.71
11.52
-4.11
-17.37
-19.89
-9.82
7.09
20.81
23.11
12.38
-5.22
-19.61
-22.60
-12.66
4.10
17.63
19.95
9.68
-7.10
-20.53
-22.74
-12.45
4.33
17.79
20.12
9.96
-6.69
-20.12
-22.47
-12.28
4.58
18.44
21.56
12.45
-3.12
-15.71
-17.83
-8.30
7.11
19.00
20.07
9.29
-7.32
-20.25
-21.93
-11.14
6.09
20.00
22.74
12.83
-3.94
-17.78
-20.67
-10.98
5.64
19.40
22.16
12.11
-5.10
-19.64
-23.15
-13.60
3.56
18.60
23.19
15.04
-0.83
-15.00
-19.33
-11.49
3.80
17.43
21.37
13.24
-2.28
-16.19
-20.39
-12.35
3.34
17.64
22.28
14.55
-1.19
-15.88
-21.17
-14.24
0.63
14.46
18.92
11.26
-4.08
-18.10
-22.45
-14.50
1.13
15.25
19.50
11.24
-4.80
-19.14
-23.27
-14.51
2.39
17.82
22.99
15.07
-1.28
-16.53
-21.79
-14.09
2.00
17.04
22.25
14.73
-0.99
-15.43
-19.96
-11.73
4.55
19.32
23.93
15.61
-0.89
-16.01
-20.99
-13.07
2.96
17.54
22.02
13.70
-2.62
-17.29
-21.68
-13.09
3.54
18.51
22.89
13.89
-3.61
-19.82
-25.61
-17.95
-1.54
13.98
19.59
12.19
-3.70
-18.56
-23.57
-15.68
0.61
15.79
20.92
12.96
-3.55
-19.00
-24.20
-15.91
1.28
17.59
23.61
15.84
-1.30
-17.98
-24.65
-17.56
-0.84
15.84
22.95
16.68
0.99
-14.70
-21.03
-14.25
1.62
17.25
23.42
16.52
0.59
-14.92
-20.86
-13.69
2.41
17.86
23.35
15.36
-1.80
-18.44
-24.96
-17.56
-0.46
16.64
24.03
17.69
1.54
-14.78
-21.67
-15.02
1.30
17.81
24.86
18.45
2.28
-14.29
-21.77
-16.16
-1.20
14.03
20.37
14.05
-1.19
-16.40
-22.69
-16.40
-1.27
13.84
20.11
14.00
-0.82
-15.57
-21.45
-14.83
0.60
16.12
22.82
16.88
1.73
-13.89
-21.00
-15.47
-0.50
15.21
22.54
17.30
2.53
-13.15
-20.53
-15.29
-0.55
15.02
22.13
16.42
1.06
-15.08
-22.57
-16.90
-1.22
15.46
23.43
17.98
2.03
-15.45
-24.56
-20.19
-5.02
12.28
21.86
18.51
4.54
-11.66
-20.59
-17.16
-3.60
11.83
19.77
15.41
1.15
-14.67
-22.69
-18.09
-3.55
12.50
20.66
16.18
1.81
-13.81
-21.19
-15.53
0.27
17.23
25.46
19.97
3.57
-14.62
-24.43
-20.54
-5.51
11.82
21.45
18.11
4.22
-11.53
-19.46
-14.57
0.40
16.60
24.27
18.55
2.26
-15.67
-25.32
-21.54
-6.91
9.95
19.25
15.87
2.17
-13.37
-21.23
-16.34
-1.11
15.94
25.11
21.20
6.31
-11.21
-21.60
-19.30
-6.09
10.08
19.67
17.16
4.21
-11.28
-20.00
-16.55
-2.73
13.45
22.48
18.92
4.54
-12.60
-22.78
-20.23
-6.52
10.51
21.15
19.52
6.86
-9.12
-19.02
-17.04
-4.52
10.82
19.56
16.23
2.52
-13.52
-22.22
-18.08
-3.15
14.19
23.91
20.30
5.17
-13.03
-24.26
-22.53
-9.30
7.42
17.87
16.15
3.63
-11.93
-20.92
-17.50
-3.15
14.19
24.56
21.88
7.35
-10.89
-22.60
-21.18
-7.45
10.66
22.68
21.79
8.55
-9.28
-21.35
-20.77
-8.12
8.98
20.39
19.41
6.67
-10.23
-21.35
-20.14
-7.25
9.81
21.11
20.12
7.39
-9.74
-21.47
-21.23
-9.44
6.77
17.78
17.23
5.60
-9.91
-19.77
-17.66
-4.18
13.32
25.02
24.30
11.51
-6.22
-19.12
-20.30
-9.70
5.96
17.25
17.45
6.48
-9.04
-19.79
-19.19
-7.27
9.13
20.39
19.79
7.43
-9.70
-21.68
-21.40
-8.79
9.15
22.33
23.33
11.63
-6.01
-19.64
-21.74
-11.52
4.61
16.94
18.14
7.59
-8.35
-20.06
-20.23
-8.28
9.24
22.53
24.13
13.27
-3.64
-16.86
-18.94
-9.05
6.51
18.17
18.70
7.56
-8.91
-21.12
-21.79
-10.36
6.78
20.01
21.99
11.86
-4.22
-16.76
-18.46
-8.48
7.01
18.46
18.66
7.09
-9.73
-21.96
-22.15
-9.90
7.86
20.86
21.39
8.93
-9.54
-23.56
-25.20
-13.73
4.08
17.98
20.11
9.70
-6.70
-19.08
-19.78
-8.07
9.42
22.64
23.88
12.28
-5.68
-19.90
-22.52
-12.44
4.21
17.53
19.73
9.62
-6.76
-19.66
-21.28
-10.36
7.01
20.94
23.54
13.35
-3.72
-17.79
-20.87
-11.41
4.87
18.27
20.88
11.17
-5.02
-18.03
-20.05
-9.68
7.09
20.45
22.54
11.97
-5.26
-19.24
-21.97
-11.97
4.84
18.64
21.42
11.57
-5.10
-18.86
-21.73
-12.01
4.60
18.36
21.28
11.61
-5.04
-18.99
-22.12
-12.67
3.79
17.67
20.95
11.86
-4.03
-17.27
-20.00
-10.55
5.48
18.61
20.98
10.92
-6.00
-20.27
-23.82
-14.72
1.73
16.15
20.46
12.51
-2.66
-15.88
-19.17
-10.35
5.50
19.02
21.97
12.09
-5.49
-21.06
-25.78
-16.84
0.83
17.41
23.70
16.42
0.18
-15.37
-21.14
-13.87
1.83
16.34
20.75
12.20
-4.38
-19.21
-23.35
-14.05
3.57
19.59
24.94
16.79
0.08
-15.31
-20.43
-12.39
3.93
18.79
23.32
14.84
-1.65
-16.48
-20.88
-12.41
3.68
17.61
20.75
10.80
-6.87
-22.24
-26.56
-17.34
0.20
16.19
21.72
13.97
-2.33
-17.61
-22.99
-15.36
0.85
16.32
22.22
15.28
-0.32
-15.42
-21.26
-14.52
0.80
15.79
21.86
15.82
1.69
-11.79
-16.31
-8.88
6.24
20.09
24.34
16.13
-0.14
-15.25
-20.65
-13.44
1.92
16.15
20.63
12.50
-3.68
-18.63
-23.68
-15.85
0.35
15.54
20.95
13.39
-2.80
-18.33
-24.25
-17.13
-1.09
14.57
20.75
13.79
-2.26
-18.05
-24.32
-17.19
-0.68
15.74
22.68
16.19
0.08
-16.40
-23.89
-18.38
-3.43
12.11
19.26
14.13
0.23
-13.73
-19.03
-11.96
3.78
19.27
25.44
18.50
2.12
-14.57
-22.15
-16.39
-0.68
15.94
23.97
18.90
3.73
-12.81
-21.38
-17.38
-3.55
11.71
19.33
14.99
1.51
-12.76
-18.89
-12.76
2.40
17.83
24.41
17.97
1.92
-14.69
-22.49
-17.10
-1.70
14.84
23.16
18.75
4.45
-11.30
-19.47
-15.52
-2.16
12.44
19.50
14.65
0.58
-14.46
-21.58
-16.40
-1.74
13.86
21.04
15.15
-0.94
-18.40
-27.37
-22.68
-6.89
11.11
21.25
17.98
3.53
-13.40
-22.69
-18.72
-3.65
13.83
23.61
20.02
5.23
-12.15
-22.16
-19.12
-5.07
11.47
20.72
17.27
3.21
-13.08
-21.92
-18.03
-3.63
12.95
22.06
18.41
4.18
-12.27
-21.31
-17.63
-3.40
12.94
21.74
17.86
3.66
-12.30
-20.28
-15.27
-0.03
16.49
24.34
18.43
1.60
-16.88
-26.81
-22.74
-7.12
11.12
21.80
19.22
5.30
-11.67
-21.83
-19.27
-5.50
11.72
22.78
21.77
9.86
-5.46
-14.89
-12.68
-0.18
14.95
23.22
19.02
4.02
-13.66
-24.17
-21.54
-7.33
10.26
21.18
19.27
5.79
-11.30
-22.08
-20.49
-7.84
8.09
17.58
14.82
1.34
-14.87
-24.11
-20.54
-5.85
11.73
22.28
19.86
6.01
-11.22
-21.90
-20.03
-6.86
9.95
20.73
19.45
7.20
-8.55
-18.40
-16.35
-3.47
12.68
22.53
20.13
6.60
-10.35
-20.86
-18.79
-5.41
11.38
21.61
19.18
5.45
-11.47
-21.67
-19.23
-5.72
10.72
20.25
17.14
3.07
-13.84
-23.69
-20.56
-5.91
12.32
24.13
23.14
10.12
-7.48
-19.87
-20.27
-8.76
7.86
19.99
20.72
9.74
-6.61
-18.93
-20.22
-10.01
5.49
17.06
17.93
7.65
-7.48
-18.32
-18.28
-7.21
8.39
19.21
18.65
6.82
-9.61
-21.10
-20.84
-8.91
7.82
19.55
19.35
7.17
-9.96
-22.14
-22.32
-10.54
6.14
17.76
17.41
5.30
-11.34
-22.59
-21.55
-8.40
9.67
22.72
23.80
12.73
-3.77
-16.06
-17.21
-6.91
8.44
19.45
19.32
7.83
-8.43
-20.01
-20.06
-8.38
8.32
20.35
20.76
9.29
-7.35
-19.33
-19.39
-7.10
10.93
24.77
26.72
15.80
-1.84
-16.44
-20.07
-11.16
4.63
17.81
20.53
11.12
-5.00
-18.54
-21.83
-13.35
1.35
13.13
14.71
5.07
-9.77
-20.46
-19.93
-7.72
9.61
22.13
22.52
10.35
-7.56
-21.03
-22.25
-10.49
7.55
21.52
23.34
11.86
-6.49
-21.45
-24.81
-15.09
1.68
15.63
18.87
9.98
-5.16
-17.08
-18.37
-7.95
8.06
20.15
21.04
9.99
-6.71
-19.27
-20.18
-8.65
8.95
22.53
24.13
12.54
-6.00
-21.39
-25.30
-15.94
0.98
15.63
19.81
11.54
-3.89
-17.12
-20.26
-11.53
3.74
16.38
18.77
9.32
-6.38
-18.91
-20.60
-9.94
7.31
21.45
24.44
14.53
-2.69
-17.46
-21.47
-12.64
3.67
17.80
21.44
12.40
-3.97
-18.05
-21.50
-12.14
4.76
19.49
23.58
14.67
-2.13
-17.33
-22.39
-14.71
0.86
14.98
19.33
11.39
-3.99
-17.46
-20.66
-11.26
5.63
20.33
24.18
14.75
-2.72
-18.32
-23.16
-14.57
2.34
17.68
22.50
14.00
-2.92
-18.46
-23.63
-15.51
1.12
16.53
21.70
13.58
-3.10
-18.52
-23.65
-15.32
1.80
17.91
23.88
16.54
0.42
-14.97
-20.70
-13.66
1.70
16.13
21.06
13.55
-1.97
-16.39
-21.30
-13.84
1.59
15.94
20.79
13.24
-2.27
-16.62
-21.25
-13.21
2.95
17.81
22.63
14.45
-2.13
-17.47
-22.57
-14.40
2.36
17.92
23.08
14.64
-2.72
-19.19
-25.42
-17.91
-0.96
15.83
23.09
17.03
1.45
-14.49
-21.61
-16.14
-1.73
12.74
18.51
12.07
-2.63
-16.55
-21.01
-12.78
3.84
19.34
24.69
16.57
-0.60
-17.05
-23.29
-15.56
1.92
19.32
26.84
20.25
3.40
-14.09
-22.35
-16.94
-1.39
15.00
22.53
16.82
1.27
-15.07
-22.77
-17.52
-2.64
12.99
20.23
14.98
0.54
-14.35
-20.79
-14.98
-0.41
14.19
19.89
12.99
-2.83
-18.60
-25.17
-18.49
-2.08
14.95
23.10
17.90
2.38
-14.60
-23.52
-19.63
-5.67
9.85
17.73
13.50
0.11
-13.86
-19.51
-12.81
2.79
18.31
24.67
18.03
2.10
-13.96
-20.84
-14.51
1.43
17.92
25.66
20.44
5.61
-10.04
-17.43
-12.42
1.78
16.57
23.00
17.07
1.95
-13.81
-21.28
-16.28
-1.96
13.10
19.83
13.93
-1.61
-18.09
-26.02
-20.70
-4.88
12.65
22.09
18.23
3.47
-13.65
-23.33
-20.20
-6.44
9.58
18.31
14.63
0.82
-14.78
-22.72
-18.07
-3.35
12.87
21.06
16.28
1.20
-15.41
-23.82
-18.91
-3.19
14.54
24.35
20.94
6.54
-10.38
-19.95
-16.71
-2.67
13.89
23.29
20.06
6.15
-10.22
-19.45
-16.10
-2.09
14.29
23.27
19.33
4.42
-13.09
-23.20
-20.03
-5.38
12.42
23.32
21.34
7.97
-8.65
-18.67
-16.29
-3.10
12.80
21.63
17.70
2.80
-14.83
-25.29
-22.76
-8.95
7.92
17.93
15.24
1.39
-15.48
-25.45
-22.60
-8.44
9.02
19.85
18.00
4.86
-11.62
-21.63
-19.14
-5.47
11.45
21.88
19.95
7.06
-8.87
-18.12
-14.91
-0.87
15.92
25.70
22.59
8.22
-9.44
-20.62
-19.30
-6.70
9.57
19.99
18.56
6.26
-9.66
-19.85
-18.28
-5.96
9.73
19.31
16.80
3.25
-13.55
-23.69
-20.99
-6.63
11.36
22.75
21.14
7.72
-9.46
-20.26
-18.36
-4.94
12.05
22.64
20.63
7.10
-10.20
-21.45
-20.32
-7.68
9.03
20.11
19.17
6.78
-9.84
-21.15
-20.56
-8.30
8.60
20.49
20.56
8.76
-8.16
-20.48
-21.06
-9.57
7.44
20.21
21.48
10.70
-5.66
-17.96
-18.99
-8.23
7.84
19.59
19.94
8.53
-7.98
-19.89
-20.15
-8.58
7.94
19.45
18.78
5.77
-12.45
-25.57
-26.09
-13.52
5.18
19.74
22.46
12.53
-3.55
-16.09
-17.72
-7.67
7.84
19.47
20.17
9.28
-7.09
-19.59
-21.00
-10.49
5.94
18.95
21.06
11.16
-4.95
-17.92
-20.22
-10.63
5.14
17.77
19.86
10.33
-4.99
-16.80
-17.90
-7.51
8.20
19.72
19.88
8.05
-9.26
-22.12
-23.03
-11.20
6.85
20.97
23.24
12.42
-5.21
-19.63
-22.67
-12.72
4.33
18.69
22.27
13.32
-2.56
-15.87
-18.76
-9.67
5.75
18.05
19.53
8.94
-7.76
-20.91
-22.76
-12.10
4.93
18.40
20.38
9.61
-7.84
-21.96
-24.61
-14.32
3.03
17.65
21.59
13.20
-1.85
-14.14
-16.08
-6.32
9.41
21.57
22.56
11.11
-6.83
-21.46
-24.55
-14.28
3.62
19.16
23.64
14.57
-2.81
-18.66
-24.15
-16.47
-0.48
14.25
19.08
11.35
-4.07
-17.75
-21.24
-12.06
4.74
19.58
23.97
15.48
-0.90
-15.54
-19.82
-11.22
5.24
19.82
23.70
14.21
-3.57
-19.73
-25.22
-17.00
0.04
16.05
21.92
14.53
-1.46
-16.41
-21.40
-13.50
2.54
17.12
21.48
12.83
-3.98
-19.21
-24.05
-15.61
1.43
17.48
23.67
16.92
1.57
-13.32
-19.13
-12.68
1.93
15.95
21.08
14.25
-0.51
-14.49
-19.38
-12.20
2.90
17.05
21.73
13.85
-2.41
-17.94
-23.88
-16.76
-0.63
15.18
21.47
14.41
-2.29
-19.38
-27.33
-21.89
-6.37
10.29
18.75
14.67
1.19
-13.05
-19.15
-13.09
1.79
16.77
23.03
16.76
1.52
-13.89
-20.52
-14.42
0.93
16.70
23.89
18.53
3.98
-11.01
-17.50
-11.64
3.03
17.66
23.24
16.10
-0.04
-16.23
-23.43
-17.84
-3.10
11.97
18.47
12.67
-2.00
-16.90
-23.31
-17.50
-2.86
12.06
18.65
13.15
-0.95
-15.04
-20.44
-13.35
2.71
18.86
26.07
20.23
4.63
-12.07
-20.71
-16.83
-3.27
11.63
18.95
14.33
0.53
-14.20
-20.95
-15.35
-0.27
15.80
23.47
18.04
2.16
-15.48
-25.14
-21.56
-7.04
9.87
19.46
16.45
3.05
-12.33
-20.20
-15.54
-0.83
15.34
23.43
18.50
3.23
-13.65
-22.54
-18.33
-3.51
13.32
22.55
18.89
4.58
-12.13
-21.58
-18.36
-4.46
11.99
21.33
18.08
4.04
-12.63
-22.19
-18.99
-4.83
12.20
22.29
19.79
6.41
-9.87
-19.51
-17.00
-4.03
11.44
20.18
16.99
3.86
-11.18
-18.99
-14.58
-0.25
15.70
23.87
19.17
3.91
-13.51
-23.43
-20.39
-6.35
10.54
20.58
18.20
5.06
-11.04
-20.63
-18.12
-5.08
10.74
19.85
16.58
2.38
-14.88
-25.49
-23.54
-10.27
6.55
17.26
15.92
3.82
-11.31
-20.06
-16.72
-2.85
13.64
23.20
20.22
6.41
-10.24
-20.02
-17.11
-3.02
14.29
24.97
22.96
9.51
-7.59
-18.43
-16.79
-3.75
12.94
23.22
20.68
6.15
-12.62
-25.41
-25.38
-12.95
4.45
16.80
17.35
6.44
-8.68
-18.38
-16.34
-3.50
12.59
22.18
19.20
5.00
-12.37
-22.95
-20.52
-6.40
11.36
22.65
21.14
7.86
-9.51
-20.99
-20.12
-7.70
8.79
19.45
17.76
4.37
-13.13
-24.64
-23.31
-9.62
8.93
22.03
22.63
10.86
-6.02
-18.05
-18.31
-6.91
9.04
19.82
18.84
6.55
-9.76
-20.27
-18.29
-4.42
13.79
26.14
25.52
12.22
-6.44
-20.17
-21.63
-10.59
6.04
18.28
18.90
7.52
-9.18
-21.41
-21.95
-10.45
6.36
18.49
18.69
6.51
-11.11
-24.01
-24.72
-12.82
4.58
17.15
17.35
4.99
-12.58
-24.84
-24.09
-10.14
9.64
24.57
26.74
15.58
-2.03
-15.81
-17.90
-7.43
9.13
21.97
23.58
13.10
-3.33
-16.15
-18.12
-8.45
6.74
18.06
18.49
7.44
-8.70
-20.43
-20.61
-8.83
8.25
20.74
21.33
9.53
-7.86
-20.73
-21.46
-9.44
8.52
22.22
23.89
12.80
-4.46
-17.94
-20.07
-10.13
5.43
16.90
17.00
5.21
-11.95
-24.62
-25.47
-13.86
3.68
17.24
19.26
8.85
-7.65
-20.40
-21.83
-10.98
5.88
18.83
20.25
9.14
-8.07
-21.33
-22.66
-10.83
7.77
22.93
26.27
16.22
-1.19
-15.80
-19.22
-9.73
6.77
20.32
22.75
12.50
-4.43
-17.96
-20.02
-9.32
7.90
21.32
22.82
11.15
-7.19
-21.72
-24.02
-12.66
5.92
21.16
24.50
14.29
-3.25
-17.74
-20.76
-10.70
6.28
20.01
22.26
11.63
-5.67
-19.58
-22.02
-11.70
5.09
18.27
19.89
8.79
-8.78
-22.72
-25.02
-14.51
2.67
16.51
19.14
9.27
-6.96
-19.71
-21.18
-10.15
7.30
21.27
23.88
13.71
-3.25
-17.21
-20.17
-10.50
6.02
19.74
22.75
13.42
-2.59
-15.74
-18.16
-8.37
7.82
20.75
22.39
11.19
-7.04
-22.41
-26.60
-17.64
-0.95
13.79
18.34
10.59
-4.21
-16.65
-18.72
-8.71
7.72
20.75
22.36
10.98
-7.18
-21.84
-24.72
-14.33
2.93
16.65
18.64
7.75
-9.44
-22.60
-23.67
-11.71
6.58
20.90
23.23
12.49
-4.97
-19.03
-21.66
-11.43
5.73
20.09
23.61
14.64
-1.26
-14.51
-17.19
-7.67
8.43
21.41
23.29
12.42
-5.31
-19.96
-23.24
-13.35
3.86
18.40
22.02
12.85
-3.42
-17.15
-20.38
-11.50
3.83
16.22
18.03
7.97
-8.15
-20.89
-22.62
-12.04
4.92
18.64
21.23
11.18
-5.83
-20.03
-23.26
-13.71
3.02
17.08
20.21
10.44
-6.50
-20.64
-23.59
-13.44
3.99
18.58
21.98
12.32
-4.50
-18.48
-21.38
-11.48
5.31
19.14
22.01
12.48
-3.50
-16.14
-17.59
-6.59
10.72
24.40
26.38
15.28
-2.77
-17.60
-20.89
-10.94
6.34
20.82
24.04
14.07
-3.34
-18.14
-21.83
-12.39
4.47
18.71
21.99
12.40
-4.28
-18.15
-21.03
-11.33
5.00
18.00
19.62
8.48
-9.31
-23.70
-26.53
-16.26
1.11
15.61
19.06
9.80
-6.38
-19.61
-21.70
-11.08
6.31
20.31
22.58
11.43
-6.99
-22.26
-25.76
-15.55
2.45
17.97
22.44
13.87
-2.06
-15.53
-18.28
-8.51
8.06
21.71
24.36
14.40
-2.40
-16.28
-19.08
-9.21
7.40
20.83
22.77
11.58
-6.80
-22.17
-25.98
-16.26
1.23
16.38
20.65
11.94
-4.15
-17.69
-20.31
-10.04
7.37
21.82
24.87
14.56
-3.28
-18.45
-22.31
-12.87
4.10
18.51
21.85
12.25
-4.63
-18.99
-22.62
-13.76
1.95
14.96
17.45
7.92
-7.90
-20.42
-21.85
-10.89
6.49
20.31
22.52
11.58
-6.36
-21.06
-24.05
-13.53
4.48
19.59
23.21
13.38
-4.03
-18.90
-22.64
-13.26
3.51
17.73
20.96
11.26
-5.76
-20.12
-23.27
-13.05
4.91
20.54
25.04
16.07
-0.97
-16.10
-20.62
-12.28
3.58
17.16
20.18
10.71
-5.61
-19.02
-21.39
-11.02
6.19
20.42
23.61
14.17
-2.04
-15.30
-17.61
-7.49
9.17
22.58
24.78
14.28
-3.12
-17.74
-21.63
-13.13
2.21
15.01
17.55
8.37
-7.03
-19.34
-20.99
-10.69
5.78
18.77
20.50
9.55
-8.04
-22.28
-25.08
-14.80
2.46
16.62
19.40
9.28
-7.68
-21.41
-23.70
-13.07
4.40
18.69
21.73
12.11
-4.20
-17.40
-19.65
-9.78
6.09
18.20
18.87
7.20
-10.35
-23.76
-25.19
-13.70
4.30
18.64
21.46
11.50
-5.02
-18.20
-20.20
-9.73
7.11
20.59
22.97
13.03
-3.19
-15.99
-17.58
-6.80
10.19
23.53
25.33
14.43
-3.00
-16.94
-19.45
-9.30
7.30
20.36
22.01
11.10
-6.03
-19.33
-20.94
-9.76
7.72
21.30
23.03
11.76
-6.03
-20.13
-22.47
-11.84
5.43
19.23
21.58
11.22
-5.71
-19.39
-21.98
-12.21
3.95
16.92
19.08
9.35
-6.34
-18.43
-19.40
-8.43
8.19
20.48
20.81
8.30
-10.37
-24.84
-27.11
-16.11
1.47
15.24
17.13
6.16
-11.05
-24.14
-25.02
-12.66
6.40
21.81
25.36
15.65
-1.29
-15.48
-18.90
-10.06
5.22
17.38
18.82
8.53
-7.29
-18.90
-18.78
-6.39
11.47
24.44
24.83
12.06
-6.80
-21.25
-23.44
-12.60
4.49
17.72
19.62
9.69
-5.53
-16.41
-16.00
-4.27
11.91
22.91
21.93
9.14
-8.39
-20.68
-20.70
-8.54
8.69
20.82
20.66
8.17
-9.50
-22.14
-22.33
-9.90
7.96
20.87
21.31
8.87
-9.37
-23.14
-24.91
-14.14
2.39
14.79
15.85
5.31
-10.02
-20.43
-18.96
-5.67
12.30
24.93
25.02
12.49
-5.67
-19.21
-20.58
-9.29
7.93
20.97
22.20
10.84
-6.51
-19.86
-21.62
-10.99
5.56
18.11
19.28
8.47
-7.78
-19.67
-19.96
-8.28
8.67
21.12
21.90
10.74
-5.71
-17.75
-18.30
-7.11
9.07
20.54
20.21
7.93
-9.50
-22.20
-23.02
-11.73
4.90
17.00
17.55
6.32
-9.86
-21.26
-20.93
-8.78
8.31
20.51
20.88
9.33
-7.28
-19.16
-19.19
-7.20
9.97
22.52
23.26
11.94
-4.75
-17.03
-17.81
-6.84
9.21
20.64
20.52
8.70
-8.08
-20.17
-20.66
-9.40
6.87
18.50
18.66
7.25
-8.91
-20.12
-19.47
-6.87
10.65
23.11
23.26
10.90
-7.01
-20.35
-21.66
-10.50
6.33
18.85
19.77
8.72
-7.59
-19.34
-19.48
-7.90
8.50
19.85
19.23
6.73
-10.56
-22.67
-22.57
-10.19
7.38
20.19
20.99
9.53
-7.41
-19.93
-20.77
-9.49
7.27
19.72
20.64
9.67
-6.53
-18.19
-18.18
-6.31
10.49
22.18
21.58
8.58
-9.63
-22.83
-23.70
-12.10
4.88
17.20
17.80
6.73
-9.01
-19.77
-18.96
-7.00
8.91
19.17
17.40
4.32
-12.67
-23.64
-21.93
-8.06
10.50
23.45
23.61
10.93
-7.41
-21.05
-22.46
-11.27
5.60
18.07
18.87
7.75
-8.33
-19.54
-18.96
-6.68
10.20
21.91
21.61
9.48
-7.48
-19.53
-19.78
-8.23
8.30
20.10
20.27
8.60
-8.17
-20.36
-20.94
-9.64
6.86
18.88
19.43
8.32
-7.71
-19.04
-18.76
-6.83
9.83
21.51
21.27
9.14
-7.96
-20.23
-20.63
-9.09
7.54
19.51
19.85
8.42
-7.89
-19.41
-19.31
-7.72
8.35
19.11
17.87
4.93
-12.33
-23.93
-22.91
-9.54
8.81
21.93
22.58
10.81
-6.24
-18.47
-18.63
-6.65
10.47
22.72
22.95
10.99
-6.21
-18.69
-19.34
-8.05
8.24
19.60
19.05
6.61
-10.50
-22.20
-21.40
-8.23
9.89
22.62
22.65
9.97
-8.05
-21.06
-21.55
-9.33
8.44
21.50
22.42
10.96
-5.90
-18.19
-18.85
-7.91
7.70
18.23
17.10
4.71
-11.69
-22.39
-20.91
-7.88
9.33
20.90
20.24
7.82
-9.12
-20.82
-20.54
-8.60
7.91
19.23
18.70
6.60
-9.90
-21.01
-20.03
-7.42
9.47
20.65
19.42
6.32
-11.10
-22.74
-21.81
-8.80
8.76
20.76
20.39
8.04
-8.86
-20.26
-19.26
-6.24
11.37
23.39
22.82
9.91
-7.93
-20.51
-20.77
-8.98
7.63
18.98
18.28
5.90
-10.74
-21.71
-20.30
-7.16
10.15
21.62
20.64
7.92
-8.90
-19.85
-18.28
-4.96
12.49
24.02
22.99
10.07
-7.22
-18.89
-18.31
-6.16
10.07
20.43
18.41
4.70
-13.08
-24.80
-23.74
-10.51
7.30
19.48
19.21
6.98
-9.69
-20.77
-19.48
-6.43
10.81
22.21
21.14
8.25
-8.92
-20.50
-19.96
-8.06
7.87
18.21
16.78
4.43
-11.47
-21.45
-19.47
-6.50
10.01
20.50
18.88
6.15
-10.18
-20.45
-18.47
-5.24
11.59
22.21
20.36
7.04
-10.01
-20.87
-19.23
-6.16
10.60
21.16
19.37
6.36
-10.05
-20.09
-17.66
-4.00
13.03
23.50
21.30
7.60
-9.72
-20.75
-19.29
-6.45
9.93
19.99
17.57
3.94
-12.97
-23.22
-20.59
-6.42
11.26
22.41
20.82
7.67
-9.19
-19.91
-18.41
-5.89
9.99
19.63
17.31
4.43
-11.21
-20.18
-16.94
-3.12
13.24
22.50
18.95
4.30
-13.36
-24.11
-21.91
-8.14
9.27
20.46
19.26
6.70
-9.68
-20.39
-19.33
-7.39
8.31
18.62
17.70
6.38
-8.39
-17.62
-15.58
-3.13
12.59
22.33
20.20
7.07
-9.71
-20.58
-19.31
-6.76
9.58
19.88
17.83
4.40
-12.71
-23.49
-21.53
-7.81
9.90
21.63
20.92
8.63
-7.73
-18.50
-17.43
-5.41
10.14
19.75
17.45
4.33
-12.06
-22.08
-19.76
-6.28
10.60
21.05
19.02
5.70
-11.06
-21.42
-19.23
-5.68
11.50
22.60
21.50
9.25
-6.76
-17.16
-16.05
-4.52
10.13
18.73
15.65
2.18
-14.11
-23.77
-20.91
-6.87
10.45
21.06
18.64
4.25
-14.10
-26.00
-24.60
-10.53
8.47
22.07
23.27
12.37
-3.43
-14.33
-13.71
-2.08
13.36
23.03
20.75
7.51
-9.19
-19.65
-17.84
-5.03
10.92
20.22
17.00
2.81
-14.15
-23.90
-20.45
-5.41
12.90
24.18
21.98
7.43
-11.49
-24.44
-24.59
-12.41
4.65
16.59
16.62
5.10
-10.76
-21.21
-19.61
-6.60
10.49
21.88
21.17
9.11
-7.01
-17.67
-16.80
-5.30
9.58
18.63
16.14
3.28
-12.54
-22.07
-19.57
-6.27
10.25
20.49
18.54
5.51
-10.99
-21.32
-19.40
-6.31
10.38
21.07
19.80
7.67
-7.83
-17.30
-14.96
-2.14
13.55
22.58
19.17
4.72
-12.83
-23.60
-21.42
-7.46
10.26
21.45
19.51
5.37
-12.94
-25.05
-24.06
-10.70
7.19
19.34
19.07
7.08
-9.04
-19.44
-17.85
-5.31
10.56
20.16
17.61
4.24
-12.16
-21.98
-19.38
-5.79
10.96
21.13
18.89
5.66
-10.64
-20.29
-17.32
-3.13
14.32
25.13
23.19
9.71
-7.47
-18.53
-17.29
-4.91
10.89
20.47
17.93
4.52
-12.01
-22.06
-19.77
-6.51
9.97
20.05
17.88
4.85
-11.24
-20.77
-17.84
-3.80
13.55
24.36
22.55
9.24
-7.88
-19.13
-18.36
-6.64
8.48
17.61
15.06
2.32
-12.89
-21.26
-17.46
-3.42
12.84
21.81
18.22
3.98
-12.73
-22.36
-19.34
-5.33
11.71
22.20
20.30
7.34
-9.15
-19.76
-18.60
-6.89
7.90
16.48
13.29
-0.14
-15.95
-24.56
-20.42
-5.35
12.37
22.79
20.13
6.13
-10.86
-20.96
-18.37
-4.79
11.70
21.39
18.69
5.35
-10.65
-19.76
-16.45
-2.50
14.10
23.70
20.70
6.82
-9.87
-19.66
-16.75
-2.85
13.79
23.35
19.95
5.28
-12.44
-23.26
-21.22
-7.86
8.85
19.13
17.11
4.19
-11.77
-21.26
-18.53
-5.08
11.18
20.66
17.67
3.87
-12.77
-22.58
-19.91
-6.64
9.04
17.53
13.53
-0.72
-16.71
-24.70
-19.45
-3.39
14.80
25.23
22.39
8.27
-8.82
-19.21
-17.23
-4.44
11.46
21.19
19.17
6.79
-8.55
-17.76
-15.33
-2.65
12.83
21.87
18.99
5.63
-10.50
-19.96
-17.09
-3.56
12.55
21.61
18.00
3.58
-13.36
-23.01
-19.82
-5.85
10.51
19.48
15.70
1.38
-14.92
-23.50
-19.10
-4.12
12.75
21.63
17.22
1.96
-15.46
-25.08
-21.39
-6.67
10.54
20.36
17.43
3.88
-11.91
-20.30
-15.95
-1.06
16.06
25.80
22.75
8.87
-7.73
-17.47
-14.97
-2.02
13.47
22.16
18.75
5.19
-10.52
-19.06
-15.26
-1.17
14.94
23.43
19.04
3.94
-13.45
-23.29
-20.05
-5.86
10.81
20.12
16.54
2.12
-14.83
-24.57
-21.57
-7.81
8.58
18.03
15.16
1.79
-14.04
-23.01
-19.88
-6.50
9.15
17.77
14.20
0.50
-15.21
-23.52
-19.18
-4.38
12.57
22.05
18.79
4.96
-11.16
-19.96
-16.15
-1.91
14.53
23.64
20.10
5.98
-10.47
-19.68
-16.22
-1.94
15.07
25.24
22.96
9.84
-6.32
-16.19
-14.32
-2.34
12.04
19.57
15.12
0.72
-15.48
-24.03
-19.66
-4.62
12.54
22.02
18.37
3.81
-13.14
-22.55
-18.88
-4.30
12.74
22.45
19.37
5.52
-10.85
-20.27
-17.44
-4.32
11.08
19.51
15.85
2.18
-13.50
-21.87
-17.71
-3.15
13.52
22.56
18.51
3.42
-14.25
-24.37
-21.02
-6.03
12.18
23.35
21.39
7.85
-9.07
-19.40
-17.21
-4.08
11.94
21.19
18.01
4.20
-12.13
-21.38
-17.99
-3.77
13.13
22.86
19.76
5.53
-11.71
-22.23
-20.31
-7.62
7.81
16.48
12.96
-0.79
-16.68
-25.16
-20.94
-6.15
10.98
20.85
18.13
4.85
-10.75
-19.17
-15.08
-0.57
16.04
25.08
21.09
6.17
-11.30
-21.50
-18.80
-5.14
11.12
20.23
16.74
2.63
-13.81
-22.85
-19.11
-4.67
12.17
21.80
18.84
5.30
-10.63
-19.39
-15.61
-1.26
15.46
24.87
21.41
6.92
-10.45
-20.96
-18.78
-5.49
10.92
20.65
18.00
4.59
-11.51
-20.55
-16.90
-2.57
13.88
22.48
17.67
1.82
-16.12
-25.80
-21.57
-5.82
12.51
23.02
20.05
5.80
-10.96
-20.21
-16.53
-2.24
13.88
21.95
16.73
0.83
-16.88
-26.46
-22.62
-7.98
8.58
17.12
12.54
-2.46
-18.95
-26.95
-21.37
-5.00
13.18
23.17
19.78
5.52
-10.82
-19.45
-15.18
-0.37
16.54
25.99
22.81
9.19
-6.76
-15.72
-12.62
0.53
15.80
23.92
19.85
5.56
-10.99
-20.51
-17.78
-4.82
10.33
18.36
14.21
0.17
-15.45
-23.20
-18.10
-2.81
14.03
22.68
18.12
2.94
-14.06
-23.15
-19.20
-4.64
11.89
20.77
16.85
2.56
-13.69
-22.34
-18.19
-3.61
12.95
21.77
17.72
3.07
-13.68
-22.78
-18.98
-4.57
11.89
20.76
16.81
2.48
-13.65
-21.93
-17.32
-2.46
14.06
22.52
17.88
2.65
-14.51
-23.94
-20.34
-5.79
11.33
21.36
18.78
5.39
-10.86
-20.56
-18.22
-5.59
9.57
18.14
15.14
2.52
-11.92
-19.25
-14.84
-1.07
14.08
21.84
17.70
4.23
-10.50
-17.69
-12.91
1.23
16.66
24.40
19.85
5.46
-10.58
-19.15
-15.38
-1.49
14.37
22.92
19.18
5.34
-10.57
-19.33
-15.95
-2.75
12.05
19.27
14.17
-0.66
-16.79
-24.84
-20.07
-5.22
11.15
19.56
15.20
0.66
-15.45
-23.74
-19.34
-4.81
11.39
20.00
16.19
2.61
-12.36
-19.46
-13.99
1.30
17.78
25.93
21.06
5.95
-10.71
-19.37
-15.25
-1.22
13.97
20.96
15.28
0.10
-15.71
-22.77
-16.83
-1.37
14.59
21.57
15.33
-0.87
-17.95
-26.44
-21.80
-6.94
9.36
17.81
13.73
0.02
-14.93
-21.97
-16.62
-1.89
13.65
20.78
15.34
0.53
-14.73
-21.16
-14.61
1.40
17.62
24.68
18.36
2.33
-14.26
-21.84
-16.15
-0.69
15.53
22.99
17.44
2.12
-13.93
-21.37
-15.84
-0.51
15.56
22.92
16.96
0.95
-16.11
-24.47
-19.30
-3.63
13.46
22.03
17.29
2.13
-14.34
-22.23
-16.73
-0.95
15.82
23.69
17.83
1.50
-16.03
-24.76
-19.81
-4.18
13.20
22.55
19.08
5.49
-9.63
-17.12
-12.56
1.18
15.54
21.47
14.75
-1.35
-18.00
-25.87
-20.49
-5.07
11.44
19.41
14.34
-0.74
-16.84
-24.39
-18.73
-2.85
14.31
23.14
18.81
4.15
-12.04
-20.11
-15.21
-0.02
16.72
25.20
20.36
4.73
-12.85
-22.38
-18.46
-3.40
13.97
23.50
19.62
4.68
-12.45
-21.68
-17.45
-2.30
14.79
23.74
19.30
4.05
-13.11
-22.29
-18.46
-4.32
11.50
19.64
15.47
1.79
-12.98
-19.92
-14.75
-0.34
15.03
22.51
17.82
3.76
-11.38
-18.67
-13.69
0.82
16.39
23.77
18.34
2.81
-14.25
-23.40
-19.71
-5.81
9.76
17.81
13.82
0.66
-13.26
-19.15
-13.11
1.34
15.60
20.99
13.97
-1.67
-17.03
-23.29
-16.88
-1.46
14.04
20.66
14.55
-0.75
-16.36
-23.14
-16.92
-1.15
15.14
22.44
16.43
0.55
-15.96
-23.35
-17.15
-0.86
16.01
23.70
17.78
1.81
-14.82
-22.46
-16.94
-2.06
13.01
19.08
12.52
-2.73
-17.47
-22.80
-15.30
1.04
17.06
23.88
17.78
2.46
-13.36
-20.81
-15.84
-1.61
13.58
20.96
16.47
2.97
-11.40
-17.96
-12.60
1.73
16.58
23.16
17.40
2.52
-12.96
-20.05
-14.78
-0.56
14.00
20.05
13.82
-1.24
-16.43
-23.08
-17.49
-3.02
11.72
18.15
12.51
-1.79
-16.27
-22.26
-15.90
-0.61
14.95
21.70
15.69
0.38
-15.25
-21.89
-15.38
0.67
16.91
23.84
17.24
0.77
-16.25
-24.18
-18.73
-3.42
12.74
20.42
15.51
1.33
-13.24
-19.25
-12.84
2.55
18.00
24.50
18.01
1.97
-14.69
-22.67
-17.48
-2.18
14.48
22.99
18.72
4.45
-11.29
-19.29
-15.05
-1.56
12.53
18.38
12.03
-2.95
-17.66
-23.11
-15.65
0.71
16.80
23.45
16.93
0.93
-15.44
-23.11
-18.06
-3.53
11.86
19.27
14.53
0.73
-13.89
-20.62
-15.26
-0.77
14.62
22.03
17.35
3.46
-11.27
-18.01
-12.65
1.71
16.41
22.61
16.29
0.86
-14.88
-21.78
-15.85
-0.67
14.81
21.31
14.75
-1.45
-18.17
-26.09
-20.86
-5.60
10.84
19.16
14.79
0.72
-14.60
-22.02
-17.11
-2.79
12.52
19.74
14.74
0.63
-13.97
-20.07
-13.70
1.56
16.64
22.46
15.24
-1.11
-17.29
-23.91
-17.07
-0.67
16.13
23.93
18.62
3.52
-12.48
-20.31
-15.69
-1.57
13.61
20.93
16.04
1.80
-13.48
-20.77
-15.62
-0.83
15.08
22.73
17.45
2.08
-14.60
-23.02
-18.26
-3.25
13.11
21.21
16.34
1.40
-14.79
-22.63
-17.47
-2.28
14.22
22.58
18.09
3.52
-12.54
-20.82
-16.55
-2.30
13.63
22.00
18.03
4.15
-11.31
-18.99
-13.97
1.33
18.25
27.02
22.34
6.69
-11.17
-21.31
-18.25
-4.51
11.08
18.72
13.58
-1.44
-17.28
-24.28
-18.08
-2.12
14.27
21.62
15.75
0.28
-15.53
-22.23
-15.74
0.38
17.06
24.86
19.44
3.91
-12.88
-21.56
-17.47
-3.23
12.63
20.78
16.38
2.07
-13.84
-22.08
-17.84
-3.76
11.68
19.14
14.03
-0.81
-16.61
-23.85
-17.93
-1.93
15.03
23.30
18.15
2.70
-14.02
-22.29
-17.38
-2.33
14.04
22.12
17.24
2.30
-13.86
-21.76
-16.75
-1.70
14.46
22.15
16.58
0.84
-16.11
-24.48
-19.39
-3.86
13.12
21.76
17.36
2.84
-12.93
-20.51
-15.45
-0.89
14.33
21.14
15.44
0.70
-14.25
-20.31
-13.58
2.25
18.08
24.49
17.39
0.36
-17.11
-25.24
-19.40
-2.88
14.83
23.66
18.52
2.56
-14.96
-23.85
-18.96
-3.26
14.02
22.70
17.85
2.43
-14.39
-22.75
-17.86
-2.87
13.11
20.63
15.29
0.44
-14.98
-21.60
-15.35
0.25
16.12
22.94
16.53
0.36
-16.34
-23.99
-18.08
-1.82
15.62
24.44
19.82
4.81
-11.59
-19.71
-14.78
0.25
16.38
23.94
18.27
2.50
-14.37
-22.61
-17.47
-2.04
14.53
22.45
17.04
1.34
-15.52
-23.73
-18.63
-3.41
12.69
20.01
14.12
-1.43
-17.22
-23.59
-16.42
0.37
17.21
24.35
17.71
1.13
-15.76
-23.37
-17.51
-1.74
14.66
22.33
17.07
2.31
-13.16
-20.25
-14.85
-0.25
14.88
21.52
15.72
0.73
-14.73
-21.68
-16.07
-1.29
13.81
20.25
14.09
-1.19
-16.65
-23.04
-16.33
-0.05
16.83
24.88
19.73
4.43
-12.20
-20.86
-16.89
-2.93
12.67
20.77
16.66
