1538484013.00
64.000000
-0.00
-0.00
-0.00
-0.00
-0.00
-0.00
-0.00
-0.00
-0.00
-0.00
0.00
0.01
0.01
-0.00
-0.03
-0.05
-0.05
0.00
0.13
0.36
0.66
1.01
1.37
1.72
2.06
2.40
2.79
3.24
3.80
4.42
5.07
5.68
6.24
6.75
7.28
7.89
8.65
9.65
10.81
12.05
13.23
14.32
15.33
16.42
17.77
19.50
21.84
24.61
27.58
30.48
33.16
35.69
38.39
41.64
45.76
51.13
57.42
64.15
70.79
77.01
82.86
88.80
95.48
103.38
113.06
124.07
135.75
147.31
158.22
168.48
178.59
189.71
200.42
213.01
228.22
246.42
266.67
286.14
300.41
304.54
294.76
269.92
232.36
186.22
136.30
86.33
38.06
-8.40
-53.70
-98.28
-141.88
-183.26
-221.35
-255.17
-284.01
-307.75
-326.49
-340.53
-350.33
-356.88
-361.50
-366.12
-372.08
-379.35
-386.03
-388.71
-383.64
-368.39
-342.95
-309.41
-271.65
-233.60
-198.11
-166.49
-138.84
-114.69
-93.63
-75.38
-59.57
-45.73
-33.29
-21.78
-10.98
-0.81
8.77
17.74
25.98
33.30
39.31
43.65
46.36
47.98
49.40
51.34
53.98
56.82
58.90
59.28
57.64
54.59
51.36
49.18
48.65
49.49
50.55
50.47
48.35
44.42
39.97
36.70
35.82
37.38
39.93
41.18
39.04
32.86
23.80
14.50
7.85
5.71
7.86
12.10
15.33
15.14
10.94
4.24
-2.21
-5.75
-5.25
-1.61
2.89
5.71
5.00
-0.23
-10.44
-25.60
-45.04
-66.60
-86.42
-99.04
-98.96
-82.89
-51.81
-11.60
28.26
58.09
72.08
71.16
62.19
54.48
54.72
63.58
75.61
82.81
79.82
67.58
52.55
42.67
42.35
49.84
58.62
61.79
56.62
46.37
37.76
36.52
43.59
54.39
61.55
59.54
48.29
34.01
25.88
30.93
49.76
75.62
97.27
104.36
92.53
66.05
35.33
11.88
2.65
6.96
17.17
22.67
15.01
-8.01
-42.16
-79.29
-111.02
-131.97
-140.90
-139.97
-132.84
-122.57
-111.39
-100.96
-92.97
-89.05
-89.91
-94.33
-98.76
-97.99
-87.62
-66.42
-37.57
-7.88
14.91
25.49
23.20
12.66
1.09
-5.03
-2.83
5.86
16.02
22.36
22.18
17.04
11.26
9.20
12.40
18.38
22.00
18.63
7.13
-8.71
-22.27
-27.60
-22.74
-10.73
2.13
9.69
9.03
1.79
-7.61
-14.64
-16.95
-15.11
-11.51
-8.53
-7.09
-5.92
-2.84
3.91
14.55
27.36
39.47
48.15
52.05
52.11
50.56
49.56
49.90
50.52
49.37
45.11
38.33
31.82
28.76
30.82
36.83
43.22
45.89
42.42
33.30
22.05
13.29
10.72
15.52
25.88
37.62
45.70
46.01
37.25
21.29
2.59
-13.61
-23.50
-26.33
-24.27
-20.93
-18.59
-17.24
-14.96
-9.87
-2.30
4.70
7.13
2.71
-6.58
-15.40
-17.77
-10.73
3.55
18.65
27.51
26.02
15.58
1.85
-8.57
-11.62
-7.86
-1.79
1.06
-2.95
-13.23
-25.87
-35.97
-40.41
-39.49
-36.38
-34.61
-35.81
-38.17
-37.90
-31.87
-19.90
-5.38
6.35
11.11
7.84
-0.63
-9.80
-16.08
-18.36
-17.86
-16.35
-13.96
-8.96
1.45
18.31
39.10
57.82
67.30
62.61
43.95
16.67
-10.57
-29.51
-35.20
-26.90
-7.60
17.17
40.95
57.27
61.66
53.15
35.15
14.62
-0.93
-7.15
-4.67
1.54
5.89
5.44
1.18
-3.53
-6.20
-7.29
-9.29
-14.43
-21.92
-28.18
-29.15
-23.13
-12.17
-0.80
6.98
9.87
9.85
10.26
13.14
17.88
21.49
20.58
13.73
2.29
-9.95
-18.97
-22.35
-20.19
-14.56
-8.03
-2.10
3.06
8.32
14.18
19.92
23.72
23.53
18.26
8.86
-2.07
-11.06
-15.38
-14.22
-8.95
-2.35
2.85
5.66
7.05
9.34
14.51
22.76
32.44
40.93
46.15
47.70
46.40
43.46
39.45
34.15
27.44
20.00
13.37
9.43
9.26
12.72
18.74
25.91
32.98
38.76
41.87
41.03
35.48
25.78
13.71
1.54
-8.98
-17.33
-23.99
-29.57
-34.36
-38.40
-42.18
-47.01
-54.45
-65.33
-78.86
-92.60
-103.64
-109.80
-110.44
-106.33
-98.88
-89.53
-79.39
-68.98
-58.04
-45.57
-30.20
-11.32
9.96
30.46
46.05
53.82
53.93
50.11
47.95
51.98
63.41
79.24
93.38
98.87
90.33
66.17
29.50
-12.65
-51.28
-78.60
-90.81
-89.38
-79.64
-68.58
-61.41
-59.36
-59.65
-57.71
-49.79
-35.15
-15.92
4.00
20.32
29.50
29.17
18.40
-1.58
-26.82
-51.11
-67.41
-70.57
-59.64
-38.36
-13.34
9.07
25.49
36.08
43.06
48.42
52.49
54.33
53.45
51.21
50.47
53.80
61.43
70.84
78.21
80.84
78.54
73.55
68.82
66.14
65.47
65.56
65.24
64.36
63.34
62.74
63.01
64.79
69.42
78.57
93.50
113.25
134.07
150.54
157.92
154.28
141.16
122.58
103.63
88.49
79.52
77.08
79.64
83.98
85.65
80.04
64.75
40.31
10.04
-21.45
-49.68
-71.30
-83.89
-85.42
-74.01
-49.67
-16.11
19.08
46.85
60.31
57.74
42.91
23.39
6.32
-4.92
-11.33
-16.78
-25.34
-39.33
-58.85
-81.71
-104.53
-123.80
-137.28
-144.89
-148.75
-152.42
-159.74
-172.77
-190.54
-209.46
-224.43
-231.08
-226.68
-211.41
-188.34
-162.09
-137.92
-120.28
-112.98
-115.53
-123.35
-129.08
-125.59
-108.46
-77.26
-36.89
4.25
37.01
54.61
54.72
40.40
19.72
2.99
-1.10
10.34
32.68
55.49
67.98
64.92
50.08
34.71
31.12
46.13
76.95
113.10
142.25
156.18
153.59
137.89
113.19
80.97
40.97
-5.71
-53.40
-91.81
-109.75
-100.83
-67.44
-20.44
25.23
56.26
65.54
53.40
26.59
-5.37
-33.62
-52.34
-59.80
-57.84
-50.32
-41.04
-31.89
-23.01
-14.38
-7.02
-3.15
-4.64
-11.00
-18.39
-20.63
-13.34
2.74
21.04
32.40
30.14
14.02
-9.32
-29.56
-38.58
-34.50
-22.15
-9.40
-2.47
-3.08
-8.42
-13.84
-16.70
-18.33
-22.81
-33.47
-49.44
-65.35
-74.75
-74.52
-68.09
-64.30
-71.89
-92.90
-119.21
-135.42
-126.78
-86.97
-22.38
50.54
112.98
152.08
165.16
157.66
137.64
111.14
80.69
47.19
12.86
-17.76
-39.41
-49.68
-51.21
-50.91
-57.28
-76.65
-110.67
-156.43
-208.07
-259.40
-305.28
-342.03
-367.47
-379.60
-375.96
-353.76
-310.50
-245.31
-160.76
-63.51
36.38
127.94
202.61
257.00
293.47
318.21
337.81
356.21
373.70
388.01
396.42
397.78
392.70
382.59
368.28
349.50
325.33
295.30
260.25
222.42
184.91
150.47
120.62
95.34
73.40
53.14
33.34
13.77
-4.84
-21.24
-34.34
-43.73
-49.88
-53.87
-56.90
-59.85
-63.01
-66.07
-68.46
-69.68
-69.53
-68.22
-66.22
-64.06
-62.10
-60.43
-58.93
-57.32
-55.39
-53.04
-50.32
-47.40
-44.44
-41.59
-38.90
-36.37
-33.96
-31.65
-29.41
-27.25
-25.19
-23.23
-21.39
-19.67
-18.07
-16.52
-15.06
-13.71
-12.47
-11.34
-10.32
-9.40
-8.57
-7.82
-7.15
-6.56
-6.04
-5.57
-5.15
-4.77
-4.43
-4.11
-3.83
-3.57
-3.34
-3.14
-2.95
-2.78
-2.62
-2.48
-2.34
-2.21
-2.10
-1.99
-1.90
-1.81
-1.73
-1.65
-1.58
-1.52
-1.45
-1.39
-1.33
-1.28
-1.23
-1.19
-1.15
-1.11
-1.07
-1.04
-1.00
-0.97
-0.94
-0.91
-0.88
-0.86
-0.83
-0.81
-0.79
-0.76
-0.74
-0.72
-0.70
-0.68
-0.66
-0.64
-0.62
-0.60
-0.58
-0.57
-0.54
-0.53
-0.51
-0.49
-0.47
-0.46
-0.45
-0.43
-0.42
-0.40
-0.39
-0.37
-0.33
-0.31
-0.26
-0.21
-0.15
-0.08
-0.00
0.09
0.18
0.29
0.39
0.51
0.63
0.75
0.87
0.99
1.13
1.27
1.42
1.58
1.75
1.94
2.15
2.37
2.62
2.89
3.18
3.52
3.87
4.27
4.72
5.22
5.78
6.41
7.07
7.73
8.40
9.07
9.78
10.57
11.49
12.56
13.72
14.93
16.09
17.14
18.08
18.95
19.80
20.74
21.84
23.12
24.57
26.14
27.81
29.62
31.63
33.94
36.53
39.29
41.84
43.65
44.15
42.91
39.73
34.75
28.34
20.99
13.04
4.61
-4.46
-14.37
-25.05
-36.08
-46.14
-54.48
-60.30
-63.34
-64.11
-63.70
-63.41
-64.10
-65.97
-68.60
-70.68
-71.29
-70.07
-67.54
-64.73
-62.80
-62.59
-64.64
-69.23
-76.16
-84.03
-89.97
-90.02
-80.64
-60.55
-32.02
-0.56
27.30
46.54
55.67
56.69
53.45
49.39
46.06
43.19
39.84
35.68
31.40
28.30
27.20
27.90
29.21
29.77
28.47
25.24
20.90
16.67
13.64
12.26
12.23
12.68
12.64
11.43
8.96
5.67
2.31
-0.46
-2.28
-3.24
-3.72
-4.28
-5.32
-7.07
-9.53
-12.45
-15.48
-18.24
-20.42
-21.89
-22.78
-23.36
-24.21
-25.88
-28.76
-32.71
-37.13
-41.10
-43.75
-44.76
-44.25
-43.19
-42.72
-43.51
-45.27
-46.64
-45.52
-39.94
-29.01
-12.87
6.58
26.90
45.83
62.28
76.53
89.82
103.71
118.51
135.21
153.03
169.43
180.09
179.73
163.75
130.27
82.78
27.83
-24.15
-62.96
-82.16
-81.38
-66.12
-45.20
-27.03
-17.22
-16.69
-22.71
-31.74
-41.19
-50.16
-58.84
-67.35
-75.08
-80.47
-82.26
-80.32
-76.13
-72.01
-69.93
-70.75
-73.65
-76.65
-77.56
-74.81
-68.14
-58.58
-47.78
-37.39
-28.44
-21.11
-14.75
-8.31
-0.66
8.78
20.02
32.52
45.37
57.54
68.14
76.76
82.56
86.64
90.04
93.66
97.87
102.37
106.26
108.29
107.81
104.72
100.03
94.99
90.92
88.76
89.12
92.70
98.94
106.38
111.98
111.57
101.09
78.92
47.28
12.02
-19.55
-41.73
-52.44
-53.62
-49.36
-43.68
-38.61
-34.17
-29.57
-24.57
-20.09
-17.59
-18.03
-21.18
-25.70
-29.91
-32.40
-32.89
-32.13
-31.44
-31.92
-33.99
-37.16
-40.35
-42.37
-42.43
-40.51
-37.28
-33.74
-30.79
-28.83
-27.65
-26.64
-25.06
-22.43
-18.83
-14.75
-10.99
-8.21
-6.74
-6.40
-6.62
-6.72
-6.21
-4.96
-3.26
-1.64
-0.63
-0.39
-0.69
-0.93
-0.41
1.31
4.34
8.29
12.50
16.25
19.11
21.11
22.63
24.18
26.08
28.62
31.78
35.25
38.42
40.29
39.44
34.67
26.15
16.27
10.04
13.14
29.09
56.77
90.16
120.20
138.28
140.39
125.98
98.65
63.85
26.59
-9.16
-39.82
-61.32
-69.87
-64.13
-47.21
-26.38
-10.64
-6.81
-16.99
-38.81
-68.12
-102.28
-140.98
-184.46
-229.93
-269.85
-292.99
-288.37
-250.17
-181.10
-92.32
-0.61
76.49
125.70
140.77
122.89
79.09
19.99
-42.75
-98.78
-141.03
-167.18
-180.39
-188.54
-201.56
-227.64
-269.06
-320.46
-370.43
-405.95
-417.88
-404.27
-370.06
-323.82
-273.45
-223.36
-174.47
-126.01
-77.58
-29.86
16.13
59.76
101.18
139.99
173.97
199.14
211.74
210.92
199.70
183.67
167.59
152.57
135.80
113.35
83.96
51.21
22.33
4.55
1.35
11.11
28.86
49.73
71.61
95.10
121.33
149.47
175.94
196.20
207.80
212.91
218.17
231.86
259.61
300.48
346.15
384.07
403.02
398.28
373.59
338.79
304.61
277.80
259.19
245.38
232.29
218.13
203.84
191.22
180.35
168.27
150.20
122.23
83.85
38.61
-7.72
-49.82
-84.91
-112.62
-133.55
-147.31
-152.73
-149.14
-138.33
-125.20
-116.11
-115.80
-124.92
-139.65
-153.78
-161.77
-161.26
-153.42
-141.46
-128.48
-115.74
-102.23
-85.58
-63.53
-35.64
-4.10
26.78
52.44
70.55
82.41
92.14
103.84
118.24
131.28
135.69
124.92
96.56
53.71
2.64
-50.22
-100.69
-146.70
-186.38
-216.45
-232.39
-230.58
-211.13
-179.11
-143.33
-113.06
-94.59
-89.77
-96.49
-110.86
-128.80
-146.45
-159.49
-162.89
-152.23
-126.13
-88.36
-47.34
-13.20
6.63
10.64
3.37
-7.42
-14.56
-14.10
-5.61
9.38
28.93
51.17
73.90
94.21
109.00
116.34
116.67
112.58
107.37
103.13
99.82
95.76
89.17
79.65
68.66
59.00
53.34
53.12
57.90
65.67
73.73
79.71
82.20
80.66
74.70
63.52
46.06
22.08
-6.59
-35.54
-58.75
-71.26
-71.66
-63.38
-53.47
-49.23
-54.77
-69.33
-88.63
-108.14
-125.97
-143.57
-163.75
-187.46
-211.64
-229.67
-234.44
-221.95
-193.19
-153.28
-108.46
-63.21
-19.25
23.32
63.80
99.60
126.57
140.69
139.71
123.75
95.02
56.95
13.59
-30.61
-70.89
-102.86
-123.63
-132.79
-132.56
-126.92
-119.98
-114.85
-113.29
-116.17
-123.95
-136.77
-153.90
-173.27
-191.36
-203.93
-207.37
-199.74
-181.21
-153.73
-120.22
-83.49
-45.64
-8.02
28.34
61.89
90.29
110.83
121.87
124.33
121.92
119.94
123.00
133.00
148.66
167.07
185.67
203.76
222.33
242.64
264.62
286.40
305.27
319.09
327.37
330.57
328.83
320.77
303.54
274.41
232.82
181.63
126.88
75.91
34.80
6.26
-11.18
-22.33
-33.40
-49.55
-73.06
-102.50
-133.26
-159.28
-175.23
-178.59
-170.45
-154.85
-137.12
-121.93
-111.95
-107.46
-106.73
-106.71
-103.72
-94.30
-76.21
-49.42
-16.55
17.78
48.32
70.87
83.41
85.93
79.77
66.51
47.27
22.80
-6.02
-37.60
-69.33
-98.06
-120.83
-135.73
-142.17
-140.59
-131.74
-116.04
-93.65
-65.11
-32.23
1.48
31.44
53.34
64.43
63.90
52.57
32.51
7.25
-17.88
-36.16
-41.11
-29.32
-2.61
31.57
62.38
79.23
75.27
49.34
6.12
-45.33
-94.02
-130.05
-147.80
-147.75
-136.13
-121.96
-112.83
-111.69
-116.59
-123.47
-129.76
-136.19
-145.29
-158.07
-171.44
-178.51
-172.03
-148.59
-110.87
-66.26
-23.03
13.68
43.73
70.93
99.96
133.15
168.94
202.67
229.07
244.92
250.56
249.41
245.90
243.20
242.00
240.89
237.68
230.77
219.29
202.39
178.68
146.40
104.52
53.44
-4.86
-67.29
-130.18
-189.23
-239.19
-274.07
-288.34
-278.93
-246.80
-197.16
-137.77
-76.17
-17.49
36.32
85.48
130.60
171.61
207.76
238.69
265.25
289.38
313.07
337.61
363.21
389.16
414.40
437.98
458.90
475.67
486.14
487.68
478.48
458.54
429.87
395.67
359.05
322.05
285.48
249.46
213.58
177.90
142.94
109.07
76.18
43.82
11.91
-18.75
-46.53
-70.87
-91.43
-108.16
-121.74
-133.76
-146.01
-159.51
-173.89
-187.70
-201.81
-216.70
-232.24
-248.63
-267.71
-292.60
-325.57
-365.80
-408.21
-448.22
-478.18
-489.33
-476.30
-441.12
-393.46
-346.97
-314.65
-305.03
-325.66
-375.14
-442.55
-511.67
-567.72
-602.03
-613.02
-605.06
-553.13
-454.60
-330.54
-211.83
-118.01
-52.43
-10.22
15.17
29.53
38.29
40.42
35.79
26.97
17.55
10.89
7.81
8.09
11.29
17.61
22.57
23.13
19.62
15.30
14.13
19.53
34.88
58.05
87.68
118.97
148.09
173.91
198.09
223.25
251.66
284.87
323.59
368.68
418.35
469.09
515.00
547.62
557.81
539.88
496.52
439.91
388.77
359.15
357.43
377.15
402.02
413.37
398.00
352.76
284.03
204.13
126.22
61.52
18.15
0.68
9.35
39.22
80.44
120.11
145.93
149.35
127.80
84.67
27.53
-34.41
-92.95
-142.55
-181.04
-209.04
-228.36
-240.52
-245.82
-244.11
-236.37
-225.99
-218.77
-220.86
-235.80
-262.64
-295.79
-326.76
-346.91
-349.59
-331.94
-295.53
-246.56
-195.22
-153.04
-128.93
-125.01
-135.01
-147.00
-149.77
-139.14
-120.04
-102.95
-96.59
-102.30
-114.15
-124.75
-132.41
-143.76
-169.68
-216.79
-280.52
-344.76
-388.71
-397.28
-368.39
-313.03
-248.42
-188.96
-140.10
-98.35
-55.53
-4.64
56.71
125.87
197.30
265.57
326.96
378.93
418.74
443.11
449.02
435.49
404.13
358.86
304.70
246.09
185.68
124.75
64.94
10.42
-31.94
-55.40
-56.77
-38.20
-6.58
28.92
60.04
79.21
81.08
66.66
42.76
16.53
-8.68
-32.76
-56.07
-77.82
-96.12
-108.86
-114.93
-115.22
-112.77
-110.92
-111.86
-115.80
-121.39
-126.35
-128.43
-126.14
-119.65
-110.85
-101.96
-94.72
-89.83
-87.13
-85.59
-84.15
-82.07
-79.42
-77.12
-76.31
-77.82
-81.85
-88.07
-95.29
-102.31
-108.07
-111.90
-113.65
-113.36
-110.91
-105.57
-99.76
-93.94
-87.84
-80.87
-72.50
-62.58
-51.43
-39.73
-28.26
-17.61
-7.30
3.71
16.65
32.53
51.68
73.47
96.51
119.17
140.06
159.05
177.06
195.54
216.09
240.08
268.33
300.71
335.55
369.31
397.38
415.91
422.83
418.95
407.82
393.81
379.40
363.17
339.80
302.72
249.17
181.16
105.64
32.59
-28.33
-70.77
-93.50
-100.37
-98.87
-95.37
-95.61
-102.84
-116.37
-131.46
-140.37
-135.22
-110.48
-64.77
2.23
86.21
178.41
267.21
341.32
393.98
425.99
445.72
444.22
419.46
371.65
302.42
214.76
114.48
11.89
-79.99
-150.53
-196.37
-218.96
-225.09
-221.97
-213.64
-200.80
-182.62
-159.87
-136.11
-116.58
-103.34
-96.54
-93.78
-91.30
-86.03
-76.34
-62.76
-47.85
-34.78
-24.24
-15.32
-5.87
6.55
22.91
42.76
63.98
83.29
97.53
105.53
107.50
104.22
99.56
94.64
88.79
79.99
65.62
44.07
15.84
-16.94
-51.80
-87.16
-123.62
-162.62
-204.89
-250.04
-295.52
-337.67
-373.27
-400.17
-416.46
-420.48
-410.12
-384.81
-349.84
-314.87
-291.24
-287.13
-303.29
-331.12
-356.51
-364.48
-344.87
-297.89
-229.66
-148.54
-62.95
18.78
88.51
136.88
156.18
142.62
95.07
20.42
-66.57
-147.66
-207.14
-235.70
-234.02
-209.79
-155.07
-75.04
14.92
97.48
163.18
207.39
240.12
268.47
295.55
321.54
340.86
346.67
334.27
302.16
252.58
191.98
127.95
68.59
20.20
-16.29
-41.62
-55.57
-57.36
-47.16
-27.09
-3.06
17.95
30.43
33.57
29.70
24.76
24.10
29.44
38.88
48.42
55.55
60.40
64.06
67.51
71.17
73.65
73.45
70.08
64.10
57.25
51.32
46.80
42.64
36.92
26.69
10.36
-12.04
-39.34
-69.63
-100.59
-129.25
-152.20
-159.87
-149.19
-121.76
-83.28
-41.75
-4.69
23.18
40.89
50.07
53.43
52.55
48.81
44.13
41.58
44.65
55.84
76.20
104.29
136.39
166.61
188.56
197.64
193.21
179.77
166.21
162.47
174.56
200.79
230.90
250.30
247.21
218.25
169.73
114.02
63.28
23.95
-5.03
-26.75
-45.76
-64.36
-81.21
-92.79
-96.44
-92.59
-85.33
-80.44
-84.02
-100.31
-129.88
-169.98
-216.68
-266.50
-316.53
-363.19
-401.00
-424.86
-431.18
-418.05
-385.37
-334.54
-268.13
-189.39
-102.48
-13.26
67.24
124.85
147.31
128.67
71.34
-15.45
-118.61
-224.34
-308.08
-347.32
-332.64
-273.79
-193.33
-112.85
-44.68
8.89
49.81
86.62
122.14
150.85
166.15
163.45
142.48
107.01
62.53
13.82
-37.08
-89.54
-142.56
-191.83
-229.69
-247.60
-240.36
-209.33
-162.19
-109.43
-61.42
-24.42
1.44
20.40
38.14
58.87
83.75
111.53
140.17
167.49
192.05
213.71
233.29
252.26
273.50
299.86
332.84
370.99
409.02
438.63
450.96
439.56
402.70
345.71
276.62
201.97
124.28
43.46
-39.57
-119.91
-188.78
-236.71
-254.54
-240.16
-200.19
-147.46
-95.05
-50.65
-15.10
15.89
47.95
89.87
148.05
224.46
315.75
414.83
513.06
601.32
671.72
691.66
640.62
521.14
361.89
200.83
64.60
-38.59
-113.85
-169.58
-211.83
-238.91
-247.90
-239.65
-220.94
-201.66
-190.79
-193.73
-210.92
-239.29
-270.57
-296.11
-309.50
-308.19
-292.97
-261.12
-218.07
-174.28
-141.14
-123.77
-120.40
-124.12
-127.17
-124.57
-115.72
-104.52
-95.48
-91.14
-89.98
-88.45
-83.59
-75.07
-65.09
-57.03
-53.88
-55.77
-60.21
-63.16
-61.38
-53.72
-41.26
-26.47
-12.10
-0.47
7.75
13.31
17.63
21.95
26.90
32.23
37.60
42.38
45.80
47.60
47.94
47.28
46.20
45.20
44.71
45.80
49.57
56.86
67.93
81.91
96.68
109.40
117.71
116.90
106.21
87.83
65.99
45.49
30.17
21.80
19.78
21.33
22.41
19.56
10.44
-5.42
-26.54
-50.21
-73.38
-93.03
-106.43
-111.11
-105.03
-88.14
-63.11
-35.17
-10.62
5.26
10.18
5.34
-5.36
-16.61
-23.49
-22.40
-11.73
7.40
30.83
52.09
64.40
63.45
49.64
27.86
5.41
-11.35
-19.38
-19.37
-14.26
-7.35
-0.78
4.49
7.91
8.76
6.22
0.02
-9.14
-19.77
-30.32
-39.68
-47.23
-52.50
-54.70
-52.78
-45.99
-34.68
-20.61
-6.59
4.52
10.84
12.21
10.08
6.83
4.75
5.13
7.92
12.15
16.62
20.71
24.78
29.89
37.01
46.21
56.56
66.57
75.04
81.79
87.48
93.01
98.70
103.92
107.39
107.90
105.04
99.31
91.76
83.28
74.14
64.00
52.43
39.38
25.52
12.05
0.25
-9.08
-15.75
-20.09
-22.63
-23.82
-23.87
-22.90
-21.06
-18.57
-15.64
-12.30
-8.41
-3.70
2.03
8.75
16.18
23.75
30.82
36.85
41.63
45.34
48.52
51.89
56.14
61.69
68.65
76.68
84.96
92.20
96.55
95.96
88.53
72.91
48.65
16.26
-22.89
-66.66
-112.16
-155.79
-193.60
-221.86
-238.03
-241.44
-233.65
-218.02
-199.00
-181.24
-168.87
-165.06
-171.73
-189.02
-214.96
-245.29
-273.99
-294.54
-301.50
-291.79
-265.28
-224.77
-175.28
-122.93
-73.58
-31.53
1.33
25.44
42.66
54.78
62.64
66.16
65.32
61.30
56.80
55.20
58.80
67.52
78.87
89.41
96.64
100.30
102.06
104.13
107.71
112.29
116.03
116.78
113.18
105.16
93.93
81.44
69.86
61.01
55.95
54.59
55.78
57.65
58.41
57.09
54.01
50.43
47.83
46.96
47.45
48.04
47.38
44.83
40.77
36.31
32.64
30.38
29.36
28.87
28.16
26.94
25.44
24.18
23.66
23.97
24.85
25.77
26.36
26.53
26.56
26.97
28.09
29.91
31.90
33.19
32.88
30.46
25.98
20.15
14.04
8.78
5.13
3.39
3.45
4.97
7.51
10.47
13.08
14.43
13.77
11.13
7.43
4.34
3.50
5.71
10.40
15.97
20.57
23.03
23.22
21.84
19.77
17.51
15.21
12.86
10.78
9.60
9.95
12.01
15.25
18.55
20.67
20.69
18.35
13.95
8.20
1.97
-3.92
-8.80
-12.19
-13.86
-13.85
-12.47
-10.24
-7.82
-5.80
-4.63
-4.49
-5.36
-6.99
-9.09
-11.39
-13.66
-15.74
-17.51
-18.89
-19.84
-20.44
-20.82
-21.17
-21.65
-22.31
-23.15
-24.06
-24.98
-25.84
-26.59
-27.20
-27.65
-27.91
-27.98
-27.92
-27.75
-27.53
-27.31
-27.14
-27.09
-27.20
-27.53
-28.04
-28.66
-29.22
-29.54
-29.38
-28.57
-27.05
-24.90
-22.38
-19.87
-17.74
-16.25
-15.56
-15.67
-16.42
-17.62
-18.92
-19.96
-20.44
-20.29
-19.75
-19.36
-19.76
-21.41
-24.36
-28.14
-31.97
-35.08
-37.06
-38.11
-39.03
-40.95
-44.84
-50.94
-58.30
-64.68
-67.07
-62.52
-49.20
-27.24
1.09
31.80
60.28
82.53
96.19
101.02
98.76
92.43
85.46
80.63
79.40
81.52
85.32
88.46
88.91
85.80
79.79
72.85
67.41
65.33
66.92
70.58
73.30
71.75
63.68
48.84
29.13
7.91
-11.31
-26.08
-35.75
-41.36
-44.83
-47.94
-51.80
-56.71
-62.64
-69.39
-76.88
-84.87
-92.70
-99.15
-102.64
-101.72
-95.67
-84.83
-70.37
-54.14
-38.15
-24.06
-12.80
-4.43
1.61
6.08
9.56
12.76
15.94
19.11
22.18
25.26
28.67
32.71
37.29
41.69
45.36
47.50
47.57
45.71
43.26
42.57
46.16
55.47
70.07
88.49
108.16
126.48
141.42
152.24
159.39
164.02
167.49
165.13
154.43
135.65
111.89
86.63
61.80
37.64
13.93
-8.81
-29.22
-45.09
-55.04
-59.36
-59.83
-58.24
-55.77
-52.96
-50.12
-47.54
-45.57
-44.23
-40.32
-32.19
-19.62
-3.52
14.32
31.63
46.26
55.92
59.09
57.65
54.27
50.93
48.29
45.45
40.53
31.64
15.63
-8.64
-39.95
-72.33
-101.67
-126.37
-147.27
-166.76
-187.69
-215.60
-254.09
-302.80
-357.61
-412.11
-458.74
-490.52
-502.91
-476.47
-407.26
-308.46
-203.74
-113.17
-44.93
3.68
39.40
67.30
88.50
98.08
91.76
70.39
39.06
4.58
-26.64
-50.23
-64.45
-69.44
-68.40
-63.23
-53.22
-34.94
-6.94
29.52
70.81
112.53
151.46
185.44
215.76
246.83
283.99
330.08
383.14
435.86
477.55
498.10
491.36
458.57
407.97
351.22
298.51
255.31
221.84
195.26
172.57
152.18
133.99
117.94
102.56
84.88
62.11
33.48
1.06
-31.30
-59.99
-83.69
-103.51
-121.57
-138.83
-153.86
-163.50
-164.89
-157.57
-144.20
-129.48
-117.85
-111.48
-109.66
-109.80
-109.31
-107.13
-104.05
-101.84
-102.03
-104.92
-109.62
-114.78
-119.62
-124.72
-132.27
-145.72
-168.55
-202.78
-247.50
-298.32
-348.01
-388.42
-413.00
-418.69
-406.54
-380.65
-345.96
-306.18
-262.87
-216.09
-166.37
-116.37
-71.34
-37.75
-20.60
-20.61
-33.08
-49.12
-59.00
-56.25
-40.30
-16.17
8.50
27.59
39.32
46.23
52.65
61.48
72.51
83.20
91.13
96.15
100.65
107.87
119.45
134.14
148.46
158.82
163.46
163.19
160.41
157.39
155.06
152.87
149.69
144.98
139.23
133.62
129.10
125.75
122.81
119.35
114.99
110.39
106.94
105.95
107.73
111.20
114.35
115.09
112.37
106.58
99.29
92.32
86.74
82.54
78.79
74.46
69.14
63.39
58.37
55.28
54.69
56.23
58.91
61.47
62.98
62.98
61.48
58.78
55.20
50.96
46.15
40.79
34.99
28.98
23.14
17.89
13.56
10.26
7.84
5.95
4.24
2.44
0.46
-1.59
-3.50
-4.99
-5.86
-6.05
-5.78
-5.55
-6.02
-7.67
-10.47
-13.70
-16.21
-16.90
-15.31
-11.89
-7.82
-4.52
-3.09
-4.01
-7.24
-12.50
-19.52
-28.03
-37.67
-47.70
-57.10
-64.76
-69.87
-72.17
-71.97
-69.96
-66.94
-63.55
-60.18
-57.02
-54.08
-51.34
-48.74
-46.18
-43.57
-40.90
-38.23
-35.80
-33.89
-32.81
-32.71
-33.52
-34.88
-36.25
-37.04
-36.68
-34.81
-31.36
-26.56
-20.88
-14.87
-9.03
-3.70
0.99
5.06
8.55
11.53
13.94
15.74
16.89
17.43
17.48
17.26
16.99
16.82
16.80
16.90
16.97
16.87
16.44
15.62
14.41
12.87
11.08
9.13
7.05
4.84
2.42
-0.29
-3.35
-6.74
-10.29
-13.65
-16.36
-17.91
-17.95
-16.39
-13.43
-9.52
-5.19
-0.87
3.17
6.83
10.09
12.88
15.08
16.52
17.11
16.92
16.20
15.28
14.47
13.93
13.65
13.46
13.17
12.66
11.90
10.94
9.84
8.63
7.27
5.73
4.01
2.13
0.11
-2.11
-4.66
-7.67
-11.15
-14.87
-18.35
-20.91
-21.93
-20.96
-17.99
-13.41
-7.93
-2.29
2.91
7.38
11.11
14.24
16.89
19.10
20.84
22.06
22.81
23.21
23.39
23.42
23.28
22.90
22.25
21.40
20.45
19.46
18.38
17.10
15.51
13.60
11.44
9.19
6.91
4.60
2.13
-0.65
-3.84
-7.46
-11.39
-15.44
-19.33
-22.72
-25.27
-26.65
-26.70
-25.44
-23.12
-20.13
-16.92
-13.90
-11.35
-9.45
-8.25
-7.72
-7.77
-8.25
-9.01
-9.91
-10.82
-11.71
-12.59
-13.59
-14.92
-16.77
-19.21
-21.97
-24.40
-25.49
-24.16
-19.58
-11.48
-0.27
13.12
27.57
42.05
55.85
68.53
79.82
89.39
96.94
102.27
105.48
107.11
107.92
108.61
109.54
110.55
111.08
110.47
108.20
104.09
98.21
90.76
81.96
72.01
61.08
49.35
36.92
23.94
10.74
-1.96
-13.12
-21.62
-26.80
-28.92
-29.21
-29.38
-30.89
-34.22
-38.81
-43.43
-47.03
-49.26
-50.52
-51.46
-52.41
-53.10
-52.97
-51.75
-49.98
-48.91
-49.84
-53.32
-58.57
-63.63
-66.21
-64.72
-59.01
-50.49
-41.43
-34.06
-29.70
-28.46
-29.42
-31.24
-32.69
-33.03
-32.09
-30.06
-27.23
-23.87
-20.18
-16.42
-12.95
-10.31
-9.05
-9.72
-12.73
-18.32
-26.42
-36.53
-47.49
-57.52
-64.46
-66.35
-62.10
-51.94
-37.32
-20.35
-3.25
11.96
23.56
30.10
30.81
25.96
17.12
6.91
-1.99
-7.80
-10.34
-10.82
-11.06
-12.42
-15.22
-18.73
-21.58
-22.46
-20.53
-15.53
-8.05
0.54
8.33
13.66
15.99
16.56
18.08
23.61
34.97
51.65
70.92
88.95
102.50
110.15
112.45
111.12
107.76
103.13
97.13
89.55
80.79
71.97
64.36
58.55
54.01
49.37
43.16
34.67
24.42
13.83
4.59
-2.01
-5.61
-6.76
-6.73
-7.00
-8.90
-13.19
-19.90
-28.34
-37.27
-45.32
-51.41
-55.02
-56.22
-55.60
-53.97
-52.22
-51.07
-50.98
-52.04
-54.00
-56.34
-58.51
-60.07
-60.77
-60.55
-59.47
-57.61
-55.12
-52.27
-49.49
-47.27
-45.95
-45.66
-46.13
-46.75
-46.69
-45.11
-41.36
-35.21
-26.93
-17.28
-7.31
1.80
8.97
13.47
15.08
14.22
12.01
10.00
9.74
12.29
17.86
25.81
35.03
44.44
53.32
61.38
68.46
74.25
78.19
79.58
77.92
73.09
65.48
55.80
44.99
34.07
24.04
15.70
9.54
5.59
3.40
2.17
1.01
-0.73
-3.37
-6.84
-10.79
-14.79
-18.39
-21.19
-22.90
-23.36
-22.71
-21.41
-20.26
-20.13
-21.63
-24.77
-28.83
-32.51
-34.39
-33.47
-29.53
-23.22
-15.77
-8.57
-2.57
1.88
5.07
7.57
9.81
11.93
13.67
14.75
15.12
15.08
15.20
16.03
17.79
20.25
22.81
24.72
25.41
24.66
22.82
20.71
19.36
19.66
22.02
26.21
31.38
36.33
39.79
40.60
37.94
31.50
21.64
9.57
-2.89
-13.78
-21.69
-26.20
-27.95
-28.14
-27.84
-27.63
-27.62
-27.86
-28.70
-30.76
-34.65
-40.35
-47.11
-53.61
-58.71
-61.99
-64.02
-66.06
-69.42
-74.87
-82.28
-90.75
-98.93
-105.50
-109.56
-111.01
-110.66
-110.18
-111.72
-117.16
-127.30
-141.17
-156.07
-168.30
-174.63
-173.55
-165.92
-154.42
-142.08
-130.72
-119.92
-107.32
-89.67
-64.55
-31.59
7.08
47.41
84.72
114.92
135.47
145.70
146.68
140.81
131.14
120.70
111.78
105.55
101.86
99.61
97.25
93.50
87.73
80.06
71.14
61.80
52.86
45.04
39.03
35.39
34.36
35.64
38.32
41.12
42.89
42.99
41.62
39.57
37.83
37.09
37.43
38.33
39.03
38.93
37.89
36.19
34.36
32.77
31.44
30.07
28.21
25.53
22.00
17.85
13.41
8.96
4.60
0.27
-4.23
-9.10
-14.45
-20.12
-25.66
-30.42
-33.73
-35.25
-35.11
-33.89
-32.26
-30.61
-28.88
-26.67
-23.56
-19.56
-15.21
-11.44
-9.19
-9.00
-10.87
-14.35
-18.85
-23.88
-29.05
-33.92
-37.59
-38.67
-35.54
-26.98
-12.83
5.66
26.02
45.40
61.42
72.81
79.44
81.82
80.49
75.72
67.64
56.73
44.14
31.67
21.24
14.26
11.13
11.22
13.28
15.97
18.36
20.09
21.24
22.08
22.79
23.29
23.21
22.04
19.28
14.73
8.70
1.96
-4.44
-9.54
-12.84
-14.45
-14.90
-14.81
-14.44
-13.64
-11.97
-9.19
-5.49
-1.58
1.66
3.59
4.08
3.56
2.69
1.93
1.35
0.58
-0.90
-3.49
-7.17
-11.48
-15.65
-18.90
-20.66
-20.69
-19.10
-16.18
-12.26
-7.65
-2.65
2.45
7.28
11.48
14.81
17.18
18.77
19.83
20.65
21.42
22.30
23.48
25.17
27.61
30.81
34.51
38.17
41.19
43.21
44.28
44.91
45.71
47.07
48.94
50.88
52.27
52.68
52.17
51.15
50.26
50.00
50.51
51.60
52.86
53.87
54.34
54.23
53.60
52.61
51.29
49.53
47.19
44.15
40.47
36.21
31.56
26.71
22.10
18.21
15.55
14.57
15.39
17.65
20.32
22.41
23.13
22.98
23.15
25.21
30.38
38.80
49.54
60.55
70.34
78.09
84.74
91.61
99.88
109.84
120.43
129.69
134.81
134.23
127.04
114.05
96.38
75.82
55.07
37.59
27.27
26.65
37.61
50.88
57.50
50.60
29.33
-0.68
-31.78
-52.80
-65.19
-73.58
-82.29
-92.04
-101.08
-108.08
-110.93
-109.06
-103.58
-97.33
-91.73
-87.14
-82.14
-75.19
-65.32
-52.33
-37.11
-20.93
-5.50
8.74
21.64
33.40
43.65
51.70
56.93
58.99
58.10
54.69
50.03
45.09
40.17
34.45
26.39
14.63
-1.27
-20.17
-39.72
-56.83
-69.35
-77.17
-82.52
-89.11
-100.67
-119.81
-147.11
-181.06
-218.03
-252.88
-279.82
-293.75
-291.80
-274.69
-246.91
-215.57
-187.91
-168.75
-159.07
-156.29
-155.98
-154.17
-148.75
-139.75
-128.38
-115.78
-102.22
-87.09
-69.59
-49.56
-27.92
-6.38
13.28
29.92
43.44
54.51
64.03
72.50
79.87
85.67
89.46
91.31
91.94
92.48
94.10
97.43
102.22
107.37
111.19
112.11
109.24
102.81
94.13
84.98
76.83
70.22
64.61
58.76
51.52
42.40
31.75
20.50
9.59
-0.36
-9.19
-16.95
-23.60
-28.92
-32.52
-34.17
-33.99
-32.50
-30.49
-28.78
-27.94
-28.19
-29.35
-30.97
-32.50
-33.49
-33.78
-33.47
-32.95
-32.62
-32.77
-33.49
-34.60
-35.82
-36.89
-37.75
-38.56
-39.55
-40.85
-42.30
-43.41
-43.58
-42.34
-39.57
-35.56
-30.79
-25.77
-20.84
-16.19
-11.78
-7.45
-2.84
2.52
9.00
16.69
25.21
33.76
41.38
47.26
51.00
52.60
52.19
49.83
45.41
38.84
30.33
20.59
10.79
2.30
-3.73
-6.71
-6.74
-4.58
-1.40
1.56
3.35
3.49
2.08
-0.34
-2.99
-5.15
-6.36
-6.45
-5.54
-3.83
-1.57
1.01
3.69
6.23
8.43
10.19
11.57
12.74
13.83
14.88
15.79
16.42
16.74
16.85
16.94
17.16
17.51
17.84
18.01
17.93
17.70
17.44
17.26
17.16
17.02
16.72
16.21
15.51
14.71
13.88
13.09
12.42
11.89
11.47
10.95
9.84
7.46
3.20
-3.20
-11.28
-19.93
-27.63
-32.95
-35.10
-34.12
-30.73
-25.93
-20.58
-15.19
-9.97
-5.05
-0.63
2.99
5.59
7.20
8.18
8.99
10.04
11.39
12.82
13.88
14.20
13.59
12.20
10.35
8.41
6.67
5.25
4.12
3.17
2.33
1.57
0.91
0.40
0.05
-0.19
-0.47
-0.99
-1.95
-3.48
-5.55
-7.84
-9.79
-10.75
-10.18
-7.89
-4.14
0.46
5.16
9.36
12.72
15.16
16.74
17.50
17.42
16.48
14.74
12.43
9.86
7.37
5.18
3.26
1.46
-0.47
-2.66
-5.03
-7.28
-8.97
-9.77
-9.51
-8.31
-6.54
-4.67
-3.10
-2.10
-1.76
-2.02
-2.70
-3.61
-4.54
-5.40
-6.16
-6.92
-7.79
-8.93
-10.47
-12.51
-15.11
-18.25
-21.78
-25.38
-28.53
-30.65
-31.19
-29.84
-26.68
-22.18
-17.06
-12.10
-7.86
-4.59
-2.19
-0.38
1.20
2.75
4.31
5.81
7.10
8.08
8.76
9.20
9.47
9.66
9.81
9.95
10.06
10.12
10.06
9.82
9.37
8.72
7.96
7.19
6.47
5.80
5.10
4.22
3.06
1.60
-0.06
-1.78
-3.42
-4.93
-6.36
-7.82
-9.44
-11.28
-13.33
-15.51
-17.65
-19.52
-20.92
-21.62
-21.51
-20.56
-18.85
-16.52
-13.76
-10.75
-7.70
-4.78
-2.15
0.09
1.87
3.22
4.21
4.94
5.52
6.07
6.65
7.29
7.99
8.70
9.36
9.89
10.18
10.13
9.65
8.73
7.51
6.23
5.11
4.28
3.62
2.87
1.79
0.26
-1.56
-3.39
-4.97
-6.21
-7.26
-8.39
-9.82
-11.59
-13.47
-15.13
-16.20
-16.45
-15.84
-14.46
-12.54
-10.25
-7.72
-5.02
-2.20
0.66
3.39
5.76
7.59
8.74
9.25
9.29
9.15
9.09
9.27
9.70
10.21
10.63
10.78
10.62
10.22
9.68
9.11
8.50
7.79
6.92
5.84
4.60
3.25
1.85
0.44
-1.00
-2.54
-4.23
-6.10
-8.14
-10.30
-12.53
-14.74
-16.85
-18.75
-20.34
-21.53
-22.26
-22.52
-22.31
-21.63
-20.43
-18.66
-16.31
-13.55
-10.76
-8.46
-7.23
-7.40
-8.84
-10.97
-12.95
-14.07
-14.10
-13.44
-13.00
-13.79
-16.33
-20.42
-25.12
-29.16
-31.45
-31.56
-29.93
-27.72
-26.63
-28.34
-34.00
-43.49
-54.85
-64.05
-65.64
-54.31
-26.90
15.89
69.18
125.10
175.33
213.72
238.07
250.12
254.15
254.83
255.41
256.86
258.08
257.06
251.95
241.96
227.64
210.60
193.04
177.40
166.35
162.63
168.54
184.89
209.95
239.01
265.31
282.09
284.95
273.41
250.78
222.55
194.13
169.06
148.45
131.36
115.83
99.83
81.67
60.31
35.48
7.69
-21.93
-51.99
-81.54
-110.27
-138.66
-167.70
-198.57
-232.32
-269.50
-309.75
-351.26
-390.61
-423.15
-444.37
-451.53
-444.92
-427.82
-405.00
-380.56
-356.14
-330.70
-301.71
-267.16
-227.07
-183.53
-139.55
-97.38
-57.48
-18.60
21.02
62.22
103.99
143.51
177.38
203.12
220.18
229.91
234.42
234.95
230.83
219.64
198.75
167.20
126.92
82.39
38.93
0.46
-32.09
-60.81
-89.88
-123.93
-166.53
-218.98
-279.45
-342.68
-400.66
-444.58
-467.45
-466.60
-444.57
-407.92
-364.52
-320.68
-279.44
-240.87
-203.58
-166.18
-127.91
-88.28
-46.69
-2.66
43.21
88.47
129.08
160.87
181.15
190.02
190.22
185.78
180.28
175.54
171.68
167.94
163.57
158.30
152.12
144.77
135.58
123.76
108.79
91.17
72.46
54.85
40.37
29.97
23.39
19.43
16.55
12.79
7.04
-0.84
-10.32
-20.72
-31.51
-42.07
-51.25
-57.39
-60.46
-61.33
-61.69
-63.21
-66.52
-70.71
-73.36
-71.31
-62.17
-48.28
-34.45
-26.36
-28.02
-40.48
-61.89
-88.64
-116.59
-142.35
-167.46
-195.24
-228.82
-268.85
-312.96
-356.95
-396.78
-429.85
-435.00
-398.82
-319.06
-208.04
-86.20
28.42
126.24
205.25
267.25
314.99
347.60
364.36
365.88
355.79
339.84
323.81
311.60
304.69
302.54
300.64
295.05
283.02
264.84
243.22
221.61
202.66
187.55
176.02
165.28
152.44
135.11
113.02
87.82
61.89
37.18
14.42
-7.13
-30.49
-55.36
-83.00
-114.35
-149.81
-188.98
-230.03
-269.05
-300.19
-317.22
-315.41
-294.08
-256.45
-208.81
-158.32
-110.91
-69.91
-36.17
-9.04
12.50
28.66
39.65
45.92
48.38
48.18
46.13
42.45
36.82
28.84
18.21
5.43
-8.32
-21.58
-33.08
-42.05
-48.23
-51.75
-52.93
-52.32
-50.39
-47.40
-43.13
-36.63
-26.45
-11.08
10.34
37.57
69.31
103.75
139.21
174.28
207.69
237.87
262.87
280.95
291.22
293.96
290.41
282.25
270.56
255.55
236.43
211.97
181.29
143.90
99.81
49.56
-5.36
-62.41
-117.84
-167.57
-207.93
-236.19
-251.07
-252.93
-243.74
-226.48
-204.87
-182.44
-162.32
-148.49
-143.44
-146.63
-154.95
-165.06
-173.56
-179.86
-183.74
-184.73
-182.30
-175.68
-165.53
-152.76
-138.59
-123.91
-109.08
-93.56
-76.59
-57.67
-36.77
-14.49
8.17
30.11
50.73
70.08
89.02
108.73
130.35
154.78
182.33
212.29
242.42
269.17
288.47
297.17
294.26
281.31
261.99
240.52
220.09
201.89
185.29
168.91
151.79
134.07
116.73
101.01
87.68
76.79
67.69
59.50
51.45
43.19
34.88
27.06
20.37
15.19
11.41
8.39
5.26
1.57
-2.34
-5.36
-6.22
-4.50
-1.19
1.62
1.81
-1.49
-7.28
-13.32
-17.39
-18.49
-17.20
-14.97
-13.00
-11.45
-9.58
-6.65
-2.85
0.55
1.86
0.02
-4.80
-11.31
-17.97
-23.97
-29.53
-35.72
-43.70
-54.01
-66.25
-79.14
-91.08
-100.64
-107.03
-110.07
-110.06
-107.49
-102.77
-96.26
-88.32
-79.42
-70.28
-61.73
-54.55
-49.21
-45.72
-43.60
-42.14
-40.61
-38.53
-35.79
-32.61
-29.32
-26.24
-23.51
-20.99
-18.44
-15.56
-12.27
-8.73
-5.33
-2.53
-0.72
-0.04
-0.40
-1.45
-2.73
-3.70
-3.92
-3.10
-1.24
1.39
4.21
6.56
7.91
8.06
7.25
6.06
5.23
5.31
6.52
8.68
11.37
14.10
16.51
18.45
19.92
20.92
21.44
21.40
20.80
19.71
18.35
16.97
15.73
14.64
13.53
12.25
10.76
9.15
7.62
6.34
5.34
4.53
3.75
2.85
1.77
0.51
-0.91
-2.45
-4.01
-5.47
-6.68
-7.46
-7.81
-7.84
-7.77
-7.82
-8.12
-8.69
-9.37
-9.95
-10.12
-9.61
-8.21
-5.84
-2.61
1.21
5.14
8.69
11.41
13.07
13.72
13.74
13.74
14.44
16.32
19.46
23.41
27.31
30.25
31.66
31.69
31.24
31.72
34.40
39.80
47.25
54.95
60.61
62.34
59.61
53.56
46.56
41.13
38.67
38.58
38.47
35.26
26.50
11.53
-8.25
-29.95
-50.03
-65.13
-72.66
-71.23
-61.39
-46.37
-31.96
-25.04
-30.78
-49.71
-76.74
-102.70
-118.24
-117.95
-102.52
-77.81
-51.53
-29.62
-14.26
-4.45
1.96
6.28
8.23
6.90
2.18
-4.53
-10.77
-14.17
-13.80
-10.59
-6.89
-5.30
-7.35
-12.97
-20.60
-28.07
-33.65
-36.77
-38.15
-39.39
-42.06
-47.09
-54.32
-62.73
-70.84
-77.32
-81.39
-83.15
-83.58
-84.47
-88.01
-96.13
-109.46
-126.63
-144.16
-157.23
-161.28
-153.51
-133.60
-103.26
-65.17
-22.03
23.59
68.80
109.96
143.04
164.89
174.62
174.17
167.53
159.04
151.58
145.95
141.32
136.45
130.59
123.83
116.65
109.43
102.20
94.81
87.22
79.57
72.00
64.53
56.95
49.03
40.74
32.41
24.61
17.92
12.74
9.14
7.03
6.18
6.33
7.07
7.89
8.29
8.06
7.54
7.63
9.40
13.70
20.62
29.42
38.72
46.97
52.92
55.84
55.52
52.27
46.71
39.76
32.56
26.21
21.53
18.78
17.67
17.59
17.90
18.24
18.57
19.05
19.82
20.80
21.70
22.09
21.64
20.06
17.20
12.99
7.54
1.32
-4.73
-9.33
-11.25
-9.92
-5.86
-0.72
3.32
4.43
1.82
-3.91
-11.17
-18.16
-23.57
-26.99
-28.70
-29.28
-29.26
-28.90
-28.30
-27.57
-26.89
-26.42
-26.21
-26.05
-25.59
-24.49
-22.58
-19.92
-16.78
-13.40
-10.01
-6.69
-3.44
-0.40
2.14
3.68
3.72
1.94
-1.48
-5.81
-9.97
-12.88
-13.87
-12.94
-10.71
-8.09
-5.91
-4.60
-4.16
-4.28
-4.55
-4.63
-4.26
-3.27
-1.62
0.60
3.10
5.49
7.37
8.51
8.94
8.87
8.56
8.20
7.89
7.63
7.49
7.56
7.96
8.69
9.54
10.15
10.15
9.38
7.89
6.00
4.04
2.24
0.66
-0.83
-2.35
-3.96
-5.58
-7.07
-8.29
-9.23
-9.94
-10.57
-11.23
-12.01
-12.93
-13.94
-14.98
-15.99
-16.95
-17.91
-18.90
-19.88
-20.65
-20.90
-20.33
-18.77
-16.32
-13.30
-10.17
-7.32
-4.94
-3.05
-1.53
-0.24
0.89
1.86
2.64
3.19
3.50
3.61
3.57
3.47
3.37
3.35
3.46
3.71
4.11
4.63
5.22
5.83
6.36
6.77
7.03
7.17
7.32
7.64
8.26
9.19
10.26
11.17
11.59
11.36
10.46
9.08
7.46
5.85
4.44
3.45
3.08
3.49
4.56
5.81
6.49
5.88
3.65
0.18
-3.61
-6.61
-8.03
-7.71
-6.14
-4.17
-2.54
-1.63
-1.42
-1.63
-1.95
-2.22
-2.41
-2.56
-2.70
-2.78
-2.73
-2.46
-1.94
-1.23
-0.52
-0.01
0.03
-0.52
-1.68
-3.28
-5.13
-7.03
-8.86
-10.62
-12.34
-14.04
-15.72
-17.37
-19.03
-20.80
-22.77
-24.91
-27.02
-28.72
-29.60
-29.43
-28.26
-26.43
-24.45
-22.72
-21.36
-20.08
-18.26
-15.14
-10.16
-3.16
5.45
14.82
23.89
31.75
37.85
42.09
44.74
46.17
46.70
46.49
45.59
44.05
42.02
39.71
37.37
35.16
33.12
31.19
29.23
27.10
24.72
22.04
19.05
15.73
12.14
8.40
4.68
1.17
-1.99
-4.77
-7.31
-9.78
-12.32
-14.92
-17.43
-19.59
-21.17
-22.08
-22.38
-22.25
-21.82
-21.13
-20.14
-18.78
-17.06
-15.13
-13.18
-11.45
-10.04
-8.94
-8.03
-7.18
-6.37
-5.63
-5.07
-4.75
-4.60
-4.48
-4.24
-3.81
-3.24
-2.67
-2.27
-2.15
-2.38
-2.97
-3.88
-5.03
-6.24
-7.30
-7.98
-8.18
-7.93
-7.44
-6.96
-6.71
-6.79
-7.17
-7.78
-8.57
-9.57
-10.85
-12.48
-14.40
-16.43
-18.28
-19.60
-20.10
-19.61
-18.13
-15.80
-12.92
-9.84
-7.05
-5.02
-4.20
-4.75
-6.49
-8.78
-10.78
-11.66
-11.04
-9.05
-6.32
-3.64
-1.59
-0.36
0.32
0.98
2.18
4.38
7.77
12.32
17.70
23.33
28.39
32.05
33.70
33.17
30.81
27.34
23.56
20.15
17.49
15.74
14.86
14.69
14.97
15.33
15.35
14.67
13.17
11.01
8.58
6.41
4.92
4.27
4.37
4.90
5.48
5.79
5.70
5.30
4.82
4.58
4.76
5.37
6.22
7.01
7.53
7.66
7.51
7.25
7.05
6.95
6.91
6.83
6.66
6.43
6.22
6.09
6.04
6.02
5.94
5.75
5.42
4.98
4.49
4.02
3.58
3.18
2.78
2.31
1.70
0.93
0.01
-0.98
-1.98
-2.94
-3.84
-4.71
-5.57
-6.42
-7.28
-8.16
-9.03
-9.75
-10.11
-9.91
-9.00
-7.50
-5.72
-4.09
-2.93
-2.35
-2.14
-1.93
-1.31
-0.04
1.90
4.36
7.07
9.77
12.23
14.31
15.94
17.13
17.87
18.20
18.11
17.58
16.62
15.38
14.08
13.07
12.65
13.00
14.15
16.01
18.43
21.17
23.79
25.49
25.18
21.83
14.95
4.92
-6.95
-18.94
-29.51
-37.89
-44.15
-48.82
-52.32
-54.66
-55.39
-54.04
-50.54
-45.40
-39.56
-33.93
-29.11
-25.16
-21.75
-18.44
-14.99
-11.49
-8.31
-5.87
-4.41
-3.85
-3.83
-3.83
-3.45
-2.53
-1.19
0.28
1.58
2.52
3.06
3.24
3.09
2.61
1.79
0.64
-0.75
-2.20
-3.54
-4.68
-5.63
-6.52
-7.54
-8.78
-10.21
-11.65
-12.77
-13.17
-12.53
-10.70
-7.83
-4.42
-1.19
1.14
2.04
1.45
-0.27
-2.41
-4.22
-5.19
-5.18
-4.40
-3.29
-2.23
-1.47
-1.03
-0.80
-0.65
-0.48
-0.30
-0.13
-0.00
0.09
0.19
0.31
0.38
0.29
-0.01
-0.54
-1.21
-1.95
-2.70
-3.55
-4.65
-6.16
-8.17
-10.60
-13.22
-15.61
-17.29
-17.79
-16.84
-14.45
-10.96
-6.97
-3.09
0.21
2.75
4.64
6.07
7.23
8.17
8.87
9.31
9.52
9.62
9.71
9.83
9.91
9.86
9.60
9.15
8.59
8.03
7.49
6.92
6.16
5.09
3.71
2.15
0.61
-0.76
-1.96
-3.12
-4.46
-6.11
-8.06
-10.19
-12.26
-14.07
-15.42
-16.13
-16.03
-15.02
-13.10
-10.44
-7.37
-4.26
-1.43
0.96
2.93
4.57
5.98
7.18
8.15
8.79
9.08
9.07
8.90
8.80
8.96
9.49
10.30
11.13
11.64
11.52
10.68
9.24
7.53
5.95
4.82
4.30
4.32
4.68
5.14
5.44
5.41
4.98
4.09
2.75
1.04
-0.87
-2.68
-3.99
-4.41
-3.69
-1.82
0.92
4.07
7.08
9.48
11.03
11.71
11.68
11.18
10.43
9.55
8.57
7.48
6.30
5.11
4.04
3.18
2.54
2.05
1.58
1.07
0.56
0.14
-0.10
-0.19
-0.22
-0.41
-0.90
-1.79
-3.06
-4.60
-6.21
-7.73
-9.03
-10.11
-11.08
-12.17
-13.60
-15.45
-17.57
-19.59
-21.01
-21.43
-20.71
-18.99
-16.62
-13.94
-11.18
-8.40
-5.62
-2.85
-0.18
2.27
4.40
6.15
7.52
8.47
8.96
8.99
8.66
8.16
7.76
7.61
7.71
7.86
7.80
7.32
6.42
5.27
4.19
3.49
3.39
3.90
4.85
5.94
6.83
7.29
7.17
6.52
5.41
3.88
1.90
-0.70
-4.02
-8.05
-12.50
-16.87
-20.50
-22.83
-23.52
-22.58
-20.28
-17.03
-13.22
-9.14
-4.98
-0.92
2.84
6.06
8.52
10.10
10.89
11.11
11.09
11.13
11.40
11.92
12.58
13.21
13.65
13.81
13.71
13.44
13.13
12.86
12.64
12.39
11.99
11.30
10.22
8.75
6.96
5.00
3.03
1.17
-0.51
-2.03
-3.51
-5.04
-6.74
-8.64
-10.68
-12.76
-14.75
-16.48
-17.79
-18.50
-18.42
-17.44
-15.53
-12.85
-9.67
-6.34
-3.20
-0.43
1.90
3.81
5.33
6.43
7.12
7.45
7.58
7.69
7.92
8.26
8.59
8.76
8.71
8.51
8.33
8.27
8.31
8.30
8.05
7.44
6.46
5.21
3.84
2.45
1.09
-0.20
-1.41
-2.52
-3.58
-4.65
-5.91
-7.49
-9.44
-11.58
-13.54
-14.83
-15.00
-13.86
-11.54
-8.49
-5.28
-2.38
0.02
1.93
3.55
5.02
6.34
7.43
8.18
8.55
8.62
8.54
8.44
8.37
8.32
8.20
7.96
7.56
7.05
6.54
6.10
5.79
5.54
5.21
4.57
3.48
1.93
0.10
-1.69
-3.21
-4.34
-5.23
-6.16
-7.40
-9.07
-11.05
-13.07
-14.76
-15.82
-16.02
-15.28
-13.62
-11.18
-8.21
-5.00
-1.87
0.94
3.29
5.16
6.59
7.68
8.48
9.01
9.26
9.21
8.89
8.35
7.70
7.04
6.46
6.03
5.75
5.58
5.48
5.35
5.08
4.53
3.60
2.25
0.58
-1.20
-2.86
-4.24
-5.34
-6.32
-7.43
-8.87
-10.65
-12.58
-14.35
-15.67
-16.31
-16.15
-15.18
-13.40
-10.89
-7.80
-4.42
-1.11
1.78
4.04
5.63
6.72
7.48
8.07
8.50
8.66
8.48
7.96
7.24
6.53
6.03
5.80
5.74
5.69
5.50
5.15
4.69
4.23
3.82
3.36
2.69
1.67
0.25
-1.43
-3.16
-4.73
-6.02
-7.09
-8.09
-9.21
-10.52
-11.93
-13.19
-13.95
-13.93
-13.05
-11.41
-9.31
-7.09
-5.01
-3.15
-1.44
0.22
1.88
3.47
4.83
5.80
6.28
6.33
6.13
5.92
5.89
6.12
6.50
6.86
6.99
6.82
6.41
5.91
5.45
5.10
4.72
4.13
3.15
1.78
0.15
-1.48
-2.85
-3.86
-4.55
-5.13
-5.86
-6.95
-8.49
-10.40
-12.45
-14.29
-15.56
-15.95
-15.31
-13.66
-11.19
-8.27
-5.26
-2.50
-0.17
1.66
3.10
4.29
5.35
6.30
7.08
7.56
7.66
7.39
6.92
6.45
6.17
6.15
6.31
6.48
6.52
6.36
6.09
5.81
5.59
5.36
4.97
4.29
3.27
2.03
0.74
-0.43
-1.42
-2.30
-3.21
-4.26
-5.57
-7.16
-8.99
-10.97
-12.93
-14.59
-15.60
-15.67
-14.65
-12.70
-10.15
-7.44
-4.92
-2.70
-0.73
1.15
2.98
4.67
6.02
6.84
7.10
6.99
6.81
6.84
7.16
7.63
7.99
8.01
7.63
6.95
6.20
5.57
5.15
4.85
4.50
3.90
2.98
1.78
0.44
-0.83
-1.91
-2.72
-3.31
-3.81
-4.38
-5.15
-6.20
-7.56
-9.18
-10.93
-12.65
-14.12
-15.06
-15.22
-14.42
-12.61
-9.96
-6.83
-3.64
-0.79
1.49
3.19
4.42
5.39
6.22
6.99
7.69
8.31
8.84
9.30
9.71
10.05
10.26
10.32
10.23
10.05
9.87
9.77
9.80
9.90
10.00
9.97
9.74
9.27
8.61
7.83
7.01
6.21
5.41
4.59
3.70
2.75
1.78
0.86
0.17
-0.12
0.19
1.25
3.08
5.66
8.86
12.57
16.73
21.31
26.28
31.53
36.91
42.15
47.03
51.38
55.09
58.08
60.32
61.84
62.87
63.92
65.78
69.25
74.63
81.16
86.91
89.15
85.19
73.42
53.90
28.40
-0.15
-28.61
-54.32
-75.45
-91.07
-100.85
-104.98
-104.10
-99.31
-92.08
-84.05
-76.63
-70.76
-66.74
-64.28
-62.72
-61.31
-59.42
-56.76
-53.35
-49.38
-45.12
-40.74
-36.30
-31.78
-27.22
-22.71
-18.43
-14.54
-11.09
-8.05
-5.37
-2.98
-0.86
0.96
2.50
3.87
5.25
6.77
8.41
9.92
10.95
11.17
10.45
8.93
6.97
4.98
3.31
2.13
1.42
1.11
1.05
1.10
1.11
0.96
0.54
-0.16
-1.08
-2.10
-3.11
-4.05
-4.97
-5.99
-7.20
-8.57
-9.95
-11.07
-11.68
-11.60
-10.82
-9.40
-7.49
-5.29
-2.99
-0.75
1.28
3.02
4.48
5.72
6.82
7.79
8.56
9.07
9.25
9.11
8.75
8.28
7.78
7.30
6.85
6.45
6.14
5.91
5.69
5.36
4.82
4.03
3.06
2.04
1.11
0.32
-0.36
-0.99
-1.64
-2.33
-3.05
-3.80
-4.63
-5.63
-6.92
-8.53
-10.31
-11.91
-12.91
-12.96
-11.92
-9.97
-7.51
-5.01
-2.82
-1.06
0.30
1.40
2.32
3.09
3.65
4.00
4.17
4.25
4.32
4.41
4.49
4.44
4.16
3.57
2.69
1.65
0.67
0.03
-0.09
0.35
1.20
2.21
3.14
3.84
4.27
4.47
4.52
4.45
4.28
3.99
3.59
3.01
2.21
1.11
-0.34
-2.12
-4.16
-6.24
-8.09
-9.40
-9.90
-9.47
-8.21
-6.38
-4.38
-2.54
-1.05
0.14
1.20
2.31
3.52
4.73
5.74
6.43
6.75
6.82
6.84
7.01
7.44
8.15
9.08
10.10
11.13
12.07
12.90
13.59
14.11
14.48
14.71
14.86
14.99
15.15
15.39
15.71
16.07
16.51
17.16
18.26
20.09
22.75
25.98
29.15
31.36
31.76
29.85
25.71
19.90
13.12
5.98
-1.27
-8.70
-16.53
-24.94
-34.02
-43.79
-54.11
-64.56
-74.26
-81.85
-85.86
-85.25
-79.99
-71.31
-61.33
-52.34
-45.98
-42.69
-41.80
-42.01
-42.03
-41.03
-38.75
-35.36
-31.16
-26.46
-21.61
-16.98
-12.97
-9.95
-8.11
-7.35
-7.35
-7.74
-8.27
-8.95
-10.02
-11.83
-14.55
-17.93
-21.20
-23.17
-22.51
-18.25
-10.19
0.82
13.10
24.56
33.44
38.91
41.40
42.21
43.01
44.90
47.92
50.94
52.20
50.15
44.16
34.82
23.67
12.63
3.19
-3.86
-8.49
-11.08
-12.09
-11.94
-10.91
-9.33
-7.50
-5.66
-3.94
-2.26
-0.59
0.92
1.93
2.06
1.19
-0.22
-1.20
-0.56
2.63
8.59
16.66
25.45
33.30
38.77
41.06
40.20
36.98
32.65
28.46
25.31
23.45
22.53
21.85
20.85
19.47
18.20
17.91
19.30
22.61
27.41
32.81
37.84
41.70
43.99
44.55
43.49
41.24
38.85
37.77
39.15
42.86
46.86
47.66
41.65
27.00
4.74
-21.40
-46.51
-66.49
-79.34
-85.32
-85.99
-82.93
-77.01
-68.51
-57.68
-45.24
-32.52
-20.97
-11.63
-4.85
-0.30
2.79
5.11
6.99
8.26
8.39
6.88
3.58
-1.14
-6.52
-11.65
-15.83
-18.77
-20.50
-21.28
-21.26
-20.48
-18.81
-16.16
-12.63
-8.58
-4.49
-0.84
2.10
4.28
5.78
6.75
7.31
7.60
7.72
7.78
7.87
8.03
8.28
8.60
8.95
9.32
9.68
9.92
9.91
9.49
8.50
6.88
4.63
1.87
-1.21
-4.29
-7.02
-9.02
-10.08
-10.19
-9.64
-8.91
-8.53
-8.90
-10.12
-12.01
-14.13
-15.97
-17.09
-17.26
-16.51
-15.06
-13.24
-11.33
-9.53
-7.93
-6.59
-5.60
-5.08
-5.15
-5.73
-6.55
-7.15
-7.05
-5.94
-3.79
-0.84
2.57
6.14
9.70
13.15
16.37
19.11
21.04
21.84
21.31
19.41
16.26
12.04
6.97
1.34
-4.47
-9.99
-14.75
-18.51
-21.27
-23.39
-25.37
-27.66
-30.35
-33.11
-35.26
-35.95
-34.46
-30.38
-23.72
-14.95
-4.91
5.39
15.02
23.33
30.08
35.31
39.14
41.48
41.97
40.15
35.73
29.00
20.82
12.54
5.53
0.81
-1.16
-0.56
2.00
5.60
9.24
12.03
13.34
12.96
11.12
8.31
5.07
1.84
-1.18
-3.97
-6.57
-9.02
-11.27
-13.20
-14.69
-15.64
-15.97
-15.59
-14.44
-12.53
-9.90
-6.80
-3.55
-0.56
1.82
3.43
4.32
4.69
4.78
4.76
4.65
4.41
4.02
3.58
3.22
3.08
3.20
3.46
3.68
3.74
3.63
3.51
3.56
3.90
4.51
5.17
5.64
5.70
5.27
4.43
3.37
2.33
1.49
0.93
0.53
0.06
-0.74
-1.98
-3.47
-4.70
-5.03
-4.05
-1.74
1.50
5.14
8.91
12.71
16.36
19.21
20.13
17.93
12.19
3.81
-5.18
-12.38
-16.23
-16.62
-14.75
-12.38
-10.70
-9.97
-9.61
-8.94
-7.73
-6.34
-5.46
-5.53
-6.53
-8.03
-9.43
-10.37
-10.92
-11.49
-12.59
-14.43
-16.78
-18.99
-20.24
-19.99
-18.19
-15.32
-12.12
-9.21
-6.72
-4.34
-1.49
2.28
7.00
12.23
17.21
21.19
23.79
25.04
25.37
25.27
25.07
24.76
24.06
22.56
20.08
16.76
13.12
9.79
7.28
5.77
5.17
5.30
6.00
7.18
8.66
9.99
10.44
9.25
5.99
0.92
-5.03
-10.59
-14.70
-16.89
-17.50
-17.38
-17.53
-18.64
-20.85
-23.76
-26.62
-28.56
-28.77
-26.68
-22.01
-14.87
-5.79
4.33
14.32
23.02
29.52
33.39
34.72
33.98
31.84
28.96
25.88
23.02
20.71
19.19
18.49
18.38
18.31
17.62
15.84
12.97
9.56
6.52
4.73
4.63
5.98
8.04
9.99
11.33
12.20
13.27
15.35
19.05
24.49
31.20
37.99
42.90
43.33
36.83
22.10
0.01
-26.13
-51.43
-71.14
-82.36
-84.97
-81.14
-73.89
-65.56
-57.05
-48.15
-38.44
-28.15
-18.21
-9.74
-3.38
1.03
4.24
7.12
10.30
14.02
18.34
23.33
29.17
36.01
43.67
51.51
58.55
63.75
66.37
66.20
63.53
58.95
53.18
46.80
40.34
34.17
28.57
23.66
19.39
15.46
11.47
6.94
1.57
-4.62
-11.29
-17.75
-23.17
-26.82
-28.29
-27.63
-25.34
-22.14
-18.68
-15.34
-12.17
-9.05
-5.96
-3.19
-1.24
-0.63
-1.51
-3.48
-5.64
-6.96
-6.71
-4.83
-1.89
1.16
3.41
4.37
4.07
2.92
1.43
-0.01
-1.27
-2.35
-3.24
-3.83
-3.90
-3.26
-1.95
-0.25
1.36
2.36
2.41
1.42
-0.41
-2.76
-5.27
-7.68
-9.79
-11.38
-12.25
-12.21
-11.16
-9.19
-6.58
-3.69
-0.93
1.45
3.35
4.86
6.16
7.44
8.73
9.96
10.96
11.58
11.81
11.79
11.78
11.98
12.46
13.13
13.79
14.23
14.35
14.18
13.82
13.35
12.77
12.06
11.15
10.02
8.65
7.06
5.22
3.13
0.80
-1.67
-4.07
-6.14
-7.64
-8.48
-8.74
-8.69
-8.65
-8.86
-9.39
-10.09
-10.69
-10.93
-10.59
-9.61
-8.03
-5.98
-3.63
-1.19
1.16
3.26
5.06
6.58
7.87
8.97
9.90
10.64
11.24
11.72
12.13
12.50
12.83
13.05
13.09
12.86
12.22
10.99
8.99
6.13
2.45
-1.86
-6.48
-11.10
-15.48
-19.43
-22.83
-25.56
-27.52
-28.68
-29.14
-29.17
-29.07
-29.19
-29.79
-30.97
-32.67
-34.59
-36.28
-37.14
-36.56
-34.04
-29.33
-22.54
-14.14
-4.91
4.27
12.55
19.35
24.38
27.64
29.31
29.60
28.68
26.70
23.80
20.20
16.21
12.21
8.49
5.25
2.44
-0.16
-2.83
-5.70
-8.57
-10.82
-11.61
-10.25
-6.58
-1.16
4.88
10.17
13.61
14.65
13.32
10.08
5.51
0.15
-5.64
-11.62
-17.62
-23.51
-29.13
-34.30
-38.80
-42.37
-44.72
-45.56
-44.56
-41.44
-36.04
-28.48
-19.28
-9.36
0.23
8.61
15.38
20.64
24.83
28.38
31.49
34.04
35.81
36.64
36.64
36.20
35.76
35.68
36.05
36.72
37.36
37.71
37.66
37.31
36.90
36.70
36.82
37.13
37.28
36.89
35.70
33.72
31.25
28.81
26.95
26.12
26.47
27.85
29.71
31.17
31.05
28.21
21.89
12.01
-0.55
-14.12
-26.64
-36.19
-41.62
-42.82
-40.70
-36.85
-32.98
-30.36
-29.58
-30.52
-32.60
-35.17
-37.80
-40.30
-42.56
-44.25
-44.75
-43.35
-39.63
-33.86
-26.99
-20.32
-14.94
-11.28
-9.04
-7.52
-6.09
-4.53
-3.06
-2.09
-1.87
-2.32
-3.07
-3.72
-4.07
-4.19
-4.35
-4.86
-5.86
-7.29
-8.88
-10.27
-11.22
-11.61
-11.57
-11.37
-11.31
-11.54
-11.99
-12.36
-12.28
-11.49
-9.95
-7.84
-5.50
-3.21
-1.12
0.77
2.55
4.24
5.70
6.70
7.04
6.70
5.91
5.09
4.62
4.70
5.25
6.02
6.68
7.01
6.93
6.52
5.87
5.11
4.30
3.50
2.70
1.93
1.18
0.46
-0.19
-0.73
-1.16
-1.54
-1.99
-2.62
-3.50
-4.60
-5.84
-7.11
-8.31
-9.38
-10.20
-10.61
-10.45
-9.63
-8.23
-6.45
-4.57
-2.82
-1.33
-0.09
0.95
1.89
2.74
3.50
4.12
4.56
4.80
4.86
4.80
4.71
4.65
4.67
4.75
4.79
4.74
4.55
4.28
4.03
3.86
3.75
3.61
3.29
2.70
1.83
0.75
-0.42
-1.56
-2.61
-3.53
-4.35
-5.12
-5.89
-6.77
-7.81
-9.07
-10.45
-11.79
-12.83
-13.35
-13.19
-12.34
-10.97
-9.28
-7.48
-5.71
-4.00
-2.31
-0.64
1.01
2.51
3.74
4.63
5.15
5.40
5.45
5.37
5.19
4.97
4.76
4.71
4.94
5.48
6.25
7.08
7.79
8.25
8.45
8.38
8.06
7.42
6.40
5.02
3.39
1.71
0.16
-1.14
-2.23
-3.26
-4.36
-5.62
-7.03
-8.55
-10.13
-11.69
-13.14
-14.31
-14.98
-14.91
-13.99
-12.26
-9.94
-7.34
-4.80
-2.50
-0.55
1.07
2.43
3.56
4.51
5.30
5.93
6.42
6.76
6.93
6.95
6.92
6.96
7.18
7.60
8.12
8.55
8.70
8.50
7.98
7.27
6.49
5.71
4.95
4.16
3.30
2.31
1.18
-0.07
-1.32
-2.38
-3.03
-3.21
-3.09
-3.06
-3.57
-4.91
-7.01
-9.47
-11.77
-13.38
-13.96
-13.34
-11.49
-8.62
-5.20
-2.03
-0.03
0.12
-1.68
-4.72
-7.77
-9.61
-9.61
-7.98
-5.60
-3.46
-2.21
-1.91
-2.25
-2.82
-3.49
-4.38
-5.69
-7.37
-9.00
-9.93
-9.54
-7.55
-4.19
-0.15
3.69
6.57
8.13
8.50
8.20
7.91
8.16
9.13
10.63
12.25
13.55
14.31
14.56
14.52
14.38
14.19
13.71
12.60
10.57
7.64
4.18
0.84
-1.67
-2.86
-2.54
-0.86
1.79
4.88
7.66
9.22
8.52
4.80
-1.97
-10.85
-20.02
-27.34
-31.07
-30.51
-26.18
-19.52
-12.27
-5.83
-0.95
2.27
4.22
5.44
6.49
7.82
9.71
12.21
15.15
18.19
20.95
23.12
24.57
25.27
25.26
24.55
23.12
20.94
18.08
14.71
11.06
7.31
3.55
-0.24
-4.05
-7.79
-11.22
-14.00
-15.85
-16.63
-16.39
-15.38
-14.01
-12.63
-11.56
-10.90
-10.57
-10.33
-9.92
-9.20
-8.24
-7.29
-6.67
-6.54
-6.81
-7.12
-7.01
-6.09
-4.30
-1.85
0.79
3.13
4.81
5.66
5.70
5.09
4.02
2.73
1.40
0.10
-1.11
-2.24
-3.27
-4.12
-4.67
-4.89
-4.90
-4.95
-5.42
-6.58
-8.47
-10.90
-13.47
-15.73
-17.40
-18.30
-18.45
-17.94
-16.91
-15.51
-13.89
-12.13
-10.29
-8.36
-6.35
-4.29
-2.35
-0.72
0.39
0.91
0.91
0.60
0.22
-0.04
-0.11
0.00
0.26
0.59
0.95
1.36
1.91
2.74
4.04
5.95
8.47
11.40
14.40
17.07
19.06
20.17
20.38
19.84
18.77
17.41
15.93
14.41
12.84
11.13
9.18
6.96
4.49
1.97
-0.38
-2.29
-3.58
-4.17
-4.19
-3.84
-3.34
-2.88
-2.51
-2.24
-2.04
-1.94
-1.95
-2.05
-2.17
-2.15
-1.87
-1.27
-0.45
0.46
1.33
2.19
3.18
4.48
6.27
8.58
11.32
14.34
17.43
20.39
23.00
25.11
26.66
27.69
28.35
28.85
29.35
29.91
30.48
30.93
31.11
30.88
30.06
28.44
25.81
22.12
17.59
12.82
8.55
5.47
3.87
3.53
3.89
4.30
4.36
4.03
3.57
3.19
2.94
2.60
1.86
0.54
-1.31
-3.45
-5.54
-7.40
-9.00
-10.44
-11.81
-13.15
-14.42
-15.60
-16.74
-17.94
-19.27
-20.70
-22.03
-22.99
-23.40
-23.25
-22.75
-22.23
-22.06
-22.46
-23.47
-24.91
-26.41
-27.63
-28.24
-28.12
-27.35
-26.19
-25.01
-24.13
-23.70
-23.66
-23.78
-23.73
-23.23
-22.07
-20.16
-17.54
-14.33
-10.65
-6.66
-2.48
1.78
6.01
10.06
13.77
17.00
19.64
21.67
23.12
24.04
24.51
24.57
24.25
23.60
22.68
21.61
20.57
19.71
19.11
18.75
18.51
18.16
17.53
16.51
15.16
13.65
12.15
10.74
9.39
8.03
6.58
5.06
3.57
2.22
0.98
-0.23
-1.63
-3.37
-5.52
-8.00
-10.61
-13.08
-15.15
-16.59
-17.21
-16.98
-15.95
-14.33
-12.37
-10.30
-8.22
-6.18
-4.17
-2.24
-0.48
0.97
2.03
2.71
3.08
3.26
3.35
3.44
3.59
3.85
4.22
4.66
5.03
5.23
5.17
4.87
4.38
3.79
3.13
2.41
1.64
0.80
-0.09
-1.04
-2.06
-3.19
-4.41
-5.71
-7.02
-8.27
-9.46
-10.59
-11.64
-12.55
-13.18
-13.36
-12.91
-11.75
-9.91
-7.49
-4.70
-1.81
0.95
3.37
5.34
6.84
7.91
8.62
9.04
9.24
9.30
9.30
9.30
9.31
9.31
9.26
9.16
9.03
8.94
8.90
8.89
8.80
8.52
8.00
7.28
6.54
5.94
5.59
5.42
5.24
4.79
3.93
2.69
1.25
-0.09
-1.13
-1.85
-2.39
-3.00
-3.86
-4.96
-6.03
-6.67
-6.45
-5.11
-2.60
0.85
4.82
8.76
12.16
14.63
15.97
16.20
15.50
14.13
12.41
10.53
8.51
6.19
3.28
-0.54
-5.41
-11.22
-17.51
-23.57
-28.58
-31.79
-32.73
-31.38
-28.12
-23.65
-18.81
-14.34
-10.78
-8.38
-7.18
-7.06
-7.78
-9.01
-10.34
-11.31
-11.53
-10.74
-8.98
-6.58
-4.03
-1.98
-0.96
-1.26
-2.86
-5.37
-8.14
-10.50
-12.02
-12.61
-12.48
-11.93
-11.05
-9.66
-7.43
-4.09
0.23
5.03
9.57
13.21
15.63
16.92
17.49
17.79
18.12
18.53
18.88
18.99
18.79
18.40
18.03
17.87
17.93
17.99
17.69
16.72
14.97
12.62
10.04
7.61
5.52
3.77
2.21
0.73
-0.70
-2.01
-3.16
-4.21
-5.32
-6.72
-8.50
-10.60
-12.75
-14.56
-15.70
-15.92
-15.15
-13.43
-10.97
-8.07
-5.09
-2.34
-0.04
1.78
3.18
4.31
5.31
6.20
6.96
7.53
7.89
8.04
8.01
7.83
7.52
7.11
6.66
6.25
5.95
5.74
5.51
5.12
4.44
3.44
2.23
0.99
-0.12
-1.03
-1.80
-2.62
-3.68
-5.09
-6.85
-8.80
-10.76
-12.55
-14.05
-15.15
-15.74
-15.67
-14.81
-13.13
-10.75
-7.98
-5.18
-2.65
-0.53
1.21
2.67
3.91
4.89
5.51
5.72
5.55
5.18
4.83
4.69
4.82
5.17
5.58
5.92
6.06
5.97
5.61
4.99
4.10
2.96
1.64
0.21
-1.24
-2.64
-3.99
-5.36
-6.85
-8.55
-10.47
-12.54
-14.56
-16.31
-17.59
-18.26
-18.18
-17.30
-15.64
-13.36
-10.76
-8.24
-6.08
-4.36
-2.92
-1.64
-0.73
-0.92
-3.29
-8.62
-16.81
-26.50
-35.42
-41.17
-42.30
-38.87
-32.38
-24.97
-18.53
-14.19
-12.46
-13.59
-17.84
-25.20
-34.76
-44.40
-51.09
-52.00
-45.71
-32.81
-15.58
3.09
20.88
36.64
50.17
61.52
70.47
76.38
78.60
76.99
72.23
65.75
59.31
54.47
52.08
52.05
53.48
54.94
55.02
52.71
47.57
39.67
29.24
16.59
2.08
-13.69
-29.83
-45.23
-59.05
-71.09
-81.90
-92.44
-103.49
-115.04
-126.14
-135.35
-141.43
-143.99
-143.70
-141.77
-139.15
-135.69
-129.88
-119.23
-101.23
-74.40
-38.93
3.33
49.38
95.87
139.80
178.95
211.94
238.16
257.71
271.22
279.68
283.99
284.43
280.45
270.75
253.92
229.43
198.41
163.86
129.89
100.25
76.91
59.72
46.91
36.46
27.15
18.89
12.42
8.61
7.40
7.70
7.98
6.97
4.36
0.58
-3.73
-8.13
-12.21
-16.07
-20.19
-24.90
-30.00
-34.28
-35.98
-33.75
-27.51
-18.64
-10.33
-6.57
-10.31
-22.18
-38.80
-54.10
-62.62
-64.62
-62.46
-59.55
-59.55
-64.13
-75.24
-94.61
-123.77
-163.03
-209.85
-257.41
-295.94
-315.53
-309.90
-279.42
-231.08
-176.07
-125.47
-86.37
-59.89
-42.89
-30.79
-20.06
-9.35
1.36
11.84
22.27
33.14
44.87
57.05
68.40
77.15
81.84
82.02
78.33
72.43
66.46
62.44
61.30
62.52
64.17
63.78
59.40
50.43
37.86
23.75
10.29
-1.13
-10.46
-18.66
-27.05
-36.54
-47.24
-58.61
-69.87
-80.46
-90.26
-99.33
-107.40
-113.46
-115.88
-112.94
-103.75
-88.87
-70.39
-51.28
-34.47
-21.92
-14.34
-11.24
-11.46
-13.68
-16.62
-19.14
-20.21
-19.11
-15.48
-9.54
-1.93
6.61
15.61
24.97
34.84
45.18
55.51
64.86
72.04
76.13
76.90
74.87
71.06
66.54
62.02
57.70
53.39
48.84
43.91
38.73
33.60
28.88
24.75
21.27
18.33
15.82
13.70
12.05
11.02
10.74
11.29
12.55
14.31
16.21
17.90
19.09
19.64
19.59
19.08
18.29
17.33
16.26
15.13
14.05
13.18
12.74
12.83
13.39
14.19
14.90
15.18
14.76
13.44
11.12
7.84
3.85
-0.38
-4.29
-7.36
-9.34
-10.24
-10.30
-9.69
-8.48
-6.56
-3.80
-0.24
3.79
7.80
11.26
13.86
15.52
16.41
16.74
16.68
16.27
15.45
14.18
12.52
10.68
9.02
7.87
7.38
7.41
7.52
7.13
5.76
3.27
-0.08
-3.72
-7.09
-9.85
-12.05
-14.00
-16.10
-18.47
-20.96
-23.11
-24.40
-24.47
-23.21
-20.86
-17.92
-15.17
-13.57
-14.14
-17.66
-24.27
-33.00
-41.65
-47.21
-46.68
-38.30
-22.30
-1.09
21.46
41.36
55.77
63.79
66.33
65.32
62.73
59.73
56.55
52.81
48.06
42.28
35.99
30.07
25.35
22.30
20.88
20.62
20.87
21.02
20.67
19.80
18.74
18.09
18.50
20.41
23.81
28.12
32.35
35.46
36.82
36.50
35.32
34.55
35.32
38.04
41.92
45.07
44.90
39.09
26.56
8.08
-13.62
-34.35
-49.32
-54.45
-47.51
-29.17
-3.17
24.37
46.62
58.12
56.47
42.92
21.64
-2.04
-23.51
-40.01
-50.68
-55.90
-56.44
-53.10
-46.81
-38.95
-31.39
-26.07
-24.17
-25.54
-28.61
-30.80
-29.66
-23.77
-13.28
0.22
14.32
26.71
35.86
41.28
43.37
43.09
41.43
39.15
36.56
33.55
29.83
25.15
19.52
13.26
6.93
1.09
-3.93
-8.06
-11.44
-14.19
-16.26
-17.38
-17.14
-15.19
-11.50
-6.36
-0.38
5.65
11.03
15.26
18.19
19.92
20.68
20.68
20.04
18.74
16.77
14.19
11.17
7.99
4.89
1.98
-0.85
-3.84
-7.18
-10.96
-14.99
-18.94
-22.41
-25.08
-26.84
-27.69
-27.80
-27.39
-26.69
-25.89
-25.11
-24.37
-23.61
-22.74
-21.71
-20.57
-19.42
-18.36
-17.36
-16.24
-14.76
-12.75
-10.28
-7.62
-5.16
-3.21
-1.92
-1.22
-0.89
-0.73
-0.65
-0.66
-0.85
-1.29
-1.97
-2.85
-3.85
-4.93
-6.07
-7.25
-8.44
-9.52
-10.43
-11.16
-11.83
-12.67
-13.93
-15.76
-18.12
-20.81
-23.52
-25.98
-27.99
-29.46
-30.31
-30.51
-30.03
-28.89
-27.18
-25.03
-22.52
-19.67
-16.41
-12.66
-8.43
-3.89
0.63
4.78
8.26
10.95
12.85
14.01
14.52
14.55
14.46
14.78
16.10
18.84
23.04
28.24
33.64
38.29
41.38
42.40
41.28
38.35
34.34
30.13
26.51
24.04
22.90
22.99
24.15
26.13
28.64
31.17
32.99
33.38
31.98
29.05
25.39
22.03
19.66
18.41
17.90
17.56
17.08
16.45
15.79
15.07
13.90
11.61
7.52
1.38
-6.48
-15.18
-23.65
-30.96
-36.54
-40.18
-41.95
-42.00
-40.55
-37.90
-34.51
-30.90
-27.60
-24.85
-22.57
-20.43
-18.06
-15.25
-12.07
-8.72
-5.40
-2.16
1.11
4.49
7.85
10.80
12.75
13.13
11.66
8.50
4.27
-0.23
-4.27
-7.48
-9.90
-11.97
-14.23
-17.14
-20.91
-25.39
-30.22
-34.88
-38.92
-42.00
-43.97
-44.76
-44.34
-42.59
-39.38
-34.62
-28.54
-21.69
-14.95
-9.30
-5.42
-3.41
-2.71
-2.24
-0.86
2.16
6.91
12.85
19.09
24.70
28.98
31.45
31.96
30.60
27.80
24.25
20.79
18.05
16.16
14.71
12.98
10.32
6.46
1.55
-4.05
-10.06
-16.32
-22.61
-28.36
-32.52
-33.80
-31.27
-24.97
-16.12
-6.88
0.45
4.25
4.25
1.49
-2.13
-4.70
-5.08
-3.27
-0.29
2.37
3.30
1.71
-2.34
-7.94
-13.49
-17.05
-16.94
-12.45
-4.55
3.77
8.22
4.64
-9.15
-31.90
-58.84
-83.03
-97.83
-99.17
-86.90
-64.34
-36.72
-9.08
15.21
34.78
49.73
60.64
67.88
71.42
71.13
66.90
58.58
45.84
28.24
5.79
-20.18
-46.47
-68.35
-80.89
-80.80
-67.92
-45.49
-19.16
4.79
21.29
27.64
23.61
11.12
-6.56
-25.49
-41.70
-51.84
-53.95
-47.94
-35.72
-20.77
-7.07
2.05
4.92
1.87
-5.13
-13.41
-20.67
-25.85
-29.28
-32.20
-35.92
-40.91
-46.51
-51.10
-52.94
-50.89
-45.06
-36.63
-27.39
-19.01
-12.49
-8.07
-5.53
-4.47
-4.58
-5.59
-7.22
-9.07
-10.66
-11.52
-11.36
-10.19
-8.41
-6.87
-6.63
-8.66
-13.42
-20.58
-29.13
-37.90
-46.18
-54.05
-62.17
-70.90
-79.41
-85.47
-86.13
-79.15
-64.35
-43.95
-21.67
-1.20
15.21
26.96
34.10
36.28
32.33
21.30
4.21
-14.55
-27.72
-27.51
-9.01
27.35
75.68
126.89
172.06
205.11
223.40
226.80
216.38
194.08
163.40
130.08
101.59
84.95
83.82
96.64
116.90
135.73
145.26
141.21
123.63
95.91
62.83
29.12
-1.64
-27.17
-46.53
-59.89
-68.22
-72.95
-75.52
-77.14
-78.70
-80.73
-83.28
-85.88
-87.42
-86.59
-82.43
-75.02
-65.93
-57.83
-53.72
-55.64
-63.58
-75.08
-85.94
-91.62
-88.89
-76.99
-57.72
-34.68
-12.08
6.48
18.69
23.71
21.93
14.61
3.30
-10.53
-25.69
-41.19
-55.76
-67.42
-73.49
-71.17
-58.70
-36.29
-6.22
27.93
62.67
95.66
126.05
153.98
179.90
203.98
226.12
246.11
263.59
277.86
287.59
290.91
285.96
271.79
248.87
218.98
184.55
147.53
108.72
67.83
24.44
-20.86
-65.62
-105.83
-137.19
-156.85
-164.63
-162.99
-155.80
-146.60
-137.21
-127.58
-116.69
-103.88
-89.74
-75.92
-64.35
-56.12
-51.11
-48.13
-45.72
-42.80
-38.98
-34.54
-30.03
-25.88
-22.20
-18.79
-15.30
-11.45
-7.31
-3.33
-0.26
1.16
0.49
-2.11
-5.89
-9.70
-12.43
-13.42
-12.61
-10.54
-7.93
-5.47
-3.47
-1.97
-0.85
-0.10
0.19
-0.17
-1.27
-2.95
-4.85
-6.53
-7.67
-8.18
-8.21
-8.06
-8.03
-8.29
-8.79
-9.31
-9.52
-9.15
-8.14
-6.66
-5.14
-4.11
-3.99
-4.86
-6.45
-8.12
-9.16
-9.03
-7.56
-4.95
-1.70
1.66
4.69
7.12
8.81
9.71
9.81
9.17
7.95
6.42
4.87
3.56
2.58
1.85
1.18
0.41
-0.53
-1.54
-2.39
-2.81
-2.69
-2.17
-1.56
-1.29
-1.67
-2.72
-4.17
-5.56
-6.42
-6.45
-5.63
-4.14
-2.31
-0.44
1.21
2.46
3.17
3.27
2.79
1.87
0.74
-0.28
-0.91
-1.02
-0.63
0.08
0.85
1.41
1.60
1.34
0.64
-0.44
-1.82
-3.44
-5.22
-7.01
-8.63
-9.82
-10.36
-10.10
-8.98
-7.10
-4.58
-1.62
1.52
4.53
7.05
8.77
9.50
9.24
8.21
6.73
5.10
3.49
1.94
0.39
-1.18
-2.72
-4.18
-5.54
-6.84
-8.18
-9.69
-11.34
-13.08
-14.71
-16.05
-16.92
-17.18
-16.77
-15.68
-13.93
-11.57
-8.63
-5.21
-1.47
2.35
5.93
8.94
11.12
12.33
12.53
11.73
9.94
7.24
3.82
0.06
-3.56
-6.57
-8.72
-10.00
-10.61
-10.86
-11.00
-11.23
-11.62
-12.14
-12.60
-12.68
-12.01
-10.28
-7.44
-3.74
0.24
3.89
6.67
8.34
8.87
8.40
7.11
5.17
2.79
0.23
-2.17
-4.12
-5.36
-5.86
-5.74
-5.30
-4.87
-4.71
-4.99
-5.70
-6.79
-8.10
-9.49
-10.80
-11.85
-12.46
-12.44
-11.68
-10.18
-8.06
-5.54
-2.84
-0.14
2.47
4.87
6.96
8.58
9.55
9.81
9.46
8.74
7.98
7.43
7.10
6.85
6.40
5.49
4.00
1.95
-0.53
-3.30
-6.26
-9.39
-12.63
-15.81
-18.61
-20.61
-21.45
-20.93
-19.18
-16.66
-14.00
-11.84
-10.61
-10.43
-11.18
-12.60
-14.49
-16.79
-19.58
-22.96
-26.95
-31.36
-35.81
-39.70
-42.36
-43.03
-41.04
-35.82
-27.15
-15.29
-1.05
14.36
29.63
43.71
56.04
66.54
75.45
82.98
89.11
93.50
95.67
95.23
92.12
86.77
79.97
72.72
65.88
59.81
54.07
47.30
37.61
23.25
3.55
-20.41
-45.83
-68.84
-85.77
-94.25
-93.81
-85.75
-72.36
-56.11
-39.04
-22.61
-7.78
4.80
14.76
21.97
26.45
28.31
27.52
24.09
18.12
10.01
0.43
-9.83
-20.03
-29.63
-38.08
-44.74
-48.78
-49.42
-46.25
-39.56
-30.40
-20.36
-11.23
-4.67
-1.96
-3.87
-10.33
-20.16
-31.06
-40.04
-44.32
-42.37
-34.48
-22.63
-9.53
2.41
11.97
19.19
24.93
30.20
35.69
41.75
48.62
56.82
67.14
80.38
96.87
115.99
136.08
154.58
168.84
176.95
178.50
174.82
168.48
162.29
158.14
156.39
155.92
154.89
151.76
145.98
137.98
128.69
118.82
108.38
96.73
83.01
66.74
48.18
28.29
8.24
-11.10
-29.50
-47.15
-64.19
-80.13
-93.80
-103.94
-110.04
-112.87
-114.09
-115.10
-116.00
-115.54
-112.10
-105.36
-97.21
-91.18
-90.59
-96.32
-106.05
-115.20
-119.19
-115.70
-105.42
-91.22
-76.40
-63.24
-52.68
-44.93
-40.31
-39.52
-43.22
-51.27
-62.19
-73.39
-81.99
-85.98
-84.93
-80.24
-74.85
-72.41
-76.26
-88.19
-107.43
-130.52
-152.18
-167.08
-171.78
-165.90
-151.77
-133.06
-112.94
-93.09
-73.98
-55.80
-39.38
-26.21
-17.69
-14.20
-14.81
-17.82
-21.67
-25.45
-28.63
-30.44
-29.42
-23.68
-11.89
5.67
26.67
47.29
63.46
72.25
72.75
66.27
55.83
45.24
38.04
36.58
41.28
50.29
59.84
65.23
62.35
49.31
27.48
1.55
-21.81
-36.15
-37.73
-27.11
-9.04
9.20
20.64
20.98
9.84
-9.85
-33.52
-56.98
-77.60
-94.40
-107.35
-116.45
-121.30
-121.22
-115.74
-105.04
-90.02
-72.07
-52.66
-33.02
-13.95
4.08
20.79
36.03
49.78
62.32
74.34
86.90
101.03
117.29
135.22
153.13
168.46
178.54
181.68
177.89
169.21
159.03
151.05
148.06
151.16
159.69
171.78
185.03
197.13
206.04
209.91
206.95
195.61
174.96
145.17
107.82
65.75
22.50
-18.39
-54.10
-82.85
-103.90
-117.26
-123.33
-122.75
-116.42
-105.57
-91.90
-77.32
-63.50
-51.57
-41.83
-33.93
-27.27
-21.30
-15.84
-11.02
-7.16
-4.55
-3.32
-3.44
-4.77
-7.27
-11.02
-16.22
-23.02
-31.14
-39.76
-47.39
-52.31
-53.12
-49.45
-42.33
-34.11
-27.96
-26.95
-33.13
-46.75
-65.78
-86.22
-102.95
-111.18
-107.89
-92.69
-67.86
-37.54
-6.45
21.25
42.75
56.82
63.59
64.30
60.87
55.52
50.20
46.14
43.48
41.29
37.91
31.44
20.24
3.33
-19.31
-46.44
-75.55
-103.21
-125.85
-140.69
-146.43
-143.31
-132.70
-116.29
-95.62
-71.91
-46.23
-19.75
6.24
30.42
51.72
69.40
83.05
92.52
97.94
99.86
99.24
97.31
95.07
92.94
90.62
87.37
82.51
75.86
67.91
59.59
51.89
45.45
40.42
36.55
33.45
30.76
28.34
26.14
24.14
22.21
20.09
17.54
14.41
10.82
7.14
3.90
1.59
0.53
0.73
1.85
3.29
4.32
4.30
2.84
-0.07
-4.07
-8.56
-12.78
-16.11
-18.13
-18.74
-18.13
-16.67
-14.73
-12.59
-10.37
-8.09
-5.82
-3.71
-2.04
-1.08
-1.02
-1.87
-3.52
-5.68
-7.87
-9.44
-9.61
-7.76
-3.70
2.10
8.59
14.45
18.58
20.40
20.02
17.95
14.88
11.36
7.75
4.34
1.44
-0.68
-1.82
-2.04
-1.67
-1.19
-1.09
-1.63
-2.82
-4.43
-6.14
-7.65
-8.82
-9.69
-10.43
-11.16
-11.93
-12.67
-13.25
-13.58
-13.73
-13.90
-14.42
-15.62
-17.69
-20.59
-23.97
-27.25
-29.77
-31.00
-30.75
-29.21
-26.93
-24.64
-23.09
-22.90
-24.47
-27.86
-32.55
-37.46
-41.08
-42.02
-39.67
-34.57
-28.36
-22.97
-19.56
-17.90
-16.46
-13.27
-7.11
1.83
12.04
21.54
28.83
33.40
35.64
36.31
36.09
35.46
34.81
34.59
35.27
37.21
40.40
44.52
49.02
53.38
57.22
60.30
62.47
63.61
63.61
62.39
59.88
55.98
50.63
43.85
35.82
26.90
17.51
8.04
-1.18
-9.95
-18.14
-25.75
-32.90
-39.73
-46.17
-51.77
-55.61
-56.77
-54.80
-50.24
-44.66
-40.10
-38.21
-39.45
-42.91
-46.84
-49.53
-50.15
-48.93
-46.75
-44.37
-42.01
-39.33
-35.82
-31.16
-25.33
-18.47
-10.57
-1.56
8.29
17.97
25.59
28.89
26.31
17.97
5.99
-6.11
-14.82
-18.01
-15.73
-10.04
-3.76
0.89
3.26
4.33
5.91
9.47
15.24
22.40
29.68
36.22
41.75
46.28
49.48
50.37
47.79
41.18
31.31
20.19
10.50
4.27
2.17
3.24
5.69
7.68
7.94
5.95
1.74
-4.17
-11.01
-17.97
-24.45
-30.13
-34.78
-37.71
-37.55
-32.37
-20.56
-1.84
21.98
47.27
69.76
86.08
94.86
96.86
94.17
89.04
83.20
77.72
73.34
70.66
70.10
71.47
73.88
75.79
75.54
72.01
65.08
55.68
45.34
35.59
27.38
20.80
15.17
9.43
2.66
-5.44
-14.46
-23.47
-31.42
-37.52
-41.51
-43.60
-44.26
-44.00
-43.22
-42.20
-41.17
-40.37
-39.98
-40.09
-40.59
-41.29
-41.92
-42.31
-42.50
-42.72
-43.40
-44.99
-47.73
-51.47
-55.56
-59.00
-60.77
-60.25
-57.51
-53.27
-48.61
-44.51
-41.48
-39.53
-38.27
-37.27
-36.23
-35.07
-33.79
-32.43
-31.01
-29.53
-28.11
-26.97
-26.37
-26.55
-27.50
-28.97
-30.52
-31.61
-31.87
-31.14
-29.56
-27.43
-25.12
-22.93
-21.03
-19.46
-18.24
-17.35
-16.79
-16.56
-16.64
-17.03
-17.72
-18.69
-19.88
-21.14
-22.25
-22.97
-23.12
-22.70
-21.90
-21.07
-20.61
-20.84
-21.88
-23.50
-25.17
-26.13
-25.69
-23.48
-19.66
-14.85
-10.03
-6.05
-3.51
-2.50
-2.72
-3.55
-4.31
-4.29
-2.88
0.22
4.91
10.63
16.57
22.01
26.67
30.81
34.98
39.50
44.11
47.85
49.40
47.75
42.63
34.72
25.41
16.35
9.06
4.59
3.52
5.80
10.90
17.81
25.24
31.93
36.88
39.50
39.65
37.62
33.97
29.51
25.05
21.28
18.59
16.92
15.87
14.89
13.61
11.92
9.99
8.07
6.30
4.73
3.37
2.35
1.87
2.19
3.44
5.55
8.20
10.93
13.24
14.73
15.25
14.91
13.96
12.69
11.20
9.47
7.37
4.84
1.94
-1.10
-4.01
-6.63
-9.02
-11.39
-14.07
-17.34
-21.28
-25.79
-30.45
-34.55
-37.23
-37.61
-35.17
-29.93
-22.54
-14.18
-6.21
0.26
4.63
6.94
7.75
7.82
7.76
7.84
7.97
7.94
7.65
7.24
7.09
7.66
9.21
11.64
14.55
17.30
19.26
20.05
19.59
18.09
15.84
13.11
10.11
7.09
4.42
2.57
1.95
2.62
4.22
6.08
7.57
8.46
9.00
9.69
10.86
12.36
13.63
14.00
13.14
11.25
8.89
6.69
4.93
3.46
1.85
-0.35
-3.30
-6.80
-10.35
-13.38
-15.43
-16.34
-16.17
-15.12
-13.37
-11.05
-8.29
-5.37
-2.69
-0.71
0.30
0.39
-0.12
-0.89
-1.78
-2.96
-4.78
-7.56
-11.48
-16.54
-22.51
-28.83
-34.38
-37.55
-36.67
-30.70
-19.93
-6.14
8.05
20.22
29.06
34.66
38.01
40.13
41.39
41.52
40.00
36.73
32.17
27.18
22.55
18.58
15.15
12.04
9.34
7.54
7.32
8.97
12.06
15.46
17.76
17.91
15.64
11.46
6.35
1.36
-2.72
-5.48
-6.88
-7.19
-6.94
-6.89
-7.83
-10.33
-14.44
-19.57
-24.54
-27.95
-28.63
-26.04
-20.36
-12.39
-3.10
6.67
16.29
25.28
33.08
39.11
42.96
44.66
44.70
43.93
43.00
42.01
40.57
38.08
34.18
29.00
23.05
16.99
11.41
6.91
4.13
3.66
5.62
9.32
13.25
15.63
15.14
11.60
5.97
-0.15
-5.24
-8.43
-9.60
-9.25
-8.20
-7.51
-8.25
-11.28
-16.74
-23.76
-30.44
-34.32
-33.27
-26.22
-13.52
3.32
22.27
41.43
59.58
76.29
91.73
106.32
120.28
133.39
144.84
153.33
157.36
155.61
147.46
133.28
114.53
93.53
72.85
54.63
39.95
28.59
19.24
10.14
-0.08
-11.83
-24.40
-36.31
-45.90
-51.92
-54.03
-52.89
-50.02
-47.18
-45.72
-45.91
-46.82
-46.55
-43.05
-34.86
-21.42
-2.95
20.02
46.89
76.89
108.69
140.06
168.08
189.79
203.03
207.02
202.32
190.42
173.15
152.33
129.73
107.09
85.96
67.52
52.26
39.90
29.63
20.44
11.52
2.38
-7.14
-17.17
-27.79
-39.07
-50.86
-62.67
-73.72
-83.17
-90.41
-95.23
-97.75
-98.22
-96.83
-93.78
-89.42
-84.39
-79.52
-75.44
-72.21
-69.27
-65.76
-61.09
-55.44
-49.74
-45.21
-42.75
-42.53
-44.01
-46.33
-48.84
-51.29
-53.78
-56.43
-59.13
-61.46
-62.84
-62.79
-61.27
-58.73
-56.10
-54.48
-54.72
-57.06
-60.98
-65.31
-68.46
-68.96
-65.67
-58.09
-46.38
-31.46
-14.98
0.60
12.51
18.46
17.69
11.67
3.88
-1.48
-1.23
5.55
17.54
32.24
47.69
63.20
78.94
94.56
107.79
114.27
108.71
87.04
48.44
-3.86
-63.25
-121.41
-170.29
-203.75
-218.34
-213.62
-191.87
-157.53
-116.48
-75.10
-39.26
-13.34
0.53
2.77
-3.91
-15.30
-26.87
-34.91
-37.42
-34.34
-27.22
-18.54
-10.72
-5.36
-2.86
-2.61
-3.44
-4.27
-4.53
-4.27
-3.87
-3.75
-4.04
-4.50
-4.69
-4.25
-3.07
-1.36
0.48
2.06
3.17
3.79
3.95
3.56
2.36
0.03
-3.58
-8.22
-13.19
-17.53
-20.42
-21.55
-21.26
-20.30
-19.45
-19.09
-19.12
-19.21
-19.16
-19.27
-20.26
-22.86
-27.25
-32.68
-37.70
-40.75
-41.01
-38.77
-35.38
-32.52
-31.47
-32.69
-35.86
-40.32
-45.50
-51.10
-56.93
-62.69
-67.88
-72.01
-74.92
-76.95
-78.84
-81.31
-84.72
-88.99
-93.84
-99.15
-105.19
-112.44
-121.33
-131.94
-144.08
-157.56
-172.45
-188.98
-206.98
-225.13
-240.59
-249.41
-247.79
-233.58
-207.30
-172.04
-132.42
-92.85
-56.24
-23.44
6.31
34.66
63.33
93.71
126.49
161.42
196.91
229.96
256.63
273.14
277.32
269.53
252.55
230.52
207.35
185.55
165.91
148.03
131.26
115.38
100.80
88.07
77.43
68.68
61.44
55.58
51.37
49.38
50.05
53.57
59.40
66.37
73.16
78.84
83.17
86.59
89.80
93.35
97.91
103.49
109.52
115.09
119.33
121.90
123.00
123.15
122.91
123.60
126.06
130.47
136.39
142.98
149.35
154.78
158.82
161.44
164.40
169.34
176.96
186.29
194.69
198.94
196.52
186.74
163.57
126.45
79.40
30.08
-13.89
-48.26
-72.74
-89.35
-100.33
-107.19
-109.43
-107.00
-100.68
-92.27
-84.43
-79.51
-78.91
-82.79
-90.20
-98.60
-106.01
-111.35
-115.00
-118.55
-124.25
-134.44
-151.44
-177.42
-210.03
-247.07
-285.27
-320.32
-347.30
-361.64
-360.38
-343.06
-311.74
-269.77
-221.14
-168.68
-113.63
-56.22
3.01
62.03
116.80
162.15
193.59
208.57
207.74
194.45
173.08
147.27
118.92
88.53
56.30
23.49
-7.34
-32.69
-49.53
-56.53
-54.42
-45.35
-31.70
-15.09
3.87
24.92
47.49
70.16
90.88
107.63
119.25
125.70
127.81
126.64
122.81
116.39
107.15
95.04
80.42
64.13
47.28
31.00
16.23
3.76
-5.92
-12.55
-16.18
-17.20
-16.28
-14.29
-12.19
-10.78
-10.62
-11.92
-14.47
-17.73
-20.95
-23.43
-24.68
-24.63
-23.57
-22.02
-20.44
-19.13
-18.12
-17.34
-16.73
-16.32
-16.03
-15.56
-14.26
-11.36
-6.31
0.76
8.92
16.64
22.38
25.16
24.84
22.04
17.73
12.86
8.06
3.74
0.20
-2.27
-3.45
-3.34
-2.30
-0.93
0.07
0.27
-0.43
-1.71
-3.11
-4.20
-4.83
-5.09
-5.25
-5.60
-6.24
-7.06
-7.83
-8.29
-8.36
-8.17
-7.94
-7.93
-8.25
-8.85
-9.60
-10.34
-10.96
-11.44
-11.83
-12.14
-12.39
-12.51
-12.42
-12.02
-11.27
-10.16
-8.78
-7.22
-5.53
-3.69
-1.63
0.71
3.27
5.85
8.12
9.75
10.52
10.41
9.62
8.44
7.21
6.16
5.40
4.86
4.39
3.81
3.03
2.06
1.09
0.37
0.09
0.30
0.83
1.36
1.57
1.24
0.41
-0.68
-1.72
-2.43
-2.68
-2.52
-2.10
-1.58
-1.10
-0.72
-0.51
-0.49
-0.68
-1.05
-1.57
-2.15
-2.77
-3.41
-4.08
-4.80
-5.50
-6.09
-6.44
-6.46
-6.15
-5.63
-5.10
-4.73
-4.63
-4.80
-5.16
-5.58
-5.99
-6.30
-6.47
-6.48
-6.28
-5.88
-5.34
-4.78
-4.32
-4.04
-3.90
-3.81
-3.66
-3.38
-3.02
-2.64
-2.35
-2.21
-2.25
-2.40
-2.55
-2.55
-2.30
-1.80
-1.17
-0.65
-0.50
-0.87
-1.71
-2.80
-3.84
-4.62
-5.07
-5.24
-5.25
-5.21
-5.12
-4.98
-4.79
-4.60
-4.49
-4.50
-4.60
-4.74
-4.84
-4.90
-4.93
-4.95
-4.92
-4.76
-4.41
-3.88
-3.27
-2.71
-2.36
-2.30
-2.53
-2.96
-3.50
-4.02
-4.41
-4.56
-4.44
-4.04
-3.45
-2.75
-2.03
-1.34
-0.71
-0.17
0.26
0.56
0.76
0.96
1.29
1.87
2.73
3.83
5.04
6.26
7.40
8.46
9.44
10.36
11.15
11.74
12.05
12.02
11.71
11.24
10.72
10.25
9.86
9.48
9.04
8.50
7.80
6.93
5.83
4.39
2.54
0.18
-2.71
-6.12
-9.92
-13.87
-17.63
-20.76
-22.92
-23.85
-23.51
-22.05
-19.69
-16.69
-13.28
-9.70
-6.19
-2.97
-0.22
1.96
3.61
4.85
5.84
6.75
7.65
8.59
9.55
10.48
11.38
12.23
13.08
13.96
14.87
15.74
16.48
16.95
17.03
16.63
15.67
14.16
12.20
9.94
7.61
5.36
3.18
0.93
-1.53
-4.23
-7.01
-9.61
-11.84
-13.74
-15.49
-17.23
-18.85
-19.96
-20.09
-18.95
-16.66
-13.65
-10.52
-7.75
-5.58
-4.10
-3.33
-3.28
-3.92
-5.05
-6.32
-7.37
-8.08
-8.67
-9.63
-11.44
-14.30
-18.00
-21.95
-25.44
-27.88
-29.02
-28.92
-27.85
-26.18
-24.21
-22.18
-20.18
-18.24
-16.31
-14.42
-12.59
-10.96
-9.67
-8.81
-8.34
-8.15
-8.05
-7.92
-7.73
-7.58
-7.59
-7.88
-8.49
-9.44
-10.70
-12.25
-14.06
-16.10
-18.31
-20.64
-23.05
-25.46
-27.78
-29.85
-31.51
-32.67
-33.37
-33.68
-33.62
-32.97
-31.28
-28.07
-23.13
-16.87
-10.28
-4.69
-1.27
-0.61
-2.51
-6.21
-10.71
-15.17
-19.03
-22.00
-23.88
-24.38
-23.18
-19.98
-14.69
-7.61
0.54
8.70
15.59
20.10
21.53
19.86
15.74
10.35
4.91
0.36
-2.89
-5.02
-6.57
-8.30
-11.00
-15.31
-21.52
-29.32
-37.66
-44.88
-49.19
-49.31
-44.94
-36.77
-25.96
-13.57
-0.14
14.10
28.72
42.66
54.21
61.60
63.93
61.76
57.25
53.38
52.87
57.18
66.01
77.55
89.22
98.54
103.87
104.77
101.89
96.60
90.53
85.12
81.35
79.65
79.97
81.87
84.60
87.25
88.82
88.43
85.52
80.03
72.56
64.20
56.21
49.62
44.94
42.06
40.52
39.67
38.83
37.09
33.33
26.44
15.94
2.61
-11.42
-23.31
-30.78
-33.12
-31.42
-27.87
-24.47
-22.05
-20.21
-18.14
-15.50
-12.97
-11.78
-12.90
-16.30
-20.92
-25.26
-28.24
-29.65
-30.10
-30.53
-31.65
-33.65
-36.24
-38.90
-41.18
-42.86
-43.96
-44.69
-45.26
-45.83
-46.45
-47.05
-47.55
-47.94
-48.27
-48.69
-49.31
-50.06
-50.73
-50.97
-50.41
-48.89
-46.50
-43.57
-40.57
-37.93
-35.88
-34.38
-33.15
-31.82
-30.13
-28.04
-25.74
-23.47
-21.33
-19.15
-16.46
-12.67
-7.36
-0.36
8.14
17.78
28.08
38.48
48.27
56.55
62.34
64.89
64.01
60.30
54.95
49.30
44.27
40.08
36.36
32.61
28.65
24.80
21.70
19.77
18.91
18.42
17.41
15.26
11.94
8.06
4.42
1.67
-0.11
-1.24
-2.22
-3.37
-4.66
-5.75
-6.35
-6.44
-6.34
-6.54
-7.39
-8.86
-10.51
-11.73
-12.06
-11.47
-10.31
-9.07
-8.11
-7.48
-7.03
-6.60
-6.22
-6.14
-6.65
-7.86
-9.59
-11.46
-13.03
-14.08
-14.62
-14.84
-15.00
-15.25
-15.67
-16.26
-17.02
-17.93
-19.02
-20.25
-21.63
-23.16
-24.95
-27.07
-29.54
-32.29
-35.13
-37.88
-40.42
-42.62
-44.39
-45.47
-45.50
-44.11
-41.19
-37.04
-32.34
-27.98
-24.66
-22.61
-21.59
-21.07
-20.61
-20.01
-19.45
-19.15
-19.24
-19.57
-19.84
-19.76
-19.25
-18.48
-17.77
-17.37
-17.42
-17.91
-18.81
-20.12
-21.82
-23.79
-25.64
-26.81
-26.66
-24.78
-21.11
-16.02
-10.14
-4.15
1.38
6.10
9.84
12.54
14.24
15.05
15.15
14.80
14.22
13.61
13.08
12.68
12.42
12.28
12.20
12.00
11.44
10.23
8.16
5.12
1.22
-3.23
-7.73
-11.66
-14.50
-15.84
-15.55
-13.73
-10.63
-6.56
-1.83
3.20
8.17
12.75
16.65
19.69
21.80
23.01
23.44
23.20
22.43
21.30
20.00
18.67
17.39
16.12
14.78
13.30
11.64
9.85
7.97
5.99
3.86
1.54
-0.87
-3.12
-4.82
-5.57
-5.13
-3.51
-0.99
2.03
5.18
8.16
10.80
12.96
14.54
15.48
15.83
15.81
15.72
15.80
16.07
16.35
16.35
15.85
14.86
13.54
12.12
10.69
9.13
7.19
4.65
1.43
-2.40
-6.63
-11.05
-15.41
-19.38
-22.46
-24.07
-23.71
-21.23
-16.93
-11.53
-5.85
-0.47
4.41
8.93
13.34
17.65
21.51
24.33
25.59
25.16
23.46
21.32
19.70
19.24
20.07
21.77
23.61
24.95
25.49
25.37
24.97
24.68
24.72
25.01
25.36
25.62
25.76
25.81
25.86
25.86
25.66
25.11
24.13
22.69
20.73
18.08
14.39
9.29
2.67
-5.10
-13.14
-20.32
-25.64
-28.60
-29.32
-28.41
-26.65
-24.68
-22.80
-21.01
-19.21
-17.27
-15.19
-13.02
-10.75
-8.35
-5.81
-3.22
-0.82
1.19
2.89
4.77
7.69
12.50
19.53
28.30
37.52
45.59
51.17
53.64
53.14
50.33
45.90
40.42
34.29
27.94
21.94
16.96
13.52
11.80
11.63
12.59
14.16
15.90
17.44
18.49
18.75
17.98
16.04
12.95
8.94
4.30
-0.60
-5.35
-9.49
-12.50
-13.92
-13.42
-11.03
-7.15
-2.48
2.21
6.33
9.62
12.12
14.01
15.40
16.19
16.20
15.29
13.56
11.36
9.19
7.44
6.28
5.56
4.96
4.17
3.05
1.69
0.25
-1.16
-2.60
-4.30
-6.54
-9.49
-13.05
-16.83
-20.19
-22.41
-22.95
-21.57
-18.48
-14.31
-9.83
-5.80
-2.65
-0.40
1.24
2.65
4.06
5.41
6.31
6.31
5.09
2.76
-0.25
-3.29
-5.80
-7.54
-8.68
-9.74
-11.32
-13.86
-17.41
-21.63
-25.93
-29.67
-32.39
-33.89
-34.24
-33.66
-32.50
-31.23
-30.28
-29.77
-29.26
-27.54
-22.93
-13.85
0.48
19.41
41.00
62.57
81.65
96.68
107.23
113.61
116.31
115.54
111.25
103.37
92.25
78.74
64.08
49.49
35.72
22.83
10.13
-3.52
-19.22
-37.61
-58.60
-81.35
-104.49
-126.51
-146.13
-162.50
-175.26
-184.36
-189.86
-191.67
-189.46
-182.77
-171.23
-154.88
-134.42
-111.31
-87.51
-65.10
-45.61
-29.77
-17.35
-7.57
0.41
7.10
12.52
16.45
18.67
19.29
18.74
17.62
16.49
15.66
15.16
14.85
14.48
13.79
12.55
10.54
7.70
4.13
0.23
-3.35
-5.82
-6.49
-5.04
-1.57
3.40
9.19
15.16
20.84
25.91
30.08
33.01
34.38
34.02
32.08
29.00
25.42
21.92
18.86
16.30
14.12
12.08
9.93
7.49
4.65
1.40
-2.17
-5.90
-9.65
-13.48
-17.57
-22.24
-27.62
-33.51
-39.27
-44.00
-46.84
-47.31
-45.44
-41.74
-37.01
-32.04
-27.36
-23.12
-19.08
-14.65
-9.11
-1.86
7.32
18.01
29.17
39.40
47.27
51.82
52.74
50.44
45.87
40.18
34.48
29.59
25.95
23.63
22.37
21.76
21.29
20.54
19.41
18.13
17.24
17.38
18.99
22.04
25.97
29.97
33.29
35.63
37.17
38.32
39.32
39.96
39.59
37.46
33.11
26.68
18.96
11.04
4.00
-1.46
-5.07
-6.97
-7.46
-6.89
-5.54
-3.53
-0.90
2.48
6.80
12.23
18.83
26.41
34.46
42.26
48.96
53.83
56.41
56.48
54.08
49.38
42.75
34.87
26.74
19.60
14.60
12.40
12.79
14.74
16.74
17.42
16.13
13.18
9.65
6.78
5.37
5.37
5.95
5.89
4.22
0.58
-4.63
-10.53
-16.06
-20.41
-23.15
-24.21
-23.89
-22.72
-21.58
-21.52
-23.63
-28.62
-36.36
-45.79
-55.05
-62.13
-65.48
-64.52
-59.68
-52.04
-42.89
-33.29
-24.08
-15.89
-9.31
-4.82
-2.57
-2.23
-3.00
-3.92
-4.27
-3.89
-3.29
-3.33
-4.83
-8.20
-13.12
-18.52
-22.92
-24.84
-23.49
-19.04
-12.62
-5.77
0.39
5.67
10.85
17.11
25.18
34.76
44.50
52.60
57.59
58.88
56.75
52.15
46.16
39.82
34.04
29.52
26.69
25.57
25.69
26.21
26.30
25.52
24.02
22.44
21.52
21.67
22.68
23.89
24.42
23.60
21.22
17.46
12.69
7.30
1.52
-4.47
-10.43
-16.01
-20.73
-24.12
-25.94
-26.17
-24.99
-22.70
-19.54
-15.69
-11.31
-6.61
-1.91
2.35
5.65
7.54
7.69
6.11
3.11
-0.71
-4.61
-7.96
-10.41
-12.03
-13.28
-14.69
-16.56
-18.75
-20.67
-21.61
-21.09
-19.20
-16.57
-14.16
-12.81
-12.87
-14.18
-16.18
-18.29
-20.14
-21.61
-22.71
-23.36
-23.33
-22.32
-20.14
-16.87
-12.92
-8.92
-5.45
-2.87
-1.18
-0.09
0.85
2.01
3.55
5.31
6.91
7.93
8.07
7.38
6.11
4.55
2.71
0.21
-3.63
-9.43
-17.30
-26.52
-35.62
-42.80
-46.46
-45.76
-40.83
-32.57
-22.28
-11.19
-0.12
10.48
20.34
29.18
36.58
42.05
45.33
46.52
46.09
44.64
42.69
40.45
37.84
34.73
31.23
27.76
25.00
23.47
23.29
24.08
25.11
25.58
25.01
23.22
20.34
16.59
12.28
7.83
3.89
1.35
1.13
3.77
9.09
16.16
23.45
29.46
33.20
34.43
33.63
31.62
29.28
27.31
26.15
26.03
26.98
28.75
30.83
32.60
33.55
33.45
32.49
31.16
29.95
29.15
28.67
28.13
26.99
24.75
21.07
15.82
9.12
1.36
-6.79
-14.50
-20.94
-25.49
-27.87
-28.26
-27.11
-25.01
-22.48
-19.87
-17.35
-15.00
-12.86
-11.04
-9.57
-8.41
-7.39
-6.29
-4.92
-3.22
-1.29
0.65
2.41
3.87
5.02
5.88
6.44
6.62
6.27
5.28
3.69
1.68
-0.41
-2.22
-3.41
-3.76
-3.18
-1.67
0.63
3.51
6.66
9.72
12.36
14.36
15.61
16.16
16.14
15.66
14.83
13.68
12.26
10.66
9.01
7.45
6.11
5.00
4.06
3.18
2.27
1.28
0.21
-0.91
-2.11
-3.46
-5.10
-7.09
-9.37
-11.66
-13.52
-14.52
-14.38
-13.08
-10.92
-8.30
-5.65
-3.21
-1.11
0.66
2.07
3.05
3.48
3.29
2.52
1.33
0.00
-1.21
-2.11
-2.60
-2.74
-2.62
-2.40
-2.21
-2.17
-2.34
-2.74
-3.33
-4.08
-4.93
-5.88
-6.89
-7.89
-8.75
-9.29
-9.28
-8.54
-7.03
-4.89
-2.44
-0.06
1.90
3.27
4.05
4.39
4.50
4.52
4.48
4.34
3.98
3.39
2.63
1.84
1.16
0.62
0.18
-0.27
-0.84
-1.56
-2.38
-3.25
-4.19
-5.27
-6.57
-8.02
-9.41
-10.36
-10.53
-9.75
-8.10
-5.92
-3.60
-1.44
0.47
2.21
3.86
5.43
6.73
7.51
7.58
7.00
6.04
5.07
4.41
4.09
3.94
3.61
2.90
1.76
0.42
-0.83
-1.79
-2.41
-2.91
-3.57
-4.66
-6.23
-8.10
-9.85
-10.95
-11.04
-10.00
-8.05
-5.66
-3.36
-1.53
-0.28
0.53
1.11
1.65
2.18
2.62
2.87
2.82
2.50
1.96
1.29
0.58
-0.09
-0.68
-1.17
-1.57
-1.93
-2.37
-3.02
-4.01
-5.38
-7.09
-8.99
-10.88
-12.53
-13.71
-14.25
-14.06
-13.16
-11.71
-9.90
-7.89
-5.74
-3.39
-0.74
2.31
5.80
9.78
14.36
19.87
26.86
35.93
47.54
61.70
77.84
94.90
111.59
126.69
139.37
149.20
156.00
159.61
159.78
156.21
148.86
138.20
125.32
111.71
99.02
88.72
81.89
79.08
80.13
84.06
89.13
93.13
93.95
90.27
81.85
69.53
54.66
38.48
21.66
4.25
-13.92
-32.80
-51.75
-69.63
-85.09
-97.10
-105.28
-110.03
-112.26
-112.95
-112.67
-111.49
-109.06
-105.15
-99.95
-94.25
-89.13
-85.36
-83.03
-81.40
-79.24
-75.50
-69.78
-62.53
-54.81
-47.73
-42.02
-37.73
-34.34
-31.08
-27.28
-22.65
-17.40
-12.08
-7.34
-3.63
-1.06
0.73
2.34
4.52
7.88
12.90
19.78
28.39
38.23
48.45
57.97
65.74
71.19
74.39
76.04
77.09
78.23
79.51
80.22
79.25
75.56
68.63
58.67
46.45
33.01
19.32
6.15
-5.98
-16.72
-25.84
-33.23
-39.01
-43.55
-47.34
-50.79
-54.05
-56.92
-59.00
-59.86
-59.32
-57.61
-55.27
-52.94
-51.11
-49.97
-49.40
-49.02
-48.46
-47.43
-45.84
-43.78
-41.40
-38.89
-36.35
-33.77
-31.10
-28.32
-25.47
-22.76
-20.42
-18.67
-17.55
-16.99
-16.83
-17.00
-17.52
-18.47
-19.88
-21.68
-23.73
-25.93
-28.31
-30.90
-33.61
-36.10
-37.82
-38.35
-37.70
-36.43
-35.43
-35.47
-36.72
-38.70
-40.53
-41.46
-41.26
-40.29
-39.28
-38.84
-39.18
-40.07
-41.02
-41.59
-41.60
-41.15
-40.43
-39.60
-38.62
-37.21
-35.02
-31.75
-27.30
-21.77
-15.46
-8.75
-2.09
3.92
8.57
11.03
10.70
7.41
1.62
-5.71
-13.50
-20.89
-27.52
-33.42
-38.72
-43.37
-47.13
-49.65
-50.75
-50.57
-49.50
-48.02
-46.50
-45.21
-44.27
-43.75
-43.68
-44.03
-44.60
-45.06
-44.97
-43.99
-41.88
-38.50
-33.88
-28.07
-21.29
-13.83
-6.14
1.29
8.09
14.17
19.74
25.11
30.39
35.29
39.13
41.20
41.24
39.66
37.47
35.73
35.06
35.30
35.60
34.99
32.87
29.38
25.26
21.48
18.68
16.99
16.04
15.26
14.21
12.78
11.14
9.52
8.07
6.71
5.28
3.67
1.91
0.21
-1.24
-2.38
-3.36
-4.37
-5.58
-7.01
-8.52
-9.99
-11.33
-12.58
-13.83
-15.05
-16.10
-16.73
-16.68
-15.74
-13.89
-11.17
-7.65
-3.45
1.23
6.00
10.29
13.55
15.56
16.63
17.49
18.91
21.21
24.00
26.29
26.98
25.35
21.27
15.24
8.15
1.11
-4.70
-8.16
-8.44
-5.31
0.76
8.66
17.13
25.19
32.55
39.52
46.70
54.48
62.81
71.08
78.37
83.75
86.51
86.40
83.56
78.32
71.01
61.77
50.50
37.17
22.12
6.05
-10.30
-26.51
-42.65
-58.93
-74.94
-89.15
-98.96
-101.69
-95.93
-82.45
-64.25
-45.54
-30.18
-20.44
-16.59
-17.28
-20.61
-24.86
-28.92
-32.14
-34.10
-34.42
-32.86
-29.40
-24.35
-18.46
-12.59
-7.62
-4.12
-2.32
-1.98
-2.40
-2.67
-1.97
0.05
3.07
6.25
8.66
9.76
9.70
9.11
8.74
8.87
9.21
9.09
7.92
5.60
2.59
-0.42
-2.85
-4.49
-5.49
-6.14
-6.53
-6.57
-5.98
-4.53
-2.24
0.64
3.67
6.42
8.64
10.24
11.34
12.12
12.78
13.40
14.01
14.55
14.94
15.20
15.39
15.69
16.26
17.23
18.62
20.36
22.41
24.76
27.55
30.94
35.03
39.81
45.14
50.89
57.00
63.55
70.74
78.81
87.94
98.12
109.05
120.15
130.52
139.09
144.81
146.90
145.09
139.74
131.76
122.33
112.58
103.24
94.46
85.90
76.90
66.79
55.11
41.81
27.12
11.53
-4.31
-19.61
-33.58
-45.48
-54.92
-61.96
-67.14
-71.25
-75.11
-79.23
-83.78
-88.58
-93.31
-97.63
-101.17
-103.54
-104.34
-103.26
-100.17
-95.24
-88.88
-81.60
-73.84
-65.90
-58.02
-50.49
-43.72
-38.23
-34.44
-32.48
-32.04
-32.46
-32.96
-32.89
-32.00
-30.42
-28.53
-26.70
-25.25
-24.31
-23.99
-24.39
-25.58
-27.47
-29.76
-31.95
-33.54
-34.23
-33.97
-32.96
-31.39
-29.29
-26.39
-22.22
-16.38
-8.73
0.36
10.01
19.05
26.16
30.34
31.14
28.92
24.82
20.38
17.08
15.83
16.63
18.76
21.12
22.76
23.21
22.49
20.87
18.60
15.73
12.13
7.72
2.66
-2.57
-7.31
-10.94
-13.14
-13.96
-13.81
-13.26
-12.71
-12.29
-11.79
-10.85
-9.17
-6.71
-3.85
-1.17
0.70
1.37
0.83
-0.56
-2.26
-3.69
-4.50
-4.62
-4.23
-3.71
-3.40
-3.55
-4.25
-5.52
-7.31
-9.57
-12.24
-15.14
-18.02
-20.54
-22.39
-23.33
-23.25
-22.15
-20.09
-17.18
-13.57
-9.55
-5.52
-2.01
0.60
2.13
2.78
3.03
3.50
4.67
6.64
9.05
11.12
11.94
10.87
7.79
3.29
-1.54
-5.53
-8.00
-9.11
-9.86
-11.56
-15.13
-20.55
-26.74
-32.13
-35.46
-36.48
-36.02
-35.49
-36.08
-38.26
-41.85
-46.46
-51.87
-57.55
-61.99
-62.29
-54.99
-38.00
-12.40
16.91
42.93
59.67
65.01
61.50
54.51
48.98
46.79
46.41
44.79
40.01
32.79
25.87
21.86
21.14
21.40
18.88
10.76
-3.07
-19.68
-34.55
-43.73
-45.64
-41.53
-34.54
-27.96
-23.68
-21.65
-20.37
-18.11
-14.00
-8.39
-2.46
2.60
6.21
8.60
10.40
12.12
13.78
15.03
15.40
14.69
13.15
11.29
9.60
8.28
7.18
5.94
4.24
2.02
-0.41
-2.43
-3.46
-3.14
-1.58
0.77
3.23
5.25
6.56
7.27
7.66
8.06
8.61
9.26
9.81
10.06
9.92
9.46
8.87
8.36
8.09
8.09
8.21
8.25
7.98
7.25
6.06
4.52
2.74
0.74
-1.51
-4.06
-6.77
-9.31
-11.17
-11.97
-11.63
-10.47
-9.00
-7.70
-6.75
-6.04
-5.35
-4.59
-3.95
-3.72
-4.12
-5.02
-6.03
-6.72
-6.84
-6.50
-6.04
-5.81
-5.97
-6.36
-6.75
-6.92
-6.88
-6.79
-6.83
-7.04
-7.31
-7.48
-7.46
-7.32
-7.20
-7.19
-7.14
-6.71
-5.51
-3.31
-0.28
3.04
5.97
7.96
8.85
8.90
8.61
8.45
8.60
8.96
9.29
9.36
9.11
8.63
8.02
7.35
6.61
5.77
4.87
4.02
3.32
2.78
2.24
1.40
-0.02
-2.12
-4.76
-7.53
-9.87
-11.28
-11.42
-10.27
-8.05
-5.15
-1.99
1.12
3.97
6.49
8.66
10.48
11.90
12.92
13.50
13.72
13.69
13.56
13.42
13.25
12.95
12.39
11.47
10.25
8.90
7.67
6.71
6.00
5.33
4.41
3.01
1.09
-1.17
-3.48
-5.46
-6.86
-7.51
-7.34
-6.39
-4.79
-2.71
-0.40
1.89
3.94
5.61
6.87
7.72
8.20
8.28
7.97
7.32
6.46
5.52
4.67
3.97
3.42
2.95
2.48
1.99
1.52
1.14
0.88
0.72
0.54
0.19
-0.47
-1.50
-2.86
-4.37
-5.68
-6.42
-6.29
-5.15
-3.10
-0.47
2.28
4.75
6.68
8.05
9.00
9.71
10.32
10.83
11.18
11.29
11.12
10.71
10.11
9.37
8.46
7.34
6.01
4.55
3.11
1.85
0.84
0.01
-0.81
-1.86
-3.25
-4.93
-6.64
-7.97
-8.45
-7.79
-5.87
-2.92
0.63
4.23
7.42
9.95
11.89
13.50
15.10
16.85
18.66
20.18
20.96
20.70
19.35
17.19
14.67
12.25
10.26
8.76
7.60
6.48
5.14
3.46
1.48
-0.61
-2.62
-4.41
-5.99
-7.40
-8.65
-9.55
-9.76
-8.84
-6.47
-2.63
2.28
7.53
12.30
15.92
18.09
19.04
19.41
19.96
21.34
23.67
26.54
29.20
30.92
31.39
30.99
30.64
31.39
34.02
38.69
44.99
51.92
58.00
61.36
59.95
52.17
37.69
18.08
-3.25
-21.96
-34.38
-38.96
-36.88
-31.38
-26.16
-23.62
-24.04
-26.00
-27.62
-27.98
-27.62
-28.15
-31.09
-36.90
-44.52
-51.92
-57.04
-58.74
-57.21
-53.60
-49.28
-45.03
-40.67
-35.39
-28.36
-19.56
-10.02
-1.60
3.83
5.24
2.94
-1.49
-5.96
-8.77
-9.23
-7.77
-5.44
-3.23
-1.64
-0.56
0.45
1.79
3.49
5.30
6.77
7.59
7.70
7.32
6.73
6.16
5.70
5.31
4.88
4.37
3.76
3.03
2.21
1.31
0.36
-0.62
-1.65
-2.77
-4.11
-5.78
-7.80
-10.06
-12.26
-14.03
-14.98
-14.87
-13.67
-11.57
-8.90
-5.97
-3.02
-0.15
2.57
5.07
7.15
8.65
9.42
9.46
8.90
7.95
6.80
5.58
4.39
3.30
2.40
1.76
1.35
1.09
0.78
0.26
-0.60
-1.82
-3.38
-5.24
-7.31
-9.49
-11.60
-13.34
-14.35
-14.30
-13.07
-10.75
-7.68
-4.34
-1.13
1.70
4.08
6.10
7.81
9.16
10.05
10.34
10.02
9.21
8.15
7.08
6.15
5.37
4.66
3.96
3.20
2.43
1.69
0.98
0.23
-0.71
-2.03
-3.82
-6.03
-8.46
-10.74
-12.45
-13.25
-12.97
-11.62
-9.42
-6.70
-3.75
-0.83
1.94
4.45
6.63
8.39
9.62
10.30
10.49
10.34
9.99
9.55
8.99
8.23
7.21
5.90
4.41
2.92
1.64
0.65
-0.04
-0.58
-1.22
-2.22
-3.75
-5.84
-8.27
-10.65
-12.54
-13.55
-13.43
-12.22
-10.10
-7.36
-4.30
-1.20
1.75
4.43
6.73
8.62
10.09
11.18
11.94
12.42
12.58
12.38
11.78
10.78
9.52
8.14
6.79
5.56
4.47
3.49
2.61
1.81
1.06
0.24
-0.83
-2.38
-4.60
-7.46
-10.63
-13.54
-15.56
-16.18
-15.25
-13.02
-10.02
-6.86
-3.97
-1.50
0.64
2.65
4.65
6.59
8.26
9.45
10.03
10.03
9.66
9.12
8.59
8.13
7.70
7.21
6.62
5.93
5.17
4.43
3.75
3.13
2.52
1.79
0.84
-0.47
-2.23
-4.43
-6.98
-9.64
-12.04
-13.76
-14.39
-13.73
-11.81
-8.93
-5.57
-2.22
0.78
3.28
5.31
6.97
8.34
9.42
10.16
10.53
10.55
10.32
9.96
9.58
9.23
8.87
8.39
7.72
6.79
5.65
4.40
3.17
2.06
1.04
0.01
-1.18
-2.72
-4.66
-6.95
-9.38
-11.64
-13.39
-14.32
-14.28
-13.25
-11.36
-8.84
-5.97
-3.02
-0.16
2.49
4.92
7.08
8.93
10.36
11.29
11.67
11.55
11.09
10.51
9.97
9.54
9.15
8.65
7.91
6.89
5.69
4.46
3.34
2.32
1.30
0.09
-1.43
-3.29
-5.44
-7.77
-10.14
-12.35
-14.15
-15.21
-15.20
-13.96
-11.57
-8.36
-4.81
-1.38
1.66
4.22
6.35
8.12
9.55
10.66
11.45
11.97
12.27
12.39
12.31
12.02
11.50
10.77
9.89
8.92
7.95
7.01
6.14
5.34
4.55
3.65
2.47
0.92
-1.02
-3.20
-5.38
-7.37
-9.11
-10.69
-12.24
-13.81
-15.23
-16.14
-16.14
-14.98
-12.74
-9.80
-6.67
-3.82
-1.42
0.58
2.43
4.32
6.29
8.15
9.63
10.52
10.77
10.53
10.10
9.72
9.51
9.43
9.34
9.16
8.84
8.40
7.90
7.32
6.59
5.61
4.38
2.97
1.55
0.27
-0.86
-1.95
-3.27
-5.00
-7.19
-9.68
-12.11
-14.04
-15.08
-15.05
-13.94
-11.99
-9.51
-6.83
-4.20
-1.76
0.44
2.45
4.37
6.22
7.93
9.35
10.25
10.49
10.09
9.28
8.34
7.57
7.12
6.96
6.97
6.98
6.88
6.58
6.00
5.11
3.92
2.55
1.18
-0.01
-0.96
-1.78
-2.69
-3.91
-5.54
-7.50
-9.55
-11.39
-12.72
-13.30
-13.01
-11.83
-9.90
-7.47
-4.88
-2.44
-0.33
1.41
2.89
4.19
5.36
6.33
7.01
7.35
7.44
7.42
7.41
7.49
7.58
7.56
7.32
6.81
6.06
5.11
4.01
2.80
1.50
0.19
-1.07
-2.22
-3.28
-4.31
-5.48
-6.91
-8.68
-10.79
-13.15
-15.54
-17.68
-19.29
-20.17
-20.23
-19.59
-18.43
-16.94
-15.22
-13.25
-11.01
-8.57
-6.18
-4.24
-3.10
-2.85
-3.33
-4.24
-5.33
-6.52
-7.94
-9.75
-11.95
-14.36
-16.80
-19.17
-21.45
-23.43
-24.57
-24.00
-21.01
-15.52
-8.38
-1.15
4.50
7.57
8.11
6.98
5.34
3.96
2.97
2.02
0.78
-0.71
-2.00
-2.47
-1.75
0.08
2.50
4.84
6.55
7.50
8.00
8.55
9.56
11.12
12.97
14.62
15.62
15.78
15.27
14.48
13.84
13.57
13.63
13.80
13.80
13.49
12.92
12.23
11.52
10.79
9.92
8.75
7.17
5.22
3.02
0.75
-1.44
-3.47
-5.31
-7.04
-8.77
-10.60
-12.49
-14.25
-15.48
-15.76
-14.85
-12.80
-9.99
-6.97
-4.20
-1.88
0.08
1.95
3.96
6.19
8.53
10.78
12.76
14.40
15.73
16.81
17.69
18.39
18.92
19.28
19.50
19.56
19.35
18.74
17.62
16.02
14.06
11.99
10.00
8.18
6.45
4.65
2.66
0.42
-2.02
-4.59
-7.24
-9.91
-12.49
-14.74
-16.29
-16.79
-16.10
-14.39
-12.09
-9.75
-7.76
-6.20
-4.84
-3.35
-1.47
0.80
3.24
5.52
7.39
8.70
9.51
9.96
10.23
10.48
10.81
11.22
11.60
11.79
11.62
11.01
10.01
8.76
7.43
6.13
4.82
3.40
1.73
-0.23
-2.44
-4.76
-7.04
-9.16
-11.03
-12.55
-13.60
-13.99
-13.59
-12.40
-10.58
-8.41
-6.16
-4.03
-2.07
-0.21
1.58
3.29
4.82
6.04
6.84
7.25
7.35
7.26
7.06
6.77
6.38
5.86
5.24
4.54
3.80
3.01
2.12
1.07
-0.18
-1.62
-3.20
-4.89
-6.68
-8.60
-10.57
-12.46
-13.98
-14.80
-14.72
-13.69
-11.90
-9.62
-7.12
-4.56
-1.99
0.62
3.26
5.80
8.03
9.71
10.71
11.07
11.00
10.78
10.62
10.59
10.57
10.42
10.03
9.39
8.61
7.81
7.01
6.15
5.08
3.75
2.22
0.63
-0.88
-2.28
-3.70
-5.39
-7.51
-10.03
-12.61
-14.66
-15.55
-14.90
-12.68
-9.32
-5.46
-1.76
1.36
3.80
5.72
7.36
8.89
10.37
11.73
12.84
13.58
13.87
13.67
13.06
12.22
11.37
10.69
10.23
9.87
9.36
8.48
7.14
5.41
3.50
1.67
0.13
-1.02
-1.81
-2.50
-3.50
-5.30
-8.26
-12.33
-16.97
-21.26
-24.18
-25.07
-23.87
-21.01
-17.20
-13.02
-8.76
-4.42
0.01
4.39
8.38
11.59
13.77
14.93
15.37
15.48
15.58
15.80
16.07
16.26
16.23
15.93
15.42
14.79
14.13
13.49
12.85
12.12
11.22
10.10
8.71
7.03
5.06
2.77
0.15
-2.74
-5.74
-8.57
-10.93
-12.53
-13.18
-12.87
-11.73
-10.06
-8.21
-6.57
-5.38
-4.71
-4.45
-4.43
-4.49
-4.65
-5.06
-5.90
-7.24
-8.91
-10.59
-11.88
-12.51
-12.44
-11.85
-10.99
-10.14
-9.47
-9.08
-9.05
-9.38
-10.07
-11.04
-12.19
-13.38
-14.51
-15.57
-16.63
-17.85
-19.38
-21.20
-23.17
-24.91
-25.97
-26.00
-24.83
-22.59
-19.58
-16.16
-12.59
-9.00
-5.40
-1.88
1.38
4.19
6.43
8.16
9.67
11.29
13.19
15.25
17.13
18.47
19.10
19.09
18.68
18.11
17.43
16.51
15.15
13.21
10.71
7.79
4.68
1.55
-1.48
-4.38
-7.16
-9.88
-12.63
-15.48
-18.38
-21.12
-23.35
-24.66
-24.74
-23.51
-21.10
-17.83
-14.08
-10.19
-6.40
-2.86
0.35
3.18
5.61
7.59
9.12
10.18
10.81
11.10
11.18
11.22
11.36
11.64
12.01
12.34
12.46
12.29
11.80
10.99
9.93
8.68
7.33
5.97
4.71
3.58
2.60
1.65
0.54
-0.93
-2.83
-5.10
-7.47
-9.53
-10.85
-11.08
-10.07
-7.91
-4.90
-1.45
2.02
5.20
7.97
10.40
12.67
14.92
17.17
19.30
21.05
22.22
22.74
22.79
22.74
23.03
23.95
25.46
27.22
28.65
29.29
29.05
28.34
27.85
28.25
29.77
32.07
34.41
35.90
35.85
33.75
29.29
22.36
13.22
2.85
-7.12
-14.79
-18.91
-19.50
-18.12
-17.05
-18.15
-21.89
-27.09
-31.68
-33.87
-33.12
-30.29
-26.99
-24.58
-23.53
-23.42
-23.42
-23.02
-22.36
-21.95
-22.30
-23.44
-24.91
-26.16
-26.95
-27.62
-28.87
-31.37
-35.27
-40.11
-44.97
-49.01
-51.77
-53.30
-53.92
-53.87
-53.11
-51.36
-48.27
-43.74
-37.92
-31.22
-24.08
-16.85
-9.73
-2.92
3.42
9.05
13.74
17.36
19.92
21.56
22.54
23.15
23.65
24.23
24.96
25.74
26.38
26.65
26.42
25.73
24.81
23.90
23.13
22.41
21.47
20.06
18.08
15.61
12.92
10.32
8.03
6.17
4.81
4.02
3.95
4.74
6.40
8.76
11.49
14.16
16.52
18.50
20.19
21.77
23.32
24.72
25.74
26.16
25.92
25.11
24.01
22.87
21.89
21.11
20.46
19.79
18.95
17.84
16.41
14.73
12.89
10.99
9.09
7.22
5.30
3.20
0.77
-2.06
-5.31
-8.81
-12.24
-15.12
-17.00
-17.56
-16.78
-14.88
-12.29
-9.40
-6.55
-3.85
-1.32
1.07
3.39
5.67
7.91
10.00
11.71
12.78
12.98
12.26
10.84
9.10
7.46
6.22
5.43
4.98
4.63
4.21
3.66
2.98
2.23
1.43
0.53
-0.56
-1.96
-3.78
-6.06
-8.76
-11.67
-14.47
-16.75
-18.12
-18.29
-17.22
-15.04
-12.07
-8.68
-5.22
-1.93
1.03
3.61
5.80
7.64
9.17
10.45
11.49
12.28
12.78
13.00
12.97
12.79
12.51
12.13
11.56
10.71
9.54
8.15
6.70
5.35
4.16
3.07
1.95
0.69
-0.77
-2.36
-4.04
-5.82
-7.83
-10.14
-12.70
-15.22
-17.26
-18.42
-18.47
-17.43
-15.55
-13.14
-10.44
-7.56
-4.57
-1.51
1.50
4.28
6.66
8.53
9.89
10.80
11.31
11.51
11.44
11.15
10.74
10.33
10.08
10.10
10.41
10.91
11.37
11.55
11.26
10.48
9.36
8.09
6.88
5.79
4.80
3.77
2.56
1.02
-0.92
-3.23
-5.77
-8.26
-10.36
-11.71
-12.08
-11.40
-9.85
-7.73
-5.39
-3.11
-1.08
0.70
2.25
3.64
4.86
5.80
6.33
6.39
6.06
5.54
5.10
4.90
4.97
5.16
5.29
5.26
5.13
5.01
4.98
4.95
4.68
3.90
2.46
0.38
-2.17
-4.91
-7.64
-10.24
-12.68
-14.92
-16.89
-18.49
-19.64
-20.36
-20.70
-20.75
-20.52
-19.92
-18.80
-17.00
-14.49
-11.39
-7.94
-4.45
-1.14
1.83
4.40
6.55
8.29
9.59
10.48
10.98
11.19
11.19
11.10
10.97
10.82
10.63
10.36
9.98
9.50
8.93
8.33
7.68
6.94
5.98
4.69
3.02
1.04
-1.06
-3.08
-4.88
-6.50
-8.15
-10.11
-12.60
-15.64
-19.06
-22.52
-25.61
-27.97
-29.34
-29.60
-28.77
-26.97
-24.45
-21.51
-18.47
-15.56
-12.96
-10.71
-8.82
-7.28
-6.12
-5.44
-5.27
-5.61
-6.34
-7.22
-8.07
-8.70
-9.05
-9.11
-8.88
-8.33
-7.46
-6.34
-5.12
-4.04
-3.26
-2.80
-2.55
-2.26
-1.79
-1.10
-0.37
0.19
0.35
0.04
-0.71
-1.71
-2.69
-3.32
-3.26
-2.18
0.10
3.56
7.97
12.91
17.97
22.82
27.30
31.38
35.14
38.57
41.62
44.15
46.06
47.30
47.96
48.22
48.26
48.17
47.88
47.21
45.94
43.96
41.34
38.32
35.24
32.41
29.96
27.89
26.05
24.21
22.14
19.62
16.51
12.80
8.58
4.11
-0.25
-4.09
-7.05
-8.80
-9.19
-8.23
-6.14
-3.32
-0.29
2.44
4.53
5.84
6.41
6.38
5.92
5.15
4.14
2.94
1.53
-0.07
-1.88
-3.87
-5.90
-7.79
-9.31
-10.36
-10.98
-11.33
-11.64
-12.09
-12.80
-13.80
-15.12
-16.81
-18.93
-21.46
-24.21
-26.80
-28.72
-29.48
-28.85
-26.89
-23.99
-20.66
-17.38
-14.43
-11.84
-9.49
-7.23
-5.01
-2.89
-0.98
0.57
1.69
2.38
2.69
2.73
2.60
2.40
2.19
1.98
1.72
1.40
1.03
0.63
0.22
-0.25
-0.95
-2.06
-3.74
-5.98
-8.53
-11.01
-12.94
-13.89
-13.67
-12.30
-10.10
-7.48
-4.84
-2.41
-0.22
1.86
3.94
6.06
8.05
9.70
10.82
11.38
11.50
11.36
11.08
10.67
10.05
9.16
8.05
6.90
5.90
5.14
4.57
4.03
3.32
2.30
0.93
-0.80
-2.82
-5.09
-7.42
-9.54
-11.08
-11.65
-11.04
-9.27
-6.64
-3.58
-0.53
2.20
4.47
6.30
7.75
8.88
9.69
10.16
10.28
10.08
9.69
9.25
8.87
8.58
8.28
7.81
7.09
6.16
5.21
4.47
4.04
3.83
3.56
2.84
1.42
-0.74
-3.40
-6.19
-8.72
-10.65
-11.79
-12.01
-11.30
-9.71
-7.44
-4.76
-1.98
0.65
3.07
5.29
7.38
9.34
11.01
12.17
12.63
12.36
11.50
10.33
9.10
7.91
6.70
5.32
3.67
1.80
-0.07
-1.71
-2.98
-3.93
-4.74
-5.58
-6.54
-7.60
-8.70
-9.85
-11.07
-12.38
-13.67
-14.64
-14.88
-14.05
-12.08
-9.18
-5.87
-2.68
-0.02
1.98
3.40
4.39
5.07
5.40
5.28
4.66
3.62
2.42
1.38
0.67
0.24
-0.18
-0.94
-2.19
-3.80
-5.29
-6.13
-6.03
-5.09
-3.79
-2.75
-2.44
-3.03
-4.37
-6.18
-8.18
-10.19
-12.01
-13.36
-13.90
-13.35
-11.67
-9.16
-6.38
-3.86
-1.95
-0.69
0.12
0.73
1.29
1.77
2.05
2.01
1.60
0.91
0.08
-0.75
-1.48
-2.10
-2.63
-3.06
-3.41
-3.65
-3.80
-3.87
-3.98
-4.28
-4.96
-6.13
-7.80
-9.79
-11.80
-13.44
-14.37
-14.39
-13.46
-11.71
-9.37
-6.71
-4.03
-1.56
0.51
2.07
3.13
3.73
3.93
3.77
3.28
2.47
1.44
0.34
-0.71
-1.58
-2.30
-2.93
-3.55
-4.20
-4.85
-5.47
-6.08
-6.79
-7.68
-8.81
-10.11
-11.39
-12.43
-12.98
-12.88
-12.10
-10.68
-8.74
-6.48
-4.08
-1.67
0.63
2.76
4.72
6.47
7.98
9.18
10.01
10.39
10.32
9.87
9.17
8.39
7.67
7.08
6.58
6.07
5.43
4.61
3.63
2.53
1.30
-0.15
-1.96
-4.18
-6.71
-9.22
-11.28
-12.47
-12.55
-11.53
-9.68
-7.35
-4.89
-2.52
-0.36
1.51
2.99
4.00
4.47
4.46
4.12
3.63
3.15
2.77
2.42
1.95
1.26
0.30
-0.84
-1.99
-3.00
-3.76
-4.30
-4.71
-5.20
-5.93
-7.03
-8.50
-10.20
-11.88
-13.25
-14.00
-13.92
-12.95
-11.20
-8.91
-6.39
-3.92
-1.71
0.15
1.62
2.70
3.43
3.83
3.95
3.87
3.65
3.28
2.76
2.03
1.06
-0.14
-1.46
-2.78
-4.00
-5.08
-6.09
-7.17
-8.49
-10.20
-12.33
-14.84
-17.55
-20.21
-22.57
-24.38
-25.48
-25.78
-25.28
-24.04
-22.23
-20.12
-18.05
-16.44
-15.59
-15.54
-15.96
-16.12
-15.21
-12.60
-8.10
-1.94
5.39
13.32
21.37
29.01
35.71
40.95
44.45
46.48
47.81
49.20
50.77
51.45
49.20
42.01
29.18
12.09
-6.13
-21.93
-32.86
-38.47
-40.01
-39.39
-37.96
-36.12
-33.65
-30.43
-26.66
-22.53
-17.70
-11.37
-2.93
7.05
16.45
22.29
22.20
15.77
4.82
-7.53
-18.45
-26.56
-32.06
-36.01
-39.27
-42.10
-44.32
-45.80
-46.92
-48.32
-50.46
-53.18
-55.64
-56.63
-55.03
-50.26
-42.35
-31.94
-19.98
-7.54
4.42
15.29
24.80
33.05
40.26
46.64
52.25
57.05
61.03
64.36
67.33
70.33
73.53
76.80
79.72
81.81
82.73
82.45
81.26
79.61
77.90
76.29
74.66
72.65
69.93
66.33
62.01
57.46
53.34
50.22
48.39
47.68
47.53
47.13
45.66
42.54
37.49
30.61
22.38
13.45
4.62
-3.34
-9.88
-14.78
-18.26
-20.99
-23.88
-27.70
-32.75
-38.70
-44.67
-49.64
-52.92
-54.44
-54.72
-54.60
-54.70
-55.06
-54.99
-53.41
-49.34
-42.51
-33.60
-24.10
-15.76
-9.88
-6.84
-5.98
-5.98
-5.39
-3.06
1.55
8.37
16.76
25.51
32.97
37.42
37.56
33.16
25.29
16.08
7.88
2.32
-0.23
-0.58
-0.06
0.05
-0.94
-3.28
-6.89
-11.65
-17.30
-23.39
-29.15
-33.59
-35.77
-35.04
-31.16
-24.25
-14.63
-2.70
11.02
25.71
40.18
52.78
61.52
64.40
59.85
47.44
28.30
5.18
-18.17
-38.09
-52.12
-59.68
-61.95
-61.09
-59.30
-58.04
-57.94
-59.02
-61.15
-64.32
-68.59
-73.93
-80.03
-86.23
-91.66
-95.32
-96.34
-94.11
-88.60
-80.25
-69.85
-58.15
-45.63
-32.52
-19.03
-5.75
6.28
15.79
21.83
24.23
23.73
21.66
19.39
17.82
17.23
17.42
18.02
18.74
19.50
20.41
21.68
23.49
25.90
28.76
31.72
34.29
35.98
36.56
36.15
35.20
34.30
33.86
33.95
34.25
34.20
33.28
31.19
27.99
23.93
19.34
14.54
9.79
5.39
1.76
-0.62
-1.38
-0.41
1.97
5.12
8.16
10.28
10.88
9.82
7.40
4.33
1.51
-0.32
-0.81
-0.29
0.40
0.22
-1.65
-5.34
-10.21
-15.05
-18.46
-19.46
-17.81
-14.07
-9.31
-4.65
-0.80
2.06
4.10
5.56
6.37
6.27
5.00
2.67
-0.18
-2.73
-4.40
-5.14
-5.47
-6.08
-7.45
-9.43
-11.42
-12.63
-12.58
-11.26
-9.17
-6.99
-5.19
-3.85
-2.60
-0.88
1.74
5.30
9.47
13.64
17.29
20.12
22.09
23.32
24.01
24.24
24.02
23.26
21.80
19.42
15.89
11.14
5.30
-1.14
-7.53
-13.24
-17.85
-21.19
-23.29
-24.15
-23.71
-21.90
-18.82
-14.78
-10.40
-6.38
-3.27
-1.36
-0.61
-0.69
-1.15
-1.53
-1.55
-1.13
-0.38
0.47
1.24
1.81
2.19
2.40
2.51
2.58
2.67
2.86
3.25
3.90
4.75
5.67
6.43
6.84
6.79
6.33
5.66
5.01
4.65
4.71
5.14
5.70
6.06
5.89
5.06
3.69
2.06
0.53
-0.68
-1.52
-2.11
-2.63
-3.23
-3.96
-4.74
-5.48
-6.00
-6.19
-5.98
-5.45
-4.77
-4.21
-3.98
-4.16
-4.65
-5.17
-5.40
-5.12
-4.26
-2.94
-1.43
-0.03
0.97
1.40
1.26
0.73
0.13
-0.21
-0.14
0.26
0.71
0.82
0.33
-0.79
-2.39
-4.18
-5.97
-7.74
-9.56
-11.53
-13.63
-15.70
-17.48
-18.73
-19.22
-18.77
-17.30
-14.83
-11.54
-7.86
-4.31
-1.42
0.50
1.43
1.64
1.54
1.46
1.57
1.90
2.46
3.32
4.58
6.27
8.21
10.04
11.31
11.67
10.99
9.45
7.40
5.18
3.06
1.16
-0.45
-1.70
-2.39
-2.31
-1.30
0.61
3.16
5.96
8.62
10.90
12.76
14.33
15.72
16.90
17.71
17.93
17.44
16.37
15.01
13.76
12.88
12.39
12.12
11.80
11.24
10.43
9.46
8.45
7.42
6.27
4.89
3.27
1.59
0.16
-0.69
-0.83
-0.40
0.31
1.03
1.69
2.52
3.81
5.78
8.30
10.93
13.01
14.05
13.91
12.90
11.63
10.65
10.24
10.26
10.28
9.84
8.72
7.00
4.98
2.96
1.00
-1.00
-3.21
-5.57
-7.71
-9.07
-9.19
-7.94
-5.60
-2.71
0.22
2.86
5.14
7.06
8.64
9.84
10.66
11.25
11.81
12.53
13.40
14.18
14.52
14.21
13.37
12.35
11.61
11.35
11.51
11.72
11.54
10.63
8.82
6.01
2.23
-2.32
-7.19
-11.56
-14.52
-15.34
-13.94
-11.00
-7.83
-5.78
-5.72
-7.72
-11.07
-14.66
-17.43
-18.52
-17.43
-13.92
-7.97
0.20
10.01
20.61
31.02
40.37
48.15
54.22
58.73
61.90
63.75
64.07
62.44
58.56
52.36
44.28
35.27
26.70
19.92
15.75
14.01
13.29
11.20
5.28
-5.83
-21.43
-38.58
-52.96
-60.35
-58.19
-46.27
-26.71
-2.91
21.46
43.24
60.02
70.22
73.12
69.07
59.54
46.80
33.36
21.14
11.05
3.04
-3.49
-9.13
-14.26
-18.98
-23.25
-26.97
-29.99
-32.09
-33.07
-32.89
-31.76
-30.17
-28.63
-27.48
-26.74
-26.14
-25.30
-23.89
-21.75
-18.94
-15.71
-12.42
-9.49
-7.27
-5.95
-5.47
-5.57
-5.87
-5.97
-5.65
-4.84
-3.66
-2.30
-0.95
0.31
1.46
2.54
3.53
4.31
4.71
4.55
3.78
2.51
1.01
-0.40
-1.46
-2.14
-2.57
-3.03
-3.78
-4.94
-6.52
-8.41
-10.46
-12.49
-14.35
-15.83
-16.72
-16.95
-16.54
-15.67
-14.59
-13.49
-12.42
-11.30
-10.09
-8.85
-7.80
-7.19
-7.16
-7.57
-8.10
-8.33
-7.98
-7.05
-5.77
-4.49
-3.53
-3.05
-3.02
-3.31
-3.84
-4.60
-5.65
-7.04
-8.75
-10.64
-12.45
-13.95
-14.92
-15.38
-15.48
-15.58
-16.15
-17.88
-21.65
-28.37
-38.62
-52.22
-67.93
-83.41
-95.75
-102.28
-101.40
-93.07
-78.72
-60.71
-41.56
-23.43
-7.83
4.24
12.15
15.64
14.83
10.32
3.08
-5.77
-15.25
-24.72
-33.81
-42.21
-49.31
-54.13
-55.40
-52.06
-43.56
-30.23
-13.26
5.42
23.49
38.68
49.15
53.91
53.00
47.55
39.38
30.46
22.27
15.38
9.53
4.12
-1.17
-6.05
-9.70
-11.30
-10.53
-7.84
-4.24
-0.87
1.55
2.90
3.57
4.16
5.03
6.13
7.02
7.14
6.07
3.85
0.93
-1.99
-4.26
-5.47
-5.43
-3.99
-0.86
4.36
11.90
21.53
32.40
43.25
52.80
60.13
64.91
67.18
67.16
65.01
60.91
55.18
48.43
41.45
34.90
29.15
24.16
19.70
15.68
12.38
10.53
10.92
14.00
19.35
25.70
31.25
34.38
34.29
31.33
26.88
22.78
20.58
21.03
23.80
27.78
31.60
34.22
35.33
35.43
35.46
36.35
38.48
41.57
44.76
47.06
47.83
47.00
45.02
42.52
39.99
37.49
34.82
31.71
28.17
24.62
21.68
19.89
19.34
19.61
19.94
19.65
18.50
16.84
15.41
15.05
16.27
19.09
23.12
27.68
32.15
36.10
39.33
41.79
43.44
44.11
43.48
41.07
36.50
29.55
20.32
9.22
-3.11
-15.81
-27.90
-38.43
-46.64
-52.25
-55.57
-57.38
-58.59
-59.78
-61.00
-61.81
-61.73
-60.63
-58.87
-57.13
-56.00
-55.62
-55.64
-55.61
-55.32
-55.13
-55.81
-58.23
-62.87
-69.55
-77.36
-85.00
-91.11
-94.67
-95.16
-92.47
-86.75
-78.31
-67.62
-55.41
-42.79
-31.08
-21.56
-15.09
-11.78
-10.96
-11.49
-12.14
-12.00
-10.65
-8.11
-4.62
-0.50
3.97
8.56
13.02
17.20
20.91
24.04
26.56
28.61
30.39
32.15
33.96
35.74
37.32
38.56
39.46
40.07
40.28
39.67
37.64
33.81
28.38
22.34
17.04
13.53
11.96
11.72
11.87
11.81
11.37
10.41
8.34
4.13
-3.01
-12.77
-23.37
-32.11
-36.79
-36.90
-33.82
-29.94
-27.15
-25.87
-25.11
-23.48
-20.27
-15.96
-11.86
-9.16
-8.31
-8.87
-9.87
-10.38
-9.79
-7.93
-4.91
-0.96
3.56
8.11
11.89
14.04
13.97
11.71
8.20
5.09
4.18
6.82
13.19
22.34
32.52
42.01
49.89
56.34
62.45
69.53
78.33
88.52
98.73
106.87
110.93
109.55
102.48
90.66
75.86
60.21
45.53
33.00
22.91
14.89
8.31
2.74
-1.80
-4.89
-6.15
-5.66
-4.24
-3.17
-3.60
-5.93
-9.55
-13.15
-15.54
-16.28
-15.98
-15.89
-17.05
-19.71
-23.12
-26.10
-27.73
-27.94
-27.39
-26.79
-26.25
-25.15
-22.77
-19.20
-15.77
-14.56
-17.19
-23.58
-31.77
-38.95
-43.17
-44.52
-44.81
-46.07
-48.81
-51.41
-51.02
-45.39
-34.19
-18.83
-1.27
17.10
35.50
52.75
66.27
72.39
68.22
53.90
33.54
13.51
-0.79
-7.78
-10.03
-11.95
-16.53
-23.40
-29.65
-32.40
-31.06
-27.52
-24.28
-22.27
-20.26
-16.20
-9.48
-2.06
2.54
1.51
-5.18
-14.78
-23.68
-29.74
-33.29
-36.41
-41.07
-47.74
-55.30
-62.18
-67.35
-70.71
-72.47
-72.34
-69.59
-63.63
-54.93
-45.29
-37.13
-32.36
-31.26
-32.42
-33.36
-31.74
-26.23
-16.88
-4.87
7.95
19.51
27.92
31.82
30.93
26.36
20.47
15.99
14.81
17.16
21.58
25.89
28.41
28.77
27.80
26.45
24.79
21.62
15.19
4.57
-9.39
-24.14
-36.65
-45.00
-49.42
-51.94
-55.21
-61.02
-69.50
-79.31
-88.72
-96.63
-103.16
-109.43
-116.86
-126.51
-138.84
-154.01
-171.97
-192.26
-213.40
-232.13
-243.40
-241.62
-223.22
-189.28
-146.41
-105.04
-75.14
-61.63
-61.92
-67.13
-66.60
-53.14
-25.99
9.86
47.33
81.38
111.11
138.76
166.82
195.28
220.95
239.12
246.33
242.41
230.46
215.22
200.73
188.43
177.02
163.69
146.07
123.66
98.42
73.84
53.41
39.14
30.53
24.59
16.74
2.58
-20.04
-49.46
-80.28
-105.13
-117.87
-116.61
-104.59
-88.55
-75.33
-68.62
-67.80
-69.27
-68.81
-63.44
-51.44
-31.89
-4.14
31.12
70.17
105.53
127.58
128.56
106.60
67.66
23.87
-11.33
-28.87
-27.64
-14.60
-1.09
2.53
-8.54
-31.74
-58.84
-80.17
-89.06
-84.21
-69.57
-51.45
-35.08
-22.43
-12.18
-1.47
11.78
27.29
42.56
54.46
60.89
61.85
59.40
56.51
55.96
59.22
66.33
76.20
87.19
97.63
106.09
111.48
113.29
111.77
108.04
103.82
100.84
100.23
102.29
106.85
113.76
123.21
135.42
149.46
162.53
169.79
165.41
144.53
104.87
47.64
-22.79
-99.80
-175.89
-243.25
-294.50
-323.51
-326.71
-304.81
-263.86
-214.61
-170.03
-141.26
-133.69
-145.25
-167.41
-188.73
-199.24
-193.62
-171.82
-137.30
-94.42
-46.73
3.07
51.80
94.84
126.46
141.83
139.55
122.95
99.23
76.71
61.41
54.96
54.79
56.16
55.13
50.47
43.74
37.65
33.79
31.25
27.18
18.90
6.25
-7.16
-15.12
-11.71
5.54
33.94
66.52
95.06
113.70
121.27
121.26
119.41
120.73
127.25
137.68
148.82
157.61
162.65
164.30
163.69
161.71
158.54
154.32
150.00
147.73
149.87
157.27
167.75
175.95
174.82
158.32
124.09
74.87
17.90
-37.38
-82.37
-111.80
-124.83
-124.46
-115.73
-103.67
-91.78
-81.53
-72.93
-65.28
-57.93
-50.43
-42.36
-33.08
-21.89
-8.39
7.16
23.83
40.36
55.39
67.70
76.10
79.24
75.62
63.64
41.77
8.73
-35.97
-91.10
-152.75
-213.91
-265.29
-297.55
-304.19
-284.04
-241.96
-187.33
-131.04
-82.16
-45.74
-22.26
-8.54
0.52
9.89
22.64
39.04
56.59
71.22
79.01
77.87
68.67
54.89
41.65
34.11
36.00
48.58
70.47
98.15
126.73
151.24
167.62
173.43
168.63
155.40
137.47
119.05
103.33
91.21
81.02
68.92
50.41
22.58
-15.28
-61.57
-112.77
-163.87
-209.02
-241.31
-255.07
-248.32
-223.13
-186.34
-147.02
-112.55
-85.61
-64.38
-42.89
-15.67
19.49
63.40
115.00
172.58
233.97
295.94
353.18
401.95
439.17
463.01
475.67
480.83
482.29
482.57
481.89
477.74
469.97
459.10
428.37
367.19
274.53
161.35
45.43
-48.61
-121.50
-179.76
-229.25
-272.32
-309.26
-338.85
-360.94
-377.81
-395.57
-422.88
-464.26
-520.22
-585.67
-651.28
-705.70
-738.38
-733.27
-684.96
-602.21
-501.98
-411.77
-339.26
-283.06
-239.88
-207.11
-185.34
-176.06
-178.15
-184.91
-187.37
-177.34
-153.17
-118.67
-79.82
-42.03
-9.22
17.08
37.81
54.90
71.24
88.04
106.29
127.52
153.39
184.24
218.37
251.60
278.10
292.83
292.34
277.58
254.07
229.53
210.40
199.90
197.90
202.31
210.87
220.93
229.63
233.99
231.58
221.87
207.47
193.77
186.78
190.22
203.09
219.99
233.34
236.56
226.43
203.53
171.05
132.80
91.71
49.57
7.94
-30.91
-63.44
-85.76
-95.53
-93.47
-83.52
-71.21
-61.20
-55.27
-52.06
-48.58
-42.47
-33.69
-24.59
-18.75
-19.01
-26.16
-38.44
-52.32
-64.03
-71.20
-73.83
-73.99
-74.67
-78.10
-84.58
-92.40
-98.91
-102.02
-101.39
-98.50
-95.62
-94.51
-95.48
-97.39
-98.45
-97.26
-93.46
-87.77
-81.63
-76.51
-73.48
-72.85
-74.15
-76.26
-77.84
-77.99
-76.80
-75.53
-76.13
-80.35
-88.70
-100.03
-111.90
-121.42
-126.17
-124.72
-116.70
-102.53
-83.39
-61.25
-38.74
-18.73
-3.42
6.60
12.75
17.97
25.37
36.85
52.21
69.42
85.66
98.62
107.42
112.70
116.03
119.00
122.50
126.44
130.05
132.39
132.90
131.52
128.65
124.76
120.08
114.56
107.91
99.89
90.51
80.20
69.83
60.49
53.17
48.42
46.04
45.13
44.33
42.35
38.58
33.33
27.77
23.25
20.64
19.74
19.46
18.30
15.26
10.30
4.44
-0.87
-4.42
-5.82
-5.51
-4.46
-3.52
-3.06
-2.88
-2.44
-1.22
0.97
3.88
6.93
9.27
9.90
7.77
1.97
-7.88
-21.19
-36.25
-50.49
-61.24
-66.84
-67.37
-64.82
-62.41
-63.34
-69.59
-81.33
-96.92
-113.49
-127.54
-135.65
-135.02
-124.05
-103.02
-74.24
-41.86
-10.63
15.53
34.73
47.26
54.70
58.55
59.33
56.80
51.05
43.46
36.86
34.43
38.10
47.37
59.44
70.52
77.65
79.91
78.41
75.22
72.02
69.43
67.08
64.30
60.81
56.97
53.43
50.76
49.00
47.62
45.81
42.80
38.15
31.91
24.58
16.87
9.59
3.32
-1.72
-5.66
-8.95
-12.11
-15.45
-18.97
-22.30
-24.84
-26.03
-25.67
-24.08
-22.16
-21.20
-22.37
-26.19
-32.14
-38.64
-43.54
-44.93
-41.86
-34.81
-25.41
-15.80
-7.74
-2.06
1.37
3.33
4.61
5.61
6.19
5.90
4.21
0.95
-3.57
-8.36
-11.81
-11.84
-6.45
5.46
23.26
44.20
63.95
78.00
83.41
80.11
70.85
59.91
51.06
45.96
43.76
41.97
38.12
30.97
20.88
9.15
-3.03
-15.18
-27.53
-40.36
-53.44
-65.75
-75.91
-82.78
-85.99
-85.99
-83.85
-80.67
-77.24
-73.78
-70.09
-65.79
-60.64
-54.72
-48.55
-42.93
-38.68
-36.33
-35.91
-36.90
-38.44
-39.63
-39.91
-39.27
-38.11
-37.06
-36.56
-36.71
-37.28
-37.90
-38.32
-38.52
-38.63
-38.71
-38.67
-38.20
-36.89
-34.38
-30.42
-24.87
-17.74
-9.16
0.47
10.55
20.32
29.07
36.26
41.63
45.15
46.91
47.10
46.05
44.26
42.38
41.14
41.21
43.16
47.34
53.76
61.80
69.81
75.08
74.31
64.61
44.67
15.58
-19.23
-54.86
-86.15
-108.79
-119.96
-118.46
-104.72
-80.76
-50.17
-17.66
11.77
34.10
47.32
51.87
50.15
45.32
40.14
36.18
33.70
32.15
30.87
29.45
27.90
26.42
25.16
24.03
22.77
21.16
19.14
16.89
14.73
12.90
11.44
10.22
8.98
7.51
5.77
3.94
2.28
1.03
0.25
-0.24
-0.76
-1.58
-2.80
-4.22
-5.45
-6.08
-5.81
-4.60
-2.65
-0.32
2.01
3.99
5.38
6.07
6.10
5.66
5.02
4.44
4.13
4.16
4.44
4.85
5.23
5.48
5.50
5.25
4.68
3.80
2.67
1.33
-0.14
-1.71
-3.38
-5.14
-6.95
-8.74
-10.45
-12.03
-13.50
-14.93
-16.33
-17.64
-18.71
-19.43
-19.76
-19.85
-19.93
-20.16
-20.52
-20.73
-20.40
-19.26
-17.33
-15.04
-13.04
-11.97
-12.18
-13.54
-15.53
-17.44
-18.60
-18.57
-17.19
-14.61
-11.19
-7.42
-3.80
-0.74
1.57
3.13
4.19
4.97
5.63
6.07
6.06
5.35
3.91
1.95
-0.09
-1.77
-2.86
-3.39
-3.70
-4.18
-5.14
-6.64
-8.51
-10.43
-12.14
-13.42
-14.18
-14.32
-13.76
-12.41
-10.28
-7.58
-4.70
-2.11
-0.22
0.87
1.33
1.51
1.67
1.78
1.37
-0.30
-3.92
-9.75
-17.35
-25.66
-33.23
-38.72
-41.26
-40.67
-37.39
-32.33
-26.60
-21.32
-17.50
-15.85
-16.66
-19.65
-23.98
-28.32
-31.29
-31.73
-29.05
-23.35
-15.35
-6.21
2.79
10.47
16.05
19.24
20.26
19.69
18.28
16.66
15.32
14.46
14.15
14.35
14.88
15.49
15.75
15.25
13.62
10.79
7.03
2.93
-0.76
-3.32
-4.25
-3.36
-0.80
2.99
7.38
11.66
15.19
17.54
18.63
18.70
18.22
17.63
17.20
16.92
16.66
16.25
15.70
15.11
14.57
13.97
12.99
11.10
7.81
2.85
-3.74
-11.66
-20.43
-29.56
-38.59
-47.08
-54.56
-60.49
-64.22
-65.11
-62.67
-56.82
-47.99
-37.13
-25.49
-14.26
-4.32
3.91
10.39
15.26
18.67
20.72
21.49
21.14
19.89
17.98
15.58
12.83
9.94
7.26
5.30
4.55
5.19
6.96
9.16
10.85
11.24
9.89
6.88
2.67
-2.05
-6.50
-10.01
-12.09
-12.47
-11.22
-8.72
-5.55
-2.36
0.20
1.65
1.68
0.15
-2.94
-7.36
-12.64
-18.05
-22.67
-25.58
-26.08
-23.91
-19.22
-12.50
-4.36
4.59
13.64
22.02
28.73
32.78
33.48
30.69
25.00
17.55
9.65
2.49
-3.18
-6.94
-8.67
-8.37
-6.20
-2.53
2.08
6.95
11.57
15.64
19.25
22.68
26.26
30.17
34.39
38.73
42.94
46.81
50.19
53.04
55.36
57.26
58.90
60.51
62.43
65.02
68.58
73.19
78.52
83.72
87.53
88.69
86.45
80.94
73.14
64.42
55.79
47.42
38.54
27.91
14.63
-1.39
-19.30
-37.76
-55.53
-71.89
-86.64
-99.82
-111.39
-121.15
-128.87
-134.47
-138.01
-139.60
-139.21
-136.63
-131.70
-124.55
-115.78
-106.29
-96.95
-88.12
-79.53
-70.49
-60.38
-49.15
-37.56
-26.89
-18.33
-12.31
-8.22
-4.59
0.40
8.23
19.49
33.75
49.78
65.97
80.77
92.95
101.77
106.93
108.54
107.06
103.16
97.56
90.84
83.33
75.16
66.47
57.62
49.19
41.93
36.45
32.96
31.07
30.01
28.88
27.02
24.17
20.35
15.68
10.08
3.39
-4.44
-13.02
-21.48
-28.78
-34.15
-37.62
-39.90
-41.98
-44.36
-46.64
-47.62
-45.97
-41.05
-33.35
-24.17
-15.06
-7.13
-0.75
4.33
8.58
12.51
16.56
21.15
26.56
32.66
38.80
43.93
47.04
47.78
46.75
45.28
44.88
46.48
50.14
55.05
60.06
64.19
67.01
68.76
70.19
72.29
75.94
81.64
89.33
98.39
107.77
116.26
122.70
126.07
125.59
120.76
111.50
98.34
82.37
64.98
47.45
30.53
14.47
-0.75
-14.92
-27.51
-37.80
-45.46
-50.90
-55.29
-60.07
-66.24
-73.89
-82.20
-89.80
-95.38
-98.12
-97.79
-94.73
-89.66
-83.41
-76.79
-70.44
-64.70
-59.73
-55.51
-52.18
-50.16
-50.28
-53.51
-60.49
-71.14
-84.30
-97.83
-109.03
-115.31
-114.92
-107.48
-94.15
-77.27
-59.77
-44.33
-32.78
-25.71
-22.56
-21.95
-22.20
-21.80
-19.77
-15.69
-9.63
-2.06
6.15
13.92
20.07
23.73
24.59
23.03
19.95
16.46
13.32
10.84
8.86
7.03
5.10
2.99
0.77
-1.55
-4.10
-7.08
-10.59
-14.45
-18.16
-21.11
-22.73
-22.77
-21.35
-18.91
-16.12
-13.74
-12.40
-12.49
-14.07
-16.88
-20.48
-24.40
-28.23
-31.60
-34.19
-35.67
-35.72
-34.19
-31.19
-27.22
-23.06
-19.59
-17.46
-16.85
-17.39
-18.20
-18.24
-16.67
-13.22
-8.28
-2.76
2.35
6.36
9.14
11.12
13.01
15.44
18.77
23.11
28.38
34.41
40.91
47.32
52.79
56.35
57.23
55.24
50.97
45.58
40.41
36.47
34.15
33.32
33.53
34.39
35.73
37.56
39.84
42.41
44.97
47.22
49.08
50.78
52.72
55.27
58.55
62.34
66.16
69.51
72.04
73.65
74.49
74.79
74.77
74.46
73.72
72.28
69.89
66.51
62.37
57.96
53.87
50.57
48.06
45.79
42.66
37.25
28.28
14.82
-3.48
-26.45
-53.45
-83.47
-115.00
-146.10
-174.60
-198.51
-216.54
-228.40
-234.62
-236.18
-233.99
-228.76
-221.00
-211.17
-199.63
-186.35
-170.68
-151.43
-127.42
-98.28
-64.95
-29.48
5.87
39.65
71.78
103.08
134.17
164.43
191.56
212.27
223.59
224.09
214.51
197.32
175.93
153.68
133.06
115.46
101.08
88.96
77.26
63.95
47.71
28.76
9.14
-8.05
-19.97
-25.31
-24.78
-20.60
-15.37
-11.05
-8.53
-7.97
-9.37
-12.96
-19.02
-27.52
-37.68
-48.03
-56.86
-62.92
-65.81
-66.08
-64.86
-63.31
-62.19
-61.68
-61.42
-60.88
-59.63
-57.53
-54.82
-51.91
-49.15
-46.78
-44.75
-42.87
-40.91
-38.71
-36.21
-33.50
-30.79
-28.35
-26.42
-25.12
-24.35
-23.79
-22.92
-21.27
-18.56
-14.91
-10.74
-6.67
-3.26
-0.82
0.57
0.99
0.48
-0.95
-3.35
-6.66
-10.65
-14.97
-19.26
-23.33
-27.16
-30.78
-34.10
-36.88
-38.78
-39.63
-39.54
-39.00
-38.69
-39.17
-40.66
-42.96
-45.58
-47.99
-49.81
-50.96
-51.55
-51.80
-51.86
-51.75
-51.36
-50.49
-48.92
-46.48
-43.01
-38.42
-32.61
-25.63
-17.77
-9.68
-2.32
3.20
5.95
5.40
1.57
-4.94
-13.05
-21.45
-28.76
-33.69
-35.36
-33.34
-27.80
-19.33
-8.72
3.35
16.47
30.36
44.73
59.08
72.83
85.45
96.74
106.81
115.91
124.15
131.33
136.96
140.50
141.61
140.32
136.94
131.92
125.61
118.27
110.01
100.97
91.29
81.14
70.74
60.25
49.92
40.09
31.19
23.69
17.96
14.06
11.70
10.27
9.06
7.52
5.45
3.07
0.86
-0.67
-1.19
-0.65
0.72
2.56
4.50
6.25
7.54
8.04
7.37
5.12
1.23
-3.83
-8.94
-12.63
-13.63
-11.42
-6.51
-0.19
6.01
10.85
13.56
13.70
10.91
4.99
-3.87
-14.66
-25.55
-34.32
-39.16
-39.42
-35.91
-30.58
-25.65
-22.84
-22.74
-24.76
-27.55
-29.59
-29.84
-28.04
-24.75
-20.89
-17.37
-14.61
-12.46
-10.50
-8.40
-6.26
-4.59
-4.09
-5.14
-7.51
-10.32
-12.46
-13.12
-12.15
-10.15
-8.04
-6.56
-5.80
-5.26
-4.20
-2.23
0.37
2.82
4.25
4.28
3.18
1.62
0.26
-0.64
-1.23
-1.84
-2.56
-3.21
-3.43
-3.08
-2.35
-1.68
-1.44
-1.64
-1.93
-1.90
-1.33
-0.35
0.71
1.63
2.44
3.39
4.67
6.22
7.65
8.51
8.53
7.82
6.77
5.85
5.39
5.49
6.03
6.76
7.52
8.26
9.05
10.14
11.82
14.33
17.66
21.45
24.97
27.26
27.43
25.10
20.73
15.71
12.06
11.79
16.03
24.40
35.14
45.76
54.09
59.03
60.79
60.33
58.73
56.63
54.31
52.10
50.69
51.05
53.98
59.41
66.15
72.24
75.69
75.38
71.37
64.70
56.77
48.74
41.09
33.68
26.13
18.22
10.14
2.51
-3.77
-7.88
-9.24
-7.59
-3.01
4.23
13.54
23.89
33.65
40.63
42.61
37.94
26.24
8.50
-13.39
-37.58
-63.18
-90.50
-120.31
-152.65
-185.64
-215.27
-236.33
-244.08
-236.00
-212.73
-177.81
-136.61
-94.74
-56.69
-25.26
-1.51
14.73
24.36
28.61
28.91
26.85
24.13
22.39
22.83
25.87
31.00
36.89
41.90
44.66
44.54
41.81
37.41
32.54
28.15
24.72
22.22
20.36
18.83
17.42
16.07
14.84
13.76
12.94
12.57
12.94
14.28
16.56
19.29
21.52
22.13
20.35
16.14
10.25
3.94
-1.50
-5.19
-6.84
-6.78
-5.86
-5.30
-6.52
-10.72
-18.39
-28.90
-40.43
-50.51
-56.89
-58.33
-54.97
-48.00
-39.00
-29.41
-20.24
-12.19
-5.81
-1.57
0.32
-0.02
-2.05
-5.00
-8.04
-10.47
-11.86
-12.11
-11.43
-10.33
-9.38
-8.93
-8.87
-8.63
-7.42
-4.74
-0.76
3.61
7.05
8.44
7.37
4.36
0.66
-2.26
-3.41
-2.70
-0.91
0.65
0.78
-1.05
-4.55
-8.83
-12.91
-16.19
-18.62
-20.61
-22.72
-25.39
-28.80
-32.78
-36.71
-39.66
-40.50
-38.35
-33.02
-25.32
-16.97
-10.04
-6.24
-6.11
-8.65
-11.74
-12.96
-10.73
-4.86
3.43
12.37
20.57
27.56
33.59
38.72
42.07
41.70
35.59
23.06
5.81
-12.16
-25.78
-30.50
-23.57
-4.27
26.29
65.68
110.35
155.74
196.63
227.91
245.89
249.28
239.61
220.42
195.78
168.90
141.17
112.43
81.90
49.31
15.56
-17.42
-47.52
-73.36
-94.81
-112.65
-127.64
-139.66
-147.55
-149.85
-146.00
-137.08
-125.65
-114.64
-105.97
-99.65
-94.06
-86.98
-76.95
-64.02
-49.58
-35.52
-23.22
-13.02
-4.32
3.87
12.25
20.99
29.78
38.24
46.20
53.80
61.34
68.97
76.54
83.59
89.57
94.08
96.90
97.82
96.40
91.81
83.13
69.84
52.48
32.99
14.26
-0.73
-9.92
-12.95
-11.06
-6.51
-1.56
2.06
3.29
1.51
-3.49
-11.33
-20.67
-29.20
-34.37
-34.52
-29.78
-22.31
-15.25
-11.27
-11.26
-14.12
-17.61
-19.76
-19.89
-18.71
-17.63
-17.64
-18.68
-19.70
-19.42
-17.06
-12.93
-8.20
-4.27
-1.93
-0.94
-0.14
1.90
6.11
12.52
20.22
27.85
34.13
38.22
39.82
38.99
36.00
31.18
24.97
17.95
10.84
4.42
-0.58
-3.68
-4.79
-4.26
-2.79
-1.26
-0.44
-0.83
-2.50
-5.08
-7.98
-10.51
-12.11
-12.45
-11.51
-9.51
-6.98
-4.67
-3.52
-4.37
-7.72
-13.48
-21.06
-29.65
-38.54
-47.27
-55.55
-62.93
-68.74
-72.14
-72.62
-70.39
-66.63
-63.01
-61.11
-61.64
-64.12
-67.04
-68.54
-67.11
-62.03
-53.48
-42.21
-29.20
-15.27
-0.97
13.32
27.20
40.02
50.92
59.00
63.61
64.59
62.31
57.51
51.18
44.35
37.97
32.90
29.72
28.68
29.61
31.90
34.68
36.92
37.70
36.40
32.81
27.18
20.16
12.64
5.43
-0.89
-6.10
-10.29
-13.67
-16.38
-18.43
-19.75
-20.28
-20.08
-19.34
-18.25
-16.97
-15.58
-14.11
-12.63
-11.28
-10.15
-9.36
-8.88
-8.65
-8.54
-8.43
-8.21
-7.86
-7.38
-6.84
-6.32
-5.89
-5.57
-5.33
-5.10
-4.85
-4.56
-4.25
-3.96
-3.74
-3.62
-3.56
-3.52
-3.39
-3.00
-2.21
-0.93
0.80
2.82
4.83
6.54
7.69
8.17
8.04
7.48
6.73
6.03
5.54
5.31
5.26
5.26
5.13
4.76
4.10
3.21
2.16
1.02
-0.18
-1.38
-2.49
-3.37
-3.86
-3.92
-3.66
-3.34
-3.28
-3.68
-4.47
-5.38
-5.95
-5.81
-4.74
-2.76
-0.07
3.06
6.34
9.52
12.28
14.31
15.29
15.02
13.57
11.25
8.60
6.24
4.60
3.86
3.82
4.09
4.16
3.63
2.30
0.23
-2.33
-5.00
-7.42
-9.30
-10.50
-11.01
-10.95
-10.47
-9.74
-8.86
-7.89
-6.81
-5.61
-4.27
-2.79
-1.12
0.77
2.91
5.18
7.32
8.96
9.78
9.66
8.73
7.33
5.80
4.33
2.88
1.22
-0.81
-3.23
-5.85
-8.37
-10.58
-12.42
-14.04
-15.59
-17.16
-18.65
-19.87
-20.60
-20.71
-20.22
-19.23
-17.81
-15.97
-13.69
-10.98
-7.92
-4.73
-1.66
1.06
3.29
4.97
6.13
6.83
7.14
7.12
6.86
6.43
5.91
5.31
4.62
3.80
2.80
1.58
0.10
-1.66
-3.76
-6.23
-9.03
-12.05
-15.03
-17.66
-19.56
-20.47
-20.15
-18.46
-15.28
-10.54
-4.35
3.02
11.04
19.11
26.66
33.32
38.90
43.26
46.20
47.39
46.45
43.19
37.74
30.69
22.89
15.15
8.03
1.66
-4.11
-9.51
-14.61
-19.25
-23.07
-25.77
-27.23
-27.63
-27.37
-26.90
-26.46
-26.12
-25.71
-24.99
-23.82
-22.19
-20.27
-18.32
-16.58
-15.19
-14.16
-13.36
-12.64
-11.90
-11.14
-10.47
-10.08
-10.10
-10.51
-11.10
-11.56
-11.67
-11.40
-10.95
-10.67
-10.83
-11.43
-12.17
-12.59
-12.27
-11.02
-8.98
-6.49
-3.87
-1.35
1.02
3.22
5.19
6.80
7.91
8.45
8.46
8.11
7.63
7.19
6.84
6.50
6.04
5.33
4.29
2.92
1.25
-0.65
-2.75
-5.01
-7.47
-10.18
-13.20
-16.53
-19.99
-23.24
-25.79
-27.11
-26.80
-24.76
-21.17
-16.56
-11.63
-7.13
-3.74
-1.93
-1.90
-3.52
-6.32
-9.55
-12.43
-14.30
-14.78
-13.82
-11.59
-8.36
-4.41
0.06
4.88
9.81
14.56
18.78
22.09
24.26
25.18
24.95
23.85
22.25
20.53
19.08
18.17
17.92
18.31
19.11
20.00
20.65
20.88
20.67
20.15
19.50
18.86
18.25
17.52
16.54
15.15
13.35
11.18
8.79
6.33
3.97
1.89
0.29
-0.65
-0.87
-0.46
0.24
0.80
0.78
-0.04
-1.64
-3.78
-6.12
-8.45
-10.65
-12.73
-14.64
-16.24
-17.28
-17.47
-16.64
-14.83
-12.21
-9.12
-5.94
-3.07
-0.94
0.10
-0.23
-1.94
-4.77
-8.17
-11.42
-13.86
-15.04
-14.91
-13.81
-12.31
-11.01
-10.34
-10.44
-11.17
-12.21
-13.23
-13.97
-14.24
-13.99
-13.16
-11.75
-9.76
-7.27
-4.36
-1.16
2.14
5.37
8.34
10.90
12.94
14.43
15.42
15.95
16.05
15.73
15.06
14.24
13.50
13.09
13.11
13.44
13.80
13.90
13.53
12.64
11.25
9.42
7.27
5.04
3.13
1.98
1.96
3.13
5.14
7.41
9.36
10.72
11.55
12.14
12.80
13.60
14.41
15.05
15.38
15.44
15.32
15.04
14.48
13.44
11.80
9.65
7.38
5.46
4.30
4.00
4.39
5.11
5.79
6.17
6.10
5.54
4.51
3.16
1.79
0.81
0.62
1.44
3.18
5.44
7.72
9.57
10.76
11.27
11.19
10.69
9.91
9.06
8.40
8.22
8.70
9.83
11.33
12.75
13.69
13.92
13.49
12.67
11.82
11.31
11.38
12.12
13.49
15.31
17.34
19.30
20.96
22.22
23.14
23.97
25.09
26.95
29.92
34.28
40.09
47.13
54.95
62.92
70.42
76.93
82.16
85.99
88.37
89.22
88.40
85.82
81.56
75.96
69.53
62.80
56.18
49.88
43.92
38.30
33.08
28.35
24.18
20.44
16.80
12.88
8.31
2.99
-2.87
-8.85
-14.44
-19.16
-22.79
-25.36
-27.13
-28.46
-29.62
-30.70
-31.54
-31.95
-31.84
-31.53
-31.66
-33.04
-36.24
-41.36
-47.89
-54.91
-61.46
-66.80
-70.59
-72.81
-73.58
-73.08
-71.48
-69.10
-66.47
-64.25
-62.99
-62.86
-63.49
-64.00
-63.40
-60.95
-56.55
-50.69
-44.25
-38.12
-32.96
-29.13
-26.79
-26.03
-26.84
-29.09
-32.37
-35.97
-39.09
-41.03
-41.48
-40.53
-38.60
-36.13
-33.49
-30.83
-28.20
-25.61
-23.19
-21.13
-19.65
-18.85
-18.61
-18.66
-18.62
-18.20
-17.25
-15.87
-14.28
-12.77
-11.58
-10.84
-10.56
-10.70
-11.16
-11.79
-12.37
-12.66
-12.38
-11.41
-9.77
-7.67
-5.39
-3.18
-1.21
0.49
1.92
3.08
3.92
4.41
4.53
4.34
3.94
3.42
2.87
2.32
1.81
1.35
0.92
0.49
-0.01
-0.63
-1.36
-2.09
-2.65
-2.87
-2.69
-2.16
-1.49
-0.98
-0.93
-1.51
-2.67
-4.15
-5.56
-6.53
-6.81
-6.36
-5.30
-3.76
-1.91
0.17
2.37
4.54
6.48
7.98
8.91
9.25
9.08
8.53
7.71
6.66
5.41
3.98
2.45
0.92
-0.50
-1.70
-2.62
-3.24
-3.54
-3.57
-3.38
-3.07
-2.77
-2.59
-2.60
-2.76
-2.94
-2.97
-2.71
-2.14
-1.32
-0.43
0.35
0.91
1.23
1.37
1.44
1.52
1.65
1.86
2.14
2.48
2.86
3.24
3.58
3.89
4.20
4.53
4.94
5.46
6.05
6.65
7.14
7.42
7.42
7.11
6.57
5.84
4.99
4.00
2.79
1.28
-0.61
-2.82
-5.15
-7.25
-8.74
-9.38
-9.14
-8.25
-7.06
-5.88
-4.83
-3.82
-2.67
-1.27
0.34
1.92
3.16
3.84
3.90
3.48
2.82
2.17
1.70
1.47
1.45
1.54
1.63
1.64
1.59
1.52
1.43
1.30
1.02
0.43
-0.56
-1.97
-3.67
-5.44
-7.01
-8.10
-8.52
-8.18
-7.10
-5.42
-3.36
-1.16
0.94
2.76
4.22
5.30
6.04
6.50
6.72
6.72
6.52
6.19
5.76
5.27
4.70
4.01
3.18
2.24
1.35
0.65
0.23
0.03
-0.18
-0.66
-1.62
-3.10
-4.91
-6.74
-8.23
-9.12
-9.23
-8.57
-7.25
-5.47
-3.48
-1.51
0.26
1.75
2.92
3.85
4.63
5.33
5.96
6.50
6.84
6.89
6.59
5.95
5.07
4.11
3.21
2.49
1.97
1.63
1.37
1.08
0.65
-0.03
-1.03
-2.38
-4.02
-5.74
-7.25
-8.23
-8.43
-7.77
-6.30
-4.22
-1.79
0.72
3.09
5.17
6.88
8.21
9.16
9.81
10.19
10.34
10.29
10.08
9.78
9.47
9.22
9.07
8.97
8.82
8.50
7.92
7.03
5.86
4.46
2.93
1.31
-0.39
-2.20
-4.11
-5.98
-7.57
-8.53
-8.58
-7.62
-5.75
-3.27
-0.53
2.18
4.67
6.81
8.53
9.77
10.54
10.92
11.09
11.24
11.51
11.93
12.37
12.58
12.22
10.99
8.72
5.49
1.72
-1.92
-4.69
-5.96
-5.45
-3.27
0.11
4.05
7.81
10.71
12.19
11.88
9.69
5.95
1.27
-3.46
-7.36
-9.77
-10.31
-8.99
-6.11
-2.17
2.19
6.39
9.93
12.53
14.13
14.85
14.85
14.31
13.35
12.09
10.73
9.50
8.67
8.34
8.46
8.78
9.00
8.91
8.50
7.91
7.38
7.11
7.14
7.40
7.70
7.80
7.55
6.86
5.79
4.44
2.98
1.54
0.23
-0.83
-1.51
-1.63
-1.09
0.12
1.83
3.74
5.50
6.91
7.92
8.68
9.35
10.01
10.61
11.04
11.20
11.07
10.71
10.22
9.64
9.02
8.36
7.73
7.20
6.81
6.55
6.33
6.04
5.63
5.09
4.48
3.87
3.30
2.72
2.07
1.25
0.20
-1.07
-2.42
-3.60
-4.30
-4.27
-3.44
-1.95
-0.13
1.67
3.18
4.35
5.25
6.02
6.75
7.41
7.94
8.24
8.33
8.27
8.15
8.08
8.05
8.05
8.01
7.86
7.56
7.11
6.55
5.90
5.22
4.57
4.01
3.59
3.33
3.19
3.09
2.89
2.50
1.87
1.09
0.32
-0.21
-0.31
0.09
0.97
2.17
3.53
4.88
6.12
7.20
8.06
8.66
8.95
8.89
8.52
7.89
7.11
6.29
5.48
4.73
3.98
3.14
2.11
0.80
-0.72
-2.25
-3.42
-3.84
-3.24
-1.59
0.85
3.55
5.83
7.03
6.66
4.57
1.09
-3.07
-6.91
-9.47
-10.12
-8.73
-5.69
-1.76
2.21
5.53
7.84
9.15
9.78
10.18
10.82
11.95
13.56
15.35
16.83
17.50
16.98
15.08
11.85
7.62
2.91
-1.57
-5.08
-7.03
-7.13
-5.52
-2.71
0.49
3.27
5.02
5.47
4.71
3.10
1.12
-0.83
-2.49
-3.74
-4.60
-5.19
-5.59
-5.88
-6.05
-6.00
-5.62
-4.85
-3.70
-2.37
-1.10
-0.16
0.31
0.41
0.41
0.68
1.47
2.78
4.32
5.67
6.40
6.29
5.44
4.16
2.87
1.90
1.41
1.35
1.59
1.96
2.36
2.69
2.91
2.97
2.86
2.63
2.32
2.01
1.67
1.23
0.60
-0.23
-1.17
-2.02
-2.55
-2.59
-2.14
-1.28
-0.14
1.14
2.41
3.50
4.18
4.24
3.56
2.27
0.69
-0.73
-1.60
-1.65
-0.90
0.47
2.12
3.69
4.84
5.31
4.94
3.66
1.51
-1.33
-4.58
-7.85
-10.66
-12.57
-13.25
-12.62
-10.93
-8.66
-6.42
-4.67
-3.63
-3.19
-3.04
-2.86
-2.44
-1.78
-1.04
-0.42
-0.06
0.02
-0.08
-0.24
-0.40
-0.55
-0.72
-0.95
-1.21
-1.44
-1.55
-1.46
-1.16
-0.68
-0.12
0.45
1.01
1.53
2.05
2.54
2.94
3.11
2.89
2.17
0.96
-0.59
-2.21
-3.60
-4.53
-4.86
-4.61
-3.92
-2.96
-1.97
-1.14
-0.61
-0.42
-0.49
-0.69
-0.88
-0.98
-0.99
-1.05
-1.27
-1.72
-2.28
-2.74
-2.84
-2.43
-1.51
-0.25
1.13
2.43
3.55
4.50
5.38
6.27
7.25
8.38
9.68
11.07
12.43
13.58
14.37
14.76
14.87
14.92
15.10
15.48
15.95
16.29
16.32
15.98
15.30
14.35
13.10
11.43
9.24
6.60
3.78
1.20
-0.83
-2.26
-3.41
-4.83
-7.05
-10.32
-14.50
-19.09
-23.45
-26.97
-29.31
-30.43
-30.50
-29.82
-28.67
-27.23
-25.56
-23.73
-21.87
-20.15
-18.80
-17.92
-17.41
-17.00
-16.35
-15.23
-13.60
-11.56
-9.25
-6.79
-4.32
-2.15
-0.75
-0.67
-2.14
-4.89
-8.00
-10.23
-10.61
-8.96
-6.10
-3.59
-3.04
-5.39
-10.44
-16.93
-23.06
-27.26
-28.76
-27.79
-25.26
-22.23
-19.43
-17.08
-15.08
-13.31
-11.71
-10.21
-8.41
-5.58
-0.79
6.50
15.94
26.18
35.20
41.15
42.98
40.80
35.69
29.15
22.57
16.81
12.29
9.05
7.00
5.90
5.45
5.20
4.69
3.59
1.76
-0.60
-3.13
-5.40
-7.12
-8.24
-8.89
-9.36
-9.90
-10.67
-11.68
-12.81
-13.87
-14.70
-15.20
-15.36
-15.21
-14.77
-14.04
-12.98
-11.56
-9.80
-7.82
-5.84
-4.09
-2.73
-1.84
-1.34
-1.08
-0.85
-0.49
0.10
0.85
1.64
2.26
2.56
2.51
2.23
1.94
1.93
2.36
3.27
4.49
5.79
6.94
7.85
8.60
9.40
10.48
12.00
13.96
16.21
18.61
21.04
23.54
26.18
29.03
32.03
34.99
37.68
39.90
41.49
42.28
41.99
40.21
36.61
31.26
24.82
18.48
13.49
10.68
10.01
10.75
11.79
12.31
11.99
11.07
9.95
8.89
7.85
6.64
5.19
3.63
2.27
1.36
0.93
0.80
0.72
0.52
0.19
-0.14
-0.28
-0.13
0.35
1.11
2.07
3.11
4.06
4.71
4.88
4.48
3.58
2.37
1.10
-0.03
-0.97
-1.77
-2.55
-3.40
-4.34
-5.33
-6.32
-7.27
-8.16
-9.01
-9.78
-10.42
-10.89
-11.15
-11.24
-11.22
-11.21
-11.25
-11.32
-11.25
-10.89
-10.13
-9.02
-7.78
-6.66
-5.84
-5.36
-5.15
-5.12
-5.18
-5.31
-5.48
-5.58
-5.51
-5.22
-4.79
-4.49
-4.60
-5.31
-6.54
-7.98
-9.15
-9.70
-9.48
-8.66
-7.60
-6.66
-6.15
-6.25
-7.07
-8.47
-9.96
-10.51
-8.84
-3.93
4.24
14.37
24.10
31.01
33.64
32.14
27.99
23.04
18.51
14.51
10.37
5.44
-0.23
-5.77
-10.05
-12.31
-12.57
-11.50
-9.98
-8.59
-7.49
-6.51
-5.49
-4.48
-3.78
-3.70
-4.36
-5.60
-7.08
-8.50
-9.79
-11.16
-12.93
-15.35
-18.41
-21.83
-25.17
-27.94
-29.78
-30.54
-30.27
-29.13
-27.34
-25.09
-22.50
-19.57
-16.17
-12.07
-7.06
-1.03
5.82
13.01
19.81
25.49
29.42
31.24
30.83
28.23
23.63
17.39
10.14
2.75
-3.83
-8.95
-12.45
-14.73
-16.49
-18.30
-20.34
-22.30
-23.65
-23.92
-22.95
-20.92
-18.15
-14.95
-11.51
-7.95
-4.36
-0.89
2.34
5.32
8.20
11.30
15.09
20.03
26.41
34.12
42.49
50.26
55.76
57.32
53.83
45.20
32.64
18.47
5.49
-3.88
-8.31
-7.81
-3.56
2.72
9.29
14.83
18.47
19.80
18.83
16.04
12.35
8.89
6.57
5.66
5.68
5.59
4.46
1.95
-1.38
-4.41
-5.98
-5.48
-3.08
0.33
3.55
5.42
5.31
3.35
0.42
-2.19
-3.32
-2.58
-0.73
0.37
-1.52
-8.07
-19.44
-33.80
