1543325169.00
64.000000
-0.00
-0.00
-0.00
-0.00
-0.00
-0.00
-0.00
-0.00
-0.00
-0.00
0.00
0.01
0.01
-0.00
-0.03
-0.05
-0.05
0.00
0.13
0.36
0.66
1.01
1.37
1.72
2.06
2.40
2.79
3.24
3.80
4.42
5.06
5.66
6.20
6.68
7.15
7.68
8.31
9.14
10.09
11.04
11.88
12.56
13.14
13.76
14.65
15.96
17.91
20.32
22.90
25.38
27.58
29.57
31.68
34.32
37.81
42.54
48.15
54.10
59.83
64.97
69.58
74.14
79.34
85.71
93.76
103.00
112.62
121.73
129.77
136.75
143.30
150.75
157.77
166.64
177.95
191.79
206.97
220.57
228.25
225.36
208.53
176.87
132.76
80.05
23.07
-34.94
-92.44
-149.16
-205.23
-260.37
-313.74
-363.87
-409.83
-450.91
-486.50
-515.74
-537.23
-549.22
-549.96
-538.37
-514.21
-478.67
-433.88
-382.45
-327.02
-269.84
-212.63
-156.66
-102.95
-52.37
-5.90
35.58
71.43
101.35
125.50
144.38
158.69
169.15
176.37
180.75
182.57
182.07
179.51
175.23
169.65
163.18
156.15
148.81
141.30
133.69
126.02
118.33
110.69
103.16
95.80
88.68
81.83
75.25
68.95
62.95
57.25
51.86
46.78
42.03
37.59
33.45
29.61
26.07
22.81
19.82
17.11
14.67
12.48
10.54
8.84
7.37
6.10
5.02
4.12
3.36
2.74
2.25
1.85
1.54
1.30
1.12
0.99
0.90
0.85
0.82
0.81
0.82
0.84
0.88
0.92
0.99
1.06
1.14
1.23
1.33
1.45
1.59
1.74
1.91
2.10
2.31
2.55
2.81
3.10
3.42
3.77
4.16
4.58
5.03
5.53
6.06
6.63
7.25
7.91
8.62
9.37
10.17
11.01
11.91
12.85
13.83
14.88
16.00
17.18
18.42
19.72
21.06
22.39
23.65
24.76
25.59
26.04
25.96
25.26
23.85
21.69
18.79
15.23
11.10
6.61
1.93
-2.69
-7.06
-10.96
-14.26
-16.85
-18.68
-19.74
-20.08
-19.81
-19.00
-17.81
-16.31
-14.61
-12.77
-10.86
-8.89
-6.86
-4.80
-2.76
-0.72
1.30
3.32
5.36
7.43
9.61
11.94
14.36
16.84
19.34
21.88
24.46
27.14
30.00
33.16
36.75
40.61
44.66
48.80
53.01
57.27
61.63
66.18
71.09
76.56
82.29
88.13
93.94
99.63
105.20
110.70
116.30
122.18
128.58
134.99
140.98
146.06
149.74
151.55
151.04
147.57
140.01
130.97
121.05
110.31
98.58
85.69
71.68
56.91
41.97
27.59
14.35
1.81
-10.64
-23.76
-38.16
-54.03
-70.98
-88.26
-105.03
-120.63
-135.38
-149.85
-164.84
-181.12
-199.44
-220.37
-243.99
-269.50
-294.76
-316.74
-331.92
-337.55
-332.85
-319.30
-299.92
-277.87
-255.15
-232.03
-207.82
-181.74
-153.90
-125.58
-98.60
-74.49
-53.87
-36.51
-21.74
-9.10
1.50
9.84
15.71
19.28
21.16
22.24
23.40
25.18
27.62
30.31
32.62
33.98
34.10
33.04
31.09
28.56
25.56
21.94
17.37
11.68
5.18
-1.21
-6.12
-8.08
-6.11
-0.11
9.10
20.02
30.94
40.46
47.72
52.40
54.54
54.37
52.23
48.59
44.09
39.41
35.11
31.46
28.33
25.39
22.27
18.80
15.08
11.35
7.81
4.46
1.08
-2.77
-7.54
-13.43
-20.21
-27.16
-33.06
-36.52
-36.33
-31.95
-23.65
-12.48
0.05
12.39
23.34
32.12
38.33
41.88
42.92
41.79
39.11
35.60
32.00
28.81
26.23
24.15
22.28
20.36
18.19
15.74
13.01
10.08
6.91
3.44
-0.56
-5.39
-11.30
-18.27
-25.81
-32.93
-38.28
-40.56
-38.93
-33.23
-24.16
-12.94
-1.05
10.12
19.46
26.29
30.31
31.67
30.88
28.69
25.95
23.30
21.12
19.45
18.11
16.87
15.52
13.96
12.11
9.95
7.45
4.61
1.41
-2.20
-6.40
-11.45
-17.53
-24.53
-31.84
-38.38
-42.80
-43.86
-40.93
-34.10
-24.24
-12.65
-0.74
10.26
19.49
26.46
30.98
33.07
33.00
31.24
28.41
25.22
22.29
20.02
18.45
17.34
16.32
15.05
13.30
11.07
8.46
5.57
2.44
-1.01
-4.99
-9.78
-15.66
-22.63
-30.31
-37.79
-43.72
-46.64
-45.45
-39.80
-30.19
-17.88
-4.45
8.57
20.00
29.09
35.47
39.05
40.00
38.76
36.06
32.73
29.55
27.07
25.46
24.55
23.92
23.09
21.65
19.43
16.46
12.97
9.25
5.50
1.73
-2.28
-6.95
-12.77
-19.99
-28.42
-37.25
-45.10
-50.37
-51.67
-48.29
-40.41
-29.01
-15.62
-1.78
11.15
22.24
30.82
36.53
39.27
39.29
37.22
34.06
30.82
28.32
26.88
26.30
26.01
25.43
24.14
22.05
19.38
16.40
13.40
10.48
7.55
4.39
0.66
-4.01
-9.88
-16.98
-24.93
-32.81
-39.27
-42.83
-42.31
-37.22
-27.96
-15.67
-1.90
11.78
24.13
34.34
41.94
46.76
48.81
48.33
45.80
42.00
37.84
34.13
31.39
29.67
28.63
27.72
26.40
24.35
21.57
18.30
14.84
11.43
8.14
4.82
1.17
-3.18
-8.55
-15.10
-22.58
-30.22
-36.82
-40.97
-41.50
-37.86
-30.37
-20.10
-8.54
2.80
12.77
20.65
26.09
28.97
29.36
27.50
23.94
19.46
14.99
11.36
9.09
8.21
8.38
8.94
9.27
8.92
7.81
6.15
4.31
2.59
1.04
-0.58
-2.76
-6.01
-10.70
-16.94
-24.41
-32.40
-39.75
-45.10
-47.11
-44.89
-38.27
-27.90
-15.12
-1.55
11.33
22.48
31.28
37.53
41.21
42.48
41.63
39.17
35.83
32.33
29.26
26.90
25.17
23.77
22.33
20.57
18.37
15.80
12.98
10.08
7.18
4.25
1.10
-2.58
-7.20
-13.07
-20.20
-28.10
-35.74
-41.74
-44.74
-43.78
-38.63
-29.75
-18.22
-5.39
7.33
18.70
27.73
33.77
36.59
36.44
34.02
30.29
26.30
22.85
20.34
18.78
17.86
17.08
16.03
14.36
11.98
8.98
5.61
2.13
-1.29
-4.67
-8.21
-12.26
-17.15
-23.10
-29.96
-37.15
-43.71
-48.40
-50.03
-47.76
-41.44
-31.61
-19.46
-6.51
5.78
16.21
24.03
28.88
30.82
30.26
27.91
24.61
21.20
18.26
16.03
14.42
13.05
11.52
9.54
7.06
4.19
1.21
-1.72
-4.53
-7.38
-10.60
-14.64
-19.83
-26.30
-33.73
-41.30
-47.75
-51.68
-51.91
-47.86
-39.77
-28.59
-15.73
-2.72
9.11
18.76
25.57
29.26
29.98
28.24
24.96
21.14
17.60
14.77
12.63
10.86
9.07
7.02
4.68
2.19
-0.33
-2.77
-5.19
-7.75
-10.75
-14.55
-19.54
-25.88
-33.36
-41.22
-48.17
-52.73
-53.54
-49.85
-41.73
-30.09
-16.41
-2.42
10.28
20.52
27.68
31.60
32.61
31.30
28.41
24.75
21.02
17.70
15.05
13.03
11.45
9.98
8.36
6.38
4.03
1.35
-1.57
-4.72
-8.25
-12.50
-17.91
-24.80
-33.13
-42.19
-50.68
-56.90
-59.29
-56.91
-49.80
-38.85
-25.59
-11.63
1.66
13.34
22.79
29.68
33.85
35.37
34.58
32.10
28.73
25.32
22.48
20.45
19.11
18.06
16.80
14.91
12.25
8.90
5.14
1.30
-2.44
-6.14
-10.18
-15.10
-21.32
-28.86
-37.14
-44.97
-50.76
-52.99
-50.62
-43.49
-32.32
-18.51
-3.75
10.40
22.76
32.58
39.52
43.53
44.73
43.51
40.48
36.50
32.47
29.14
26.90
25.64
24.88
23.99
22.45
20.10
17.06
13.66
10.18
6.72
3.10
-1.02
-6.01
-12.14
-19.34
-27.20
-34.89
-41.21
-44.86
-44.72
-40.23
-31.62
-19.90
-6.63
6.55
18.28
27.70
34.42
38.34
39.61
38.53
35.67
31.79
27.83
24.56
22.36
21.14
20.40
19.51
18.02
15.75
12.84
9.58
6.22
2.88
-0.56
-4.37
-8.97
-14.66
-21.54
-29.24
-36.87
-43.10
-46.46
-45.80
-40.64
-31.42
-19.28
-5.82
7.42
19.18
28.63
35.27
38.91
39.63
37.79
34.13
29.65
25.41
22.13
20.09
18.99
18.21
17.16
15.49
13.23
10.67
8.10
5.58
2.96
-0.16
-4.13
-9.24
-15.55
-22.86
-30.60
-37.87
-43.44
-46.00
-44.52
-38.57
-28.60
-15.84
-2.01
11.12
22.19
30.35
35.34
37.27
36.53
33.72
29.55
24.86
20.42
16.79
14.20
12.51
11.31
10.14
8.68
6.81
4.59
2.14
-0.47
-3.35
-6.71
-10.90
-16.18
-22.62
-29.88
-37.19
-43.36
-47.07
-47.21
-43.21
-35.29
-24.39
-11.90
0.62
11.78
20.58
26.44
29.28
29.41
27.44
24.17
20.38
16.70
13.50
10.87
8.68
6.76
4.93
3.12
1.33
-0.41
-2.15
-4.05
-6.45
-9.79
-14.47
-20.73
-28.38
-36.72
-44.49
-50.14
-52.14
-49.46
-41.93
-30.37
-16.41
-2.13
10.59
20.38
26.70
29.68
29.94
28.28
25.46
22.12
18.71
15.53
12.75
10.39
8.38
6.57
4.79
2.89
0.70
-1.85
-4.89
-8.55
-13.05
-18.61
-25.35
-33.07
-41.07
-48.09
-52.54
-52.96
-48.49
-39.25
-26.36
-11.67
2.83
15.49
25.31
31.93
35.53
36.54
35.51
33.03
29.74
26.22
22.94
20.16
17.88
15.92
14.02
11.97
9.61
6.90
3.77
0.16
-4.08
-9.14
-15.20
-22.31
-30.16
-37.99
-44.52
-48.25
-47.86
-42.66
-32.89
-19.75
-5.06
9.28
21.67
31.13
37.32
40.45
41.02
39.67
37.08
33.90
30.63
27.65
25.12
22.99
21.03
18.93
16.43
13.43
10.04
6.48
2.88
-0.81
-4.94
-10.05
-16.55
-24.44
-33.03
-40.95
-46.49
-48.04
-44.68
-36.46
-24.38
-10.05
4.70
18.32
29.73
38.29
43.74
46.15
45.79
43.23
39.29
34.91
30.96
27.98
26.04
24.81
23.69
22.16
19.92
17.00
13.66
10.18
6.72
3.21
-0.60
-5.11
-10.69
-17.54
-25.41
-33.58
-40.76
-45.41
-46.13
-42.15
-33.60
-21.49
-7.45
6.79
19.78
30.45
38.23
42.86
44.37
43.10
39.68
35.08
30.32
26.30
23.52
21.96
21.14
20.33
18.95
16.70
13.71
10.42
7.27
4.53
2.10
-0.44
-3.70
-8.20
-14.23
-21.63
-29.73
-37.40
-43.27
-45.98
-44.64
-39.00
-29.57
-17.50
-4.29
8.56
19.78
28.44
34.03
36.39
35.79
32.80
28.31
23.34
18.86
15.59
13.78
13.22
13.30
13.27
12.51
10.73
8.06
4.89
1.68
-1.29
-4.08
-7.00
-10.55
-15.15
-21.00
-27.91
-35.18
-41.76
-46.30
-47.60
-44.88
-38.06
-27.82
-15.42
-2.40
9.77
19.87
27.10
31.08
31.82
29.73
25.58
20.37
15.16
10.79
7.70
5.89
4.93
4.22
3.21
1.55
-0.82
-3.70
-6.79
-9.80
-12.66
-15.49
-18.73
-22.87
-28.29
-34.94
-42.16
-48.64
-52.78
-53.11
-48.81
-39.99
-27.65
-13.40
1.02
14.07
24.59
31.89
35.72
36.23
33.97
29.85
24.94
20.27
16.55
13.98
12.32
11.05
9.63
7.70
5.18
2.22
-0.93
-4.06
-7.12
-10.20
-13.62
-17.80
-23.18
-29.94
-37.83
-45.94
-52.81
-56.72
-56.23
-50.72
-40.62
-27.29
-12.65
1.46
13.62
23.04
29.45
32.92
33.71
32.23
29.11
25.19
21.36
18.33
16.37
15.27
14.48
13.35
11.44
8.69
5.36
1.90
-1.33
-4.17
-6.83
-9.83
-13.84
-19.38
-26.50
-34.59
-42.30
-47.91
-49.75
-46.85
-39.19
-27.67
-13.83
0.64
14.23
25.81
34.58
40.11
42.27
41.32
38.00
33.36
28.58
24.63
22.03
20.73
20.23
19.81
18.85
17.04
14.39
11.15
7.70
4.34
1.19
-1.90
-5.35
-9.72
-15.49
-22.74
-30.92
-38.83
-44.85
-47.44
-45.62
-39.33
-29.45
-17.49
-5.17
6.06
15.18
21.60
25.07
25.65
23.68
19.91
15.35
11.11
8.08
6.61
6.50
7.10
7.68
7.67
6.85
5.33
3.40
1.37
-0.59
-2.50
-4.60
-7.33
-11.14
-16.32
-22.64
-29.33
-35.05
-38.31
-37.83
-33.06
-24.30
-12.68
0.26
12.89
23.84
32.17
37.35
39.31
38.36
35.19
30.83
26.33
22.54
19.84
18.13
16.92
15.67
13.98
11.74
9.06
6.13
3.14
0.15
-2.88
-6.17
-10.07
-14.99
-21.20
-28.50
-36.14
-42.70
-46.55
-46.29
-41.27
-31.91
-19.52
-5.97
6.90
17.65
25.48
30.12
31.71
30.67
27.62
23.33
18.65
14.35
10.97
8.68
7.27
6.31
5.32
3.99
2.23
0.16
-2.04
-4.35
-6.95
-10.26
-14.73
-20.65
-27.82
-35.43
-42.13
-46.36
-46.78
-42.74
-34.48
-23.13
-10.29
2.35
13.43
22.04
27.74
30.39
30.13
27.41
22.95
17.68
12.54
8.23
5.03
2.82
1.23
-0.13
-1.51
-3.03
-4.75
-6.78
-9.30
-12.62
-17.04
-22.69
-29.46
-36.70
-43.24
-47.62
-48.42
-44.82
-36.88
-25.61
-12.63
0.28
11.69
20.66
26.81
30.09
30.67
28.89
25.31
20.69
15.87
11.61
8.33
6.05
4.46
3.04
1.35
-0.86
-3.62
-6.85
-10.52
-14.84
-20.12
-26.60
-34.11
-41.81
-48.30
-51.92
-51.33
-45.98
-36.37
-23.87
-10.29
2.57
13.43
21.57
26.76
29.11
28.98
26.87
23.42
19.38
15.41
11.97
9.22
7.04
5.16
3.33
1.35
-0.85
-3.30
-6.16
-9.64
-14.05
-19.62
-26.31
-33.69
-40.81
-46.34
-48.79
-46.98
-40.43
-29.66
-16.10
-1.72
11.54
22.28
29.90
34.47
36.50
36.57
35.14
32.56
29.21
25.51
21.92
18.81
16.33
14.40
12.72
10.96
8.85
6.24
3.04
-0.88
-5.67
-11.56
-18.57
-26.35
-33.93
-39.86
-42.53
-40.65
-33.84
-22.80
-9.16
5.01
17.85
28.11
35.28
39.38
40.75
39.81
37.09
33.19
28.81
24.63
21.08
18.23
15.86
13.58
11.10
8.32
5.35
2.37
-0.60
-3.76
-7.51
-12.35
-18.58
-26.13
-34.30
-41.81
-47.02
-48.33
-44.80
-36.45
-24.36
-10.35
3.52
15.53
24.65
30.56
33.49
33.94
32.55
29.93
26.72
23.50
20.72
18.57
16.98
15.66
14.25
12.55
10.50
8.24
5.90
3.48
0.77
-2.62
-7.12
-13.01
-20.17
-27.94
-35.11
-40.15
-41.59
-38.48
-30.71
-19.17
-5.46
8.51
21.00
30.79
37.31
40.54
40.90
39.03
35.75
31.87
28.13
25.02
22.74
21.13
19.87
18.55
16.93
14.91
12.58
10.06
7.40
4.51
1.13
-3.12
-8.57
-15.32
-23.09
-31.01
-37.76
-41.81
-41.85
-37.27
-28.37
-16.30
-2.78
10.40
21.71
30.19
35.42
37.50
36.89
34.33
30.67
26.74
23.17
20.31
18.21
16.67
15.40
14.05
12.40
10.35
7.92
5.28
2.58
-0.13
-2.99
-6.38
-10.76
-16.43
-23.26
-30.55
-37.03
-41.20
-41.78
-38.09
-30.27
-19.27
-6.53
6.39
18.05
27.36
33.63
36.63
36.54
33.98
29.88
25.27
21.05
17.77
15.55
14.18
13.23
12.27
11.03
9.39
7.40
5.24
3.00
0.72
-1.77
-4.80
-8.75
-13.94
-20.26
-27.16
-33.53
-37.98
-39.23
-36.51
-29.79
-19.83
-7.88
4.60
16.27
26.05
33.16
37.17
38.05
36.15
32.28
27.47
22.77
18.92
16.19
14.42
13.16
11.96
10.53
8.77
6.70
4.35
1.74
-1.18
-4.49
-8.33
-12.83
-18.16
-24.27
-30.77
-36.85
-41.31
-42.88
-40.63
-34.35
-24.63
-12.75
-0.35
11.02
20.17
26.43
29.61
29.96
28.01
24.46
20.12
15.76
12.03
9.29
7.60
6.66
5.98
5.07
3.60
1.50
-1.13
-4.06
-7.21
-10.68
-14.73
-19.67
-25.61
-32.26
-38.85
-44.19
-46.98
-46.21
-41.47
-33.15
-22.31
-10.39
1.13
11.05
18.50
23.03
24.54
23.29
19.89
15.19
10.10
5.37
1.49
-1.47
-3.69
-5.48
-7.11
-8.73
-10.40
-12.15
-14.07
-16.40
-19.45
-23.45
-28.40
-33.95
-39.31
-43.38
-44.92
-42.92
-36.87
-26.97
-14.17
-0.01
13.76
25.56
34.30
39.56
41.56
40.90
38.39
34.73
30.49
26.07
21.73
17.61
13.76
10.16
6.67
3.12
-0.71
-5.02
-10.05
-15.99
-23.04
-31.24
-40.28
-49.37
-57.30
-62.61
-63.98
-60.69
-52.90
-41.65
-28.60
-15.60
-4.22
4.48
10.08
12.65
12.67
10.74
7.48
3.43
-1.00
-5.57
-10.10
-14.53
-18.77
-22.68
-26.14
-29.03
-31.33
-33.19
-34.98
-37.18
-40.27
-44.47
-49.50
-54.47
-58.05
-58.72
-55.31
-47.37
-35.42
-20.79
-5.26
9.49
22.17
32.14
39.25
43.68
45.76
45.95
44.80
42.93
40.96
39.34
38.22
37.44
36.62
35.40
33.53
30.92
27.48
23.08
17.45
10.38
1.96
-7.16
-15.73
-22.11
-24.76
-22.64
-15.60
-4.47
9.19
23.46
36.44
46.67
53.28
56.05
55.41
52.23
47.72
43.05
39.20
36.71
35.56
35.31
35.29
34.79
33.33
30.79
27.32
23.31
19.13
15.00
10.95
6.99
3.32
0.55
-0.38
1.51
6.85
15.59
27.01
39.94
53.21
65.91
77.45
87.37
95.13
99.96
101.03
97.68
89.87
78.20
63.90
48.43
33.04
18.37
4.40
-9.47
-24.06
-39.94
-57.35
-76.16
-96.17
-117.13
-138.66
-159.85
-179.00
-193.61
-200.91
-198.94
-187.40
-168.31
-145.71
-124.71
-110.23
-105.67
-112.18
-128.29
-150.26
-172.78
-190.10
-197.52
-192.53
-175.35
-148.56
-116.00
-81.20
-46.42
-12.42
21.01
54.20
86.94
118.08
145.50
166.45
178.20
179.03
169.29
152.13
133.21
119.07
114.74
121.73
137.09
154.57
167.05
169.36
160.01
141.19
117.39
93.20
71.88
54.82
41.94
32.58
26.21
22.48
20.87
20.26
18.94
15.16
7.91
-2.71
-15.29
-27.74
-38.16
-45.45
-49.62
-51.45
-51.82
-51.08
-48.79
-44.02
-36.06
-25.09
-12.53
-0.61
8.40
13.22
14.00
12.26
10.05
9.00
9.64
11.30
12.71
12.89
11.84
10.56
10.41
12.10
14.94
16.93
15.67
9.53
-1.43
-15.56
-30.54
-44.45
-56.45
-66.62
-75.27
-82.16
-86.46
-87.21
-84.12
-77.90
-69.99
-61.78
-53.99
-46.42
-38.42
-29.57
-20.09
-10.87
-3.02
2.60
5.60
5.94
3.71
-0.97
-7.82
-16.17
-24.87
-32.41
-37.44
-39.18
-37.61
-33.46
-27.75
-21.41
-15.13
-9.32
-4.23
-0.02
3.25
5.71
7.68
9.48
11.26
12.97
14.47
15.75
16.98
18.41
20.05
21.37
21.43
19.32
14.69
8.11
0.87
-5.63
-10.53
-13.88
-16.44
-19.11
-22.33
-25.82
-28.66
-29.72
-28.13
-23.65
-16.70
-8.23
0.67
9.36
17.99
27.80
41.04
60.59
89.26
128.92
179.57
238.90
302.17
363.05
414.90
452.32
472.44
475.46
464.24
443.19
416.92
389.12
362.07
336.64
312.68
289.43
265.94
241.28
214.77
186.02
155.06
122.25
88.20
53.54
18.60
-16.79
-53.40
-92.32
-134.23
-178.57
-222.98
-263.60
-296.07
-317.11
-325.72
-323.48
-313.86
-300.62
-286.58
-272.91
-259.48
-245.74
-231.44
-216.92
-202.75
-189.34
-176.61
-164.17
-151.63
-138.99
-126.66
-115.33
-105.51
-97.27
-90.18
-83.59
-76.97
-70.10
-63.14
-56.44
-50.34
-45.04
-40.57
-36.87
-33.90
-31.56
-29.76
-28.33
-27.18
-26.33
-26.02
-26.50
-27.94
-30.17
-32.75
-35.00
-36.31
-36.31
-34.96
-32.47
-29.21
-25.61
-22.04
-18.88
-16.44
-14.96
-14.53
-15.05
-16.24
-17.68
-18.96
-19.81
-20.18
-20.22
-20.23
-20.57
-21.49
-23.16
-25.55
-28.54
-31.84
-35.08
-37.87
-39.82
-40.56
-39.74
-37.06
-32.30
-25.44
-16.69
-6.56
4.29
15.13
25.38
34.65
42.68
49.24
54.06
56.89
57.62
56.45
53.90
50.66
47.37
44.38
41.65
38.89
35.78
32.15
28.07
23.84
19.69
15.79
12.08
8.37
4.47
0.30
-4.04
-8.26
-11.99
-14.86
-16.59
-17.01
-16.05
-13.73
-10.20
-5.70
-0.54
4.94
10.40
15.48
19.85
23.20
25.30
26.15
25.97
25.18
24.26
23.53
23.05
22.64
21.99
20.87
19.26
17.34
15.39
13.64
12.15
10.82
9.38
7.54
5.07
1.92
-1.75
-5.59
-9.08
-11.75
-13.25
-13.42
-12.33
-10.20
-7.31
-4.03
-0.70
2.40
5.10
7.39
9.34
11.03
12.48
13.60
14.22
14.24
13.71
12.85
11.88
10.97
10.14
9.25
8.15
6.77
5.15
3.39
1.54
-0.42
-2.64
-5.27
-8.36
-11.71
-14.92
-17.39
-18.56
-18.06
-15.89
-12.33
-7.93
-3.22
1.38
5.63
9.38
12.45
14.64
15.76
15.78
14.89
13.47
11.96
10.68
9.71
8.94
8.15
7.19
6.02
4.70
3.35
2.01
0.66
-0.80
-2.48
-4.49
-6.87
-9.63
-12.65
-15.64
-18.15
-19.65
-19.66
-17.96
-14.65
-10.12
-4.92
0.36
5.26
9.44
12.68
14.82
15.85
15.89
15.23
14.27
13.36
12.75
12.46
12.38
12.33
12.09
11.54
10.63
9.39
7.92
6.30
4.54
2.62
0.49
-1.93
-4.65
-7.63
-10.75
-13.81
-16.53
-18.59
-19.65
-19.44
-17.89
-15.15
-11.61
-7.74
-3.99
-0.59
2.36
4.89
7.04
8.81
10.13
10.93
11.23
11.09
10.67
10.11
9.53
8.93
8.23
7.34
6.23
4.92
3.49
2.02
0.52
-1.08
-2.88
-5.02
-7.58
-10.53
-13.69
-16.72
-19.16
-20.51
-20.37
-18.57
-15.22
-10.70
-5.55
-0.33
4.47
8.48
11.53
13.59
14.83
15.57
16.10
16.61
17.08
17.21
16.59
14.86
11.86
7.79
3.09
-1.65
-5.84
-9.07
-11.23
-12.48
-13.26
-14.17
-15.74
-18.30
-21.74
-25.55
-28.81
-30.57
-30.10
-27.23
-22.37
-16.42
-10.41
-5.15
-1.09
1.77
3.68
4.98
5.97
6.86
7.80
8.91
10.27
11.86
13.54
15.13
16.45
17.41
18.01
18.28
18.23
17.81
16.89
15.40
13.31
10.75
7.87
4.82
1.70
-1.51
-4.80
-7.97
-10.58
-11.89
-11.05
-7.29
-0.19
10.23
23.50
38.79
55.08
71.23
86.17
99.15
110.07
119.60
128.91
138.97
149.63
159.23
164.76
162.93
151.23
128.99
97.57
60.10
20.64
-16.61
-48.10
-71.54
-86.24
-93.30
-95.23
-95.08
-95.35
-97.02
-99.45
-100.93
-99.76
-95.10
-87.24
-77.13
-65.63
-52.98
-38.91
-23.10
-5.92
11.23
26.28
37.28
43.13
44.03
41.14
35.94
29.58
22.59
15.12
7.37
-0.12
-6.67
-12.09
-17.10
-23.35
-32.51
-45.16
-59.94
-73.67
-82.46
-83.50
-76.21
-62.58
-46.13
-30.53
-18.18
-9.86
-5.01
-2.55
-1.50
-1.22
-1.37
-1.64
-1.68
-1.26
-0.33
0.76
1.40
1.00
-0.76
-3.66
-7.03
-9.94
-11.65
-11.90
-11.15
-10.34
-10.55
-12.50
-16.21
-20.85
-25.01
-27.14
-26.07
-21.46
-13.92
-4.76
4.44
12.43
18.69
23.40
27.14
30.37
33.02
34.40
33.51
29.54
22.30
12.40
1.13
-9.99
-19.61
-26.94
-31.81
-34.54
-35.67
-35.73
-35.13
-34.19
-33.22
-32.67
-33.03
-34.71
-37.67
-41.27
-44.31
-45.40
-43.42
-37.98
-29.45
-18.83
-7.25
4.31
15.17
24.87
33.09
39.58
44.19
46.95
48.19
48.29
47.62
46.30
44.32
41.57
38.09
33.99
29.48
24.69
19.62
14.17
8.16
1.40
-6.27
-14.95
-24.48
-34.28
-43.23
-49.79
-52.37
-49.88
-42.19
-30.24
-15.82
-1.02
12.33
23.07
30.75
35.49
37.65
37.64
35.76
32.27
27.54
22.17
16.94
12.61
9.61
7.80
6.54
4.87
1.95
-2.58
-8.55
-15.42
-22.61
-29.81
-37.02
-44.37
-51.74
-58.54
-63.67
-65.84
-63.98
-57.72
-47.53
-34.68
-20.85
-7.67
3.60
12.29
18.23
21.66
23.08
23.04
22.04
20.51
18.71
16.80
14.91
13.12
11.46
9.87
8.19
6.22
3.78
0.73
-3.05
-7.66
-13.21
-19.72
-26.91
-34.08
-40.13
-43.78
-43.96
-40.14
-32.58
-22.23
-10.52
1.11
11.47
19.83
25.89
29.71
31.54
31.68
30.47
28.28
25.56
22.70
20.05
17.74
15.73
13.80
11.68
9.19
6.19
2.58
-1.81
-7.25
-13.99
-22.03
-30.90
-39.56
-46.48
-50.10
-49.27
-43.63
-33.80
-21.13
-7.36
5.79
17.04
25.61
31.24
34.11
34.67
33.55
31.35
28.60
25.64
22.63
19.61
16.53
13.31
9.96
6.49
2.97
-0.51
-3.94
-7.42
-11.20
-15.67
-21.14
-27.56
-34.39
-40.53
-44.58
-45.22
-41.68
-34.01
-23.09
-10.41
2.36
13.80
22.93
29.32
32.98
34.24
33.57
31.53
28.67
25.50
22.41
19.65
17.33
15.49
14.10
13.02
12.05
10.82
8.96
6.09
1.94
-3.58
-10.41
-18.31
-26.73
-34.82
-41.39
-45.14
-44.99
-40.47
-31.89
-20.28
-7.12
6.17
18.42
28.87
37.02
42.59
45.51
45.88
44.17
41.03
37.25
33.41
29.85
26.61
23.57
20.61
17.70
14.86
12.13
9.43
6.58
3.32
-0.66
-5.58
-11.53
-18.35
-25.46
-31.99
-36.79
-38.75
-37.03
-31.36
-22.10
-10.20
2.97
15.90
27.19
35.76
41.04
42.98
42.04
39.01
34.81
30.27
25.97
22.19
18.95
16.08
13.32
10.42
7.13
3.40
-0.72
-5.00
-9.16
-12.98
-16.49
-20.02
-24.05
-28.99
-34.80
-40.74
-45.53
-47.66
-45.98
-40.10
-30.53
-18.49
-5.48
7.05
18.01
26.63
32.44
35.35
35.55
33.67
30.55
27.15
24.24
22.15
20.81
19.77
18.52
16.66
14.06
10.82
7.19
3.37
-0.50
-4.47
-8.67
-13.34
-18.71
-24.83
-31.51
-38.11
-43.59
-46.73
-46.42
-42.11
-34.04
-23.17
-11.01
0.92
11.34
19.46
24.91
27.67
28.05
26.57
24.01
21.20
18.79
17.10
16.06
15.24
14.25
12.83
11.00
8.96
6.92
4.96
3.00
0.86
-1.71
-4.99
-9.24
-14.54
-20.67
-26.91
-32.11
-34.98
-34.50
-30.28
-22.74
-12.98
-2.36
7.78
16.47
23.09
27.37
29.28
29.04
27.09
24.04
20.57
17.23
14.32
11.82
9.51
7.14
4.54
1.72
-1.22
-4.19
-7.17
-10.23
-13.59
-17.52
-22.28
-27.96
-34.34
-40.74
-46.06
-49.03
-48.50
-43.92
-35.51
-24.22
-11.53
1.02
12.04
20.55
26.11
28.71
28.80
27.09
24.42
21.49
18.77
16.45
14.47
12.75
11.19
9.78
8.48
7.20
5.80
4.04
1.69
-1.47
-5.68
-11.00
-17.20
-23.65
-29.29
-32.86
-33.21
-29.77
-22.71
-12.94
-1.85
9.11
18.68
26.02
30.63
32.38
31.49
28.50
24.20
19.46
15.08
11.49
8.74
6.58
4.61
2.50
0.17
-2.37
-5.04
-7.87
-11.08
-14.97
-19.83
-25.70
-32.27
-38.80
-44.20
-47.27
-46.95
-42.69
-34.64
-23.67
-11.19
1.22
12.04
20.22
25.21
27.03
26.18
23.43
19.71
15.84
12.44
9.78
7.80
6.17
4.49
2.41
-0.21
-3.35
-6.85
-10.60
-14.60
-19.06
-24.19
-30.05
-36.29
-42.08
-46.20
-47.43
-44.92
-38.46
-28.65
-16.68
-4.03
7.90
17.97
25.51
30.27
32.35
32.15
30.25
27.31
23.94
20.59
17.54
14.88
12.56
10.43
8.36
6.16
3.69
0.84
-2.51
-6.46
-11.19
-16.86
-23.47
-30.68
-37.67
-43.22
-45.91
-44.62
-38.95
-29.41
-17.32
-4.37
7.80
18.01
25.62
30.51
32.87
33.12
31.79
29.47
26.73
23.95
21.36
18.93
16.54
14.10
11.65
9.28
7.12
5.11
3.00
0.42
-3.04
-7.68
-13.51
-20.16
-26.86
-32.49
-35.79
-35.64
-31.42
-23.25
-12.08
0.51
12.78
23.18
30.76
35.22
36.87
36.29
34.23
31.32
28.08
24.90
21.99
19.45
17.21
15.07
12.86
10.41
7.67
4.64
1.29
-2.50
-6.98
-12.44
-19.02
-26.46
-33.96
-40.25
-43.95
-43.92
-39.70
-31.61
-20.72
-8.49
3.55
14.13
22.42
28.05
31.08
31.86
30.91
28.85
26.17
23.36
20.72
18.43
16.52
14.90
13.37
11.71
9.82
7.66
5.34
2.92
0.30
-2.86
-6.95
-12.25
-18.49
-24.79
-29.84
-32.16
-30.74
-25.30
-16.46
-5.50
6.02
16.63
25.19
31.05
34.02
34.29
32.41
29.17
25.37
21.66
18.42
15.71
13.30
10.98
8.52
5.88
3.13
0.38
-2.30
-4.96
-7.75
-10.98
-15.00
-20.03
-26.00
-32.39
-38.20
-42.14
-42.97
-39.93
-33.02
-23.03
-11.32
0.55
11.22
19.73
25.65
28.90
29.79
28.81
26.61
23.85
21.11
18.74
16.88
15.46
14.32
13.29
12.19
10.90
9.25
7.09
4.27
0.59
-4.10
-9.92
-16.67
-23.81
-30.30
-34.81
-36.08
-33.34
-26.68
-17.04
-6.02
4.66
13.51
19.61
22.68
22.97
21.07
17.67
13.47
9.01
4.68
0.70
-2.80
-5.75
-8.13
-10.00
-11.50
-12.83
-14.25
-15.96
-18.23
-21.33
-25.60
-31.29
-38.32
-46.06
-53.29
-58.35
-59.71
-56.46
-48.66
-37.36
-24.27
-11.15
0.61
10.25
17.56
22.63
25.60
26.56
25.71
23.41
20.30
17.11
14.41
12.41
10.89
9.38
7.44
4.90
1.85
-1.50
-5.09
-9.11
-13.97
-20.04
-27.31
-35.14
-42.31
-47.26
-48.49
-45.11
-37.02
-25.10
-10.86
3.84
17.29
28.17
35.79
39.99
41.09
39.73
36.72
32.90
28.99
25.44
22.39
19.77
17.35
14.90
12.27
9.38
6.22
2.80
-0.95
-5.18
-10.17
-16.22
-23.52
-31.86
-40.44
-47.88
-52.48
-52.81
-48.15
-38.83
-26.12
-11.79
2.41
15.16
25.63
33.45
38.49
40.86
40.88
39.18
36.58
33.93
31.85
30.50
29.61
28.61
26.96
24.35
20.85
16.80
12.68
8.75
4.98
0.91
-4.15
-10.87
-19.53
-29.70
-40.21
-49.36
-55.36
-56.86
-53.31
-45.09
-33.36
-19.63
-5.46
7.84
19.29
28.26
34.42
37.75
38.52
37.34
35.06
32.61
30.77
29.96
30.12
30.79
31.36
31.27
30.31
28.57
26.40
24.13
21.95
19.81
17.45
14.55
10.67
5.53
-0.99
-8.59
-16.42
-23.15
-27.17
-27.01
-21.92
-12.13
1.17
16.15
30.85
43.73
53.77
60.54
64.00
64.34
61.89
57.17
50.90
43.95
37.21
31.37
26.79
23.33
20.54
17.79
14.56
10.64
6.14
1.44
-3.04
-7.07
-10.75
-14.40
-18.53
-23.59
-29.76
-36.92
-44.57
-51.80
-57.43
-60.14
-58.80
-52.80
-42.40
-28.59
-13.05
2.43
16.27
27.40
35.32
39.96
41.53
40.44
37.34
33.07
28.60
24.80
22.18
20.71
19.91
19.10
17.70
15.49
12.64
9.51
6.49
3.77
1.32
-1.08
-3.79
-7.24
-11.83
-17.82
-25.08
-32.91
-40.06
-44.97
-46.23
-43.05
-35.58
-24.83
-12.35
0.19
11.43
20.48
26.87
30.47
31.40
30.00
26.86
22.77
18.55
14.90
12.13
10.19
8.65
7.01
4.83
2.01
-1.31
-4.77
-8.03
-10.95
-13.68
-16.60
-20.21
-24.98
-31.18
-38.67
-46.84
-54.59
-60.43
-62.87
-60.82
-54.04
-43.26
-30.06
-16.38
-3.99
5.95
12.99
17.18
18.84
18.32
16.02
12.42
8.18
4.06
0.68
-1.71
-3.29
-4.57
-6.12
-8.33
-11.30
-14.87
-18.84
-23.02
-27.37
-32.01
-37.21
-43.39
-50.96
-60.17
-70.76
-81.79
-91.65
-98.47
-100.71
-97.76
-90.27
-79.85
-68.57
-58.29
-50.22
-44.85
-42.11
-41.80
-43.76
-47.97
-54.42
-63.04
-73.58
-85.61
-98.56
-111.62
-123.68
-133.25
-138.61
-138.08
-130.74
-116.85
-98.16
-77.50
-58.05
-42.35
-31.63
-25.69
-23.40
-23.35
-24.30
-25.22
-25.01
-22.28
-15.46
-3.34
14.19
35.87
59.26
81.68
101.14
116.89
129.31
139.31
147.55
154.12
158.62
160.69
160.46
158.59
156.00
153.34
150.64
147.29
142.43
135.48
126.51
116.23
105.78
96.23
88.15
81.39
75.12
68.01
58.68
46.07
29.79
10.31
-11.06
-32.46
-51.88
-67.63
-78.62
-84.51
-85.55
-82.35
-75.74
-66.65
-56.20
-45.65
-36.30
-29.18
-24.83
-23.11
-23.33
-24.45
-25.52
-25.90
-25.44
-24.35
-23.01
-21.59
-19.98
-17.71
-14.17
-8.81
-1.48
7.47
17.25
26.85
35.26
41.86
46.55
49.76
52.25
54.83
57.99
61.74
65.57
68.67
70.14
69.13
64.80
56.22
42.47
22.84
-2.67
-33.05
-66.31
-100.00
-131.67
-159.28
-181.07
-195.32
-200.46
-195.73
-182.19
-163.15
-143.58
-128.41
-120.45
-119.30
-121.69
-123.28
-120.84
-113.49
-102.69
-90.82
-79.72
-69.73
-59.95
-49.12
-36.58
-22.57
-7.88
7.01
22.46
39.69
59.99
83.64
109.12
133.14
151.75
162.06
163.61
158.72
151.52
146.06
144.67
147.24
151.81
155.93
158.02
157.84
155.96
152.77
147.71
139.45
126.89
110.39
92.30
76.40
66.44
64.52
70.31
81.32
94.16
105.89
114.98
121.32
125.56
128.33
129.67
129.08
125.96
120.08
111.83
102.12
91.93
81.83
71.70
60.75
47.96
32.69
15.08
-3.88
-22.68
-39.79
-54.22
-65.62
-74.31
-81.01
-86.58
-91.82
-97.18
-102.58
-107.24
-109.88
-109.04
-103.72
-93.83
-80.35
-65.02
-49.79
-36.20
-25.08
-16.72
-11.03
-7.81
-6.78
-7.42
-8.97
-10.50
-11.25
-10.87
-9.62
-8.15
-7.24
-7.47
-9.05
-11.83
-15.45
-19.54
-23.80
-28.19
-32.81
-37.87
-43.46
-49.31
-54.64
-58.32
-59.04
-55.80
-48.28
-36.91
-22.86
-7.63
7.22
20.41
31.01
38.47
42.64
43.71
42.20
38.90
34.69
30.32
26.28
22.74
19.55
16.42
13.05
9.27
5.00
0.26
-4.91
-10.51
-16.69
-23.53
-30.97
-38.58
-45.46
-50.43
-52.27
-50.26
-44.41
-35.54
-24.97
-14.07
-3.87
5.14
12.89
19.56
25.29
30.12
34.04
37.08
39.31
40.83
41.72
41.98
41.56
40.41
38.53
36.06
33.15
29.98
26.57
22.81
18.44
13.17
6.79
-0.60
-8.52
-16.14
-22.37
-26.15
-26.71
-23.89
-18.10
-10.25
-1.44
7.29
15.17
21.73
26.72
30.07
31.79
32.05
31.18
29.66
27.97
26.45
25.22
24.15
22.99
21.48
19.51
17.13
14.47
11.71
8.89
5.93
2.63
-1.19
-5.65
-10.68
-15.94
-20.81
-24.44
-25.91
-24.43
-19.62
-11.67
-1.41
9.87
20.78
30.13
37.25
42.00
44.66
45.75
45.77
45.09
43.92
42.39
40.54
38.42
36.19
34.11
32.62
32.27
33.52
36.59
41.19
46.47
51.20
54.03
53.92
50.45
43.99
35.66
27.06
19.83
15.29
14.09
16.21
20.99
27.36
34.18
40.32
44.92
47.38
47.48
45.33
41.27
35.83
29.50
22.76
15.92
9.24
2.95
-2.83
-8.08
-13.03
-18.04
-23.55
-29.85
-37.03
-44.95
-53.36
-61.98
-70.53
-78.61
-85.61
-90.68
-92.92
-91.65
-86.64
-78.28
-67.55
-55.73
-44.11
-33.74
-25.25
-18.84
-14.41
-11.64
-10.18
-9.69
-9.86
-10.42
-11.17
-11.93
-12.60
-13.16
-13.64
-14.17
-14.87
-15.90
-17.37
-19.42
-22.18
-25.73
-30.03
-34.79
-39.39
-42.96
-44.53
-43.31
-38.99
-31.84
-22.68
-12.67
-2.92
5.68
12.60
17.64
20.77
22.11
21.85
20.31
17.93
15.23
12.67
10.59
9.09
8.06
7.23
6.31
5.07
3.40
1.25
-1.42
-4.77
-8.97
-14.12
-20.02
-26.03
-31.15
-34.25
-34.49
-31.59
-26.00
-18.64
-10.62
-2.94
3.71
8.95
12.65
14.82
15.60
15.28
14.23
12.84
11.39
10.02
8.74
7.54
6.45
5.58
5.03
4.82
4.80
4.64
3.88
2.03
-1.28
-6.16
-12.25
-18.77
-24.58
-28.46
-29.47
-27.20
-21.95
-14.53
-6.12
2.15
9.38
15.06
18.98
21.27
22.16
22.04
21.31
20.31
19.30
18.37
17.51
16.60
15.57
14.37
13.04
11.69
10.33
8.88
7.14
4.82
1.65
-2.50
-7.45
-12.68
-17.29
-20.25
-20.62
-17.92
-12.30
-4.55
4.18
12.70
20.08
25.79
29.63
31.62
31.95
30.90
28.91
26.53
24.24
22.33
20.74
19.10
16.93
13.92
10.04
5.58
0.98
-3.36
-7.30
-10.95
-14.58
-18.47
-22.78
-27.41
-32.02
-36.00
-38.61
-39.15
-37.12
-32.39
-25.30
-16.54
-7.06
2.11
10.12
16.31
20.39
22.37
22.57
21.51
19.80
17.98
16.38
15.13
14.15
13.24
12.20
10.86
9.10
6.90
4.28
1.32
-1.84
-5.12
-8.42
-11.81
-15.42
-19.44
-23.88
-28.46
-32.51
-35.12
-35.38
-32.72
-27.17
-19.37
-10.39
-1.39
6.65
13.08
17.63
20.24
21.03
20.30
18.47
16.14
13.89
12.13
10.95
10.20
9.55
8.76
7.70
6.42
4.93
3.20
1.09
-1.53
-4.68
-8.26
-12.13
-16.20
-20.38
-24.51
-28.21
-30.82
-31.53
-29.68
-25.01
-17.90
-9.26
-0.27
7.94
14.61
19.43
22.44
23.90
24.10
23.32
21.83
19.90
17.83
15.89
14.20
12.72
11.26
9.59
7.54
5.09
2.38
-0.41
-3.13
-5.82
-8.69
-12.09
-16.29
-21.31
-26.79
-31.97
-35.88
-37.60
-36.53
-32.59
-26.23
-18.28
-9.79
-1.79
4.87
9.64
12.30
12.93
11.80
9.37
6.13
2.57
-0.89
-3.98
-6.57
-8.69
-10.43
-11.90
-13.07
-13.88
-14.27
-14.34
-14.44
-15.12
-16.99
-20.49
-25.64
-31.92
-38.29
-43.45
-46.15
-45.49
-41.21
-33.67
-23.81
-12.85
-2.00
7.70
15.51
21.02
24.16
25.18
24.58
23.07
21.33
19.96
19.22
19.10
19.33
19.53
19.35
18.62
17.40
15.86
14.25
12.67
11.12
9.40
7.23
4.33
0.57
-3.96
-8.86
-13.42
-16.69
-17.74
-15.83
-10.74
-2.82
7.04
17.63
27.75
36.45
43.13
47.56
49.82
50.19
49.09
46.99
44.34
41.47
38.60
35.77
32.97
30.10
27.07
23.80
20.24
16.44
12.48
8.49
4.56
0.66
-3.44
-8.13
-13.77
-20.57
-28.31
-36.36
-43.67
-49.03
-51.42
-50.33
-45.91
-38.93
-30.50
-21.77
-13.64
-6.63
-1.01
3.11
5.66
6.64
6.20
4.67
2.59
0.53
-1.00
-1.80
-1.86
-1.45
-0.90
-0.52
-0.52
-0.96
-1.81
-2.98
-4.41
-6.03
-7.81
-9.71
-11.72
-13.90
-16.33
-19.10
-22.15
-25.15
-27.47
-28.30
-26.91
-22.96
-16.65
-8.69
-0.11
8.07
15.03
20.28
23.58
24.92
24.42
22.34
19.12
15.31
11.52
8.23
5.67
3.77
2.17
0.45
-1.74
-4.50
-7.70
-11.07
-14.26
-17.06
-19.38
-21.33
-23.14
-25.14
-27.55
-30.47
-33.67
-36.61
-38.51
-38.55
-36.15
-31.14
-23.82
-14.81
-4.94
4.98
14.22
22.21
28.51
32.83
35.10
35.57
34.73
33.26
31.76
30.58
29.69
28.71
27.13
24.60
21.04
16.68
11.97
7.29
2.89
-1.26
-5.35
-9.66
-14.47
-19.93
-25.99
-32.22
-37.89
-42.00
-43.62
-42.15
-37.55
-30.35
-21.52
-12.11
-3.09
4.87
11.26
15.78
18.29
18.80
17.60
15.20
12.28
9.44
7.14
5.53
4.44
3.49
2.24
0.41
-2.09
-5.07
-8.20
-11.12
-13.66
-15.85
-17.98
-20.38
-23.35
-26.94
-30.92
-34.76
-37.78
-39.23
-38.51
-35.35
-29.85
-22.51
-14.12
-5.55
2.38
9.07
14.19
17.64
19.51
20.01
19.47
18.27
16.84
15.55
14.61
14.07
13.77
13.45
12.85
11.81
10.37
8.67
6.92
5.25
3.63
1.91
-0.21
-2.97
-6.48
-10.57
-14.72
-18.08
-19.78
-19.12
-15.88
-10.36
-3.32
4.34
11.79
18.46
23.98
28.07
30.52
31.16
30.03
27.49
24.18
20.83
18.00
15.89
14.33
12.91
11.29
9.28
6.90
4.33
1.68
-1.01
-3.80
-6.78
-10.02
-13.53
-17.37
-21.56
-26.03
-30.58
-34.75
-37.89
-39.29
-38.38
-34.95
-29.24
-21.87
-13.72
-5.67
1.54
7.36
11.56
14.07
15.05
14.82
13.79
12.44
11.23
10.44
10.17
10.27
10.43
10.29
9.56
8.16
6.25
4.12
2.12
0.45
-0.90
-2.19
-3.86
-6.25
-9.40
-12.83
-15.60
-16.57
-14.71
-9.55
-1.39
8.82
19.74
30.08
39.07
46.55
52.96
59.03
65.45
72.61
80.55
89.07
98.01
107.54
118.29
131.31
147.52
167.14
189.12
210.92
229.03
239.90
240.80
230.56
209.84
181.22
148.92
118.25
94.49
81.33
79.46
86.04
95.46
101.33
98.77
86.00
64.38
37.24
8.16
-20.19
-46.23
-69.04
-87.83
-102.05
-111.81
-118.49
-124.52
-132.62
-144.84
-161.56
-181.34
-201.40
-218.64
-230.65
-236.29
-235.81
-230.42
-221.68
-210.94
-199.03
-186.28
-172.66
-158.04
-142.30
-125.37
-107.21
-87.92
-67.82
-47.56
-28.12
-10.62
3.97
15.00
22.30
26.07
26.82
25.29
22.38
19.06
16.19
14.29
13.39
13.09
12.72
11.67
9.61
6.50
2.45
-2.42
-8.12
-14.83
-22.79
-32.10
-42.62
-53.71
-64.35
-73.30
-79.53
-82.56
-82.72
-80.97
-78.48
-76.17
-74.40
-72.98
-71.35
-68.92
-65.29
-60.41
-54.63
-48.73
-43.79
-40.88
-40.73
-43.34
-47.89
-52.88
-56.53
-57.18
-53.57
-44.99
-31.28
-13.01
8.49
31.12
52.35
69.66
81.19
86.18
85.01
79.01
69.98
59.82
50.12
41.97
35.87
31.59
28.24
24.46
18.88
10.73
0.42
-10.14
-17.85
-19.29
-12.03
4.44
28.24
55.77
82.95
106.52
124.84
137.88
146.52
151.69
153.98
153.78
151.63
148.70
146.65
147.13
150.97
157.64
165.08
170.32
170.42
163.49
149.44
130.03
108.14
86.72
67.71
51.45
37.04
23.22
9.31
-4.09
-15.28
-22.32
-24.18
-21.51
-16.88
-13.89
-16.01
-25.25
-41.61
-63.23
-87.12
-109.77
-127.74
-138.13
-139.16
-130.91
-116.02
-99.44
-87.11
-83.50
-89.57
-102.01
-114.80
-122.24
-121.86
-115.62
-108.47
-105.14
-106.94
-110.40
-108.65
-94.89
-66.04
-25.01
19.78
57.47
78.74
79.14
60.26
28.43
-8.12
-42.14
-69.21
-87.77
-97.88
-99.94
-94.15
-80.93
-61.89
-40.30
-20.65
-7.15
-2.13
-5.08
-12.86
-21.20
-26.35
-26.54
-22.21
-15.44
-8.69
-3.72
-0.96
0.25
1.15
2.91
6.13
10.78
16.29
21.90
26.85
30.65
33.21
34.83
36.15
37.83
40.29
43.44
46.66
48.89
48.92
45.72
38.68
27.85
14.09
-0.96
-15.13
-26.13
-32.25
-32.80
-28.38
-20.55
-11.24
-2.09
6.04
13.06
19.32
25.29
31.17
36.91
42.19
46.49
49.04
48.87
44.96
36.64
24.00
8.06
-9.41
-26.43
-41.29
-52.96
-61.11
-65.89
-67.70
-67.07
-64.56
-60.82
-56.36
-51.45
-45.94
-39.34
-31.07
-20.80
-8.81
4.04
16.45
27.13
35.12
39.99
41.89
41.33
38.90
35.14
30.44
25.11
19.47
13.83
8.39
3.13
-2.25
-8.16
-14.88
-22.35
-30.07
-37.25
-43.22
-47.73
-51.19
-54.74
-59.91
-68.12
-80.05
-95.04
-110.92
-124.23
-131.15
-128.55
-115.14
-91.93
-61.99
-29.46
1.69
28.59
49.83
65.12
74.79
79.31
79.28
75.56
69.47
62.74
57.04
53.47
52.17
52.37
52.81
52.37
50.52
47.43
43.75
40.24
37.38
35.22
33.39
31.29
28.36
24.37
19.45
14.10
8.90
4.35
0.75
-1.81
-3.36
-3.87
-3.27
-1.52
1.31
4.91
8.80
12.46
15.45
17.46
18.35
18.05
16.56
13.89
10.22
5.82
1.06
-3.64
-7.97
-11.81
-15.17
-18.21
-21.07
-23.81
-26.41
-28.74
-30.65
-32.02
-32.73
-32.65
-31.56
-29.22
-25.41
-20.07
-13.41
-5.96
1.56
8.28
13.43
16.48
17.23
15.86
12.84
8.79
4.34
0.03
-3.76
-6.75
-8.78
-9.75
-9.66
-8.69
-7.17
-5.52
-4.12
-3.15
-2.53
-2.02
-1.39
-0.51
0.52
1.51
2.27
2.76
3.08
3.45
4.07
4.96
6.00
6.87
7.18
6.62
5.08
2.65
-0.42
-3.79
-7.14
-10.25
-12.97
-15.22
-16.94
-18.09
-18.71
-18.85
-18.62
-18.15
-17.48
-16.66
-15.67
-14.52
-13.24
-11.85
-10.43
-9.02
-7.72
-6.68
-6.00
-5.74
-5.78
-5.89
-5.76
-5.12
-3.84
-1.98
0.29
2.77
5.27
7.64
9.75
11.39
12.28
12.13
10.74
8.13
4.58
0.63
-3.23
-6.63
-9.54
-12.11
-14.51
-16.75
-18.59
-19.70
-19.94
-19.52
-18.99
-18.97
-19.84
-21.55
-23.65
-25.55
-26.80
-27.23
-26.88
-25.93
-24.49
-22.65
-20.49
-18.19
-15.96
-13.99
-12.35
-10.98
-9.67
-8.22
-6.50
-4.45
-2.16
0.20
2.41
4.28
5.67
6.58
7.12
7.45
7.77
8.14
8.58
9.00
9.34
9.53
9.56
9.43
9.18
8.81
8.40
8.01
7.73
7.62
7.63
7.66
7.56
7.28
6.85
6.44
6.32
6.76
7.90
9.71
12.01
14.47
16.80
18.71
20.06
20.80
20.90
20.40
19.33
17.80
15.90
13.77
11.58
9.46
7.50
5.69
3.97
2.18
0.25
-1.90
-4.19
-6.45
-8.50
-10.19
-11.52
-12.65
-13.82
-15.27
-17.14
-19.30
-21.40
-22.95
-23.36
-22.21
-19.31
-14.83
-9.31
-3.50
1.81
5.98
8.67
9.87
9.81
8.88
7.47
5.91
4.47
3.34
2.65
2.43
2.55
2.78
2.82
2.43
1.57
0.35
-1.01
-2.30
-3.47
-4.63
-6.03
-7.79
-9.84
-11.77
-12.94
-12.75
-10.81
-7.19
-2.31
3.17
8.56
13.30
16.98
19.28
20.03
19.21
17.09
14.16
11.05
8.26
6.00
4.12
2.29
0.28
-1.89
-3.96
-5.64
-6.78
-7.49
-8.02
-8.61
-9.32
-10.14
-11.00
-11.96
-13.18
-14.76
-16.53
-18.04
-18.54
-17.37
-14.20
-9.24
-3.18
3.03
8.51
12.73
15.54
17.15
17.90
18.11
17.99
17.68
17.24
16.74
16.22
15.74
15.33
15.05
15.02
15.42
16.48
18.26
20.59
22.97
24.67
24.93
23.27
19.62
14.47
8.60
2.91
-1.89
-5.33
-7.28
-7.76
-6.94
-5.16
-2.83
-0.48
1.39
2.49
2.75
2.40
1.79
1.26
0.99
0.94
0.96
0.82
0.44
-0.20
-0.95
-1.69
-2.29
-2.75
-3.16
-3.64
-4.30
-5.25
-6.60
-8.39
-10.62
-13.12
-15.60
-17.62
-18.68
-18.46
-16.81
-13.89
-10.03
-5.70
-1.35
2.68
6.14
8.93
11.01
12.46
13.40
14.03
14.54
15.08
15.68
16.24
16.60
16.60
16.18
15.42
14.44
13.36
12.19
10.86
9.29
7.45
5.40
3.29
1.27
-0.46
-1.77
-2.53
-2.66
-2.15
-1.10
0.33
1.96
3.60
5.07
6.14
6.58
6.14
4.69
2.28
-0.80
-4.10
-7.19
-9.73
-11.60
-12.80
-13.44
-13.64
-13.55
-13.30
-13.04
-12.92
-12.99
-13.29
-13.82
-14.61
-15.73
-17.14
-18.58
-19.55
-19.34
-17.37
-13.44
-7.87
-1.49
4.71
9.87
13.54
15.69
16.58
16.53
15.82
14.55
12.79
10.62
8.17
5.69
3.45
1.68
0.48
-0.25
-0.76
-1.33
-2.20
-3.56
-5.50
-8.11
-11.42
-15.29
-19.27
-22.59
-24.31
-23.63
-20.25
-14.51
-7.34
0.08
6.65
11.68
14.88
16.31
16.21
14.85
12.56
9.71
6.76
4.15
2.22
1.09
0.61
0.39
-0.02
-0.99
-2.67
-4.96
-7.63
-10.43
-13.27
-16.14
-19.09
-21.97
-24.43
-25.90
-25.83
-23.89
-20.15
-15.06
-9.31
-3.58
1.60
5.93
9.33
11.79
13.43
14.30
14.55
14.36
13.96
13.55
13.27
13.10
12.95
12.64
12.00
10.92
9.45
7.68
5.81
3.97
2.16
0.19
-2.16
-4.91
-7.70
-9.74
-10.12
-8.22
-4.02
1.79
8.17
14.11
19.08
22.99
26.04
28.37
29.93
30.51
30.03
28.67
26.87
25.14
23.81
22.91
22.22
21.36
20.06
18.10
15.53
12.46
9.08
5.53
1.81
-2.26
-6.97
-12.59
-19.17
-26.45
-33.77
-40.16
-44.58
-46.12
-44.35
-39.41
-32.07
-23.58
-15.29
-8.37
-3.49
-0.77
0.14
-0.16
-1.04
-1.98
-2.65
-2.88
-2.70
-2.22
-1.62
-1.07
-0.59
-0.16
0.31
0.81
1.08
0.73
-0.70
-3.51
-7.60
-12.45
-17.21
-20.91
-22.70
-22.09
-19.04
-13.90
-7.30
-0.00
7.17
13.50
18.35
21.37
22.48
22.01
20.53
18.72
17.15
16.07
15.36
14.67
13.62
11.97
9.70
7.03
4.23
1.57
-0.86
-3.12
-5.51
-8.44
-12.35
-17.49
-23.73
-30.44
-36.52
-40.71
-41.95
-39.84
-34.77
-27.78
-20.31
-13.75
-9.11
-6.85
-6.77
-8.14
-9.84
-10.70
-9.88
-7.14
-3.01
1.48
5.10
6.86
6.33
3.64
-0.68
-5.93
-11.47
-16.84
-21.80
-26.26
-30.33
-34.30
-38.67
-44.12
-51.31
-60.63
-71.72
-83.33
-93.43
-99.78
-100.74
-95.86
-86.08
-73.36
-59.99
-47.87
-38.18
-31.50
-28.06
-27.92
-31.03
-36.92
-44.66
-52.94
-60.41
-66.18
-70.05
-72.48
-74.17
-75.58
-76.63
-76.71
-74.98
-70.85
-64.36
-56.28
-47.95
-40.91
-36.51
-35.46
-37.66
-42.02
-46.66
-49.35
-48.00
-41.36
-29.32
-12.96
5.87
25.05
42.75
57.69
69.17
77.02
81.42
82.84
81.97
79.66
76.78
74.05
71.87
70.29
69.02
67.57
65.51
62.56
58.72
54.22
49.41
44.50
39.47
33.98
27.51
19.54
9.86
-1.21
-12.66
-22.88
-29.91
-31.93
-27.75
-17.28
-1.55
17.53
37.67
56.80
73.40
86.63
96.20
102.16
104.72
104.29
101.51
97.22
92.30
87.50
83.17
79.26
75.39
71.12
66.18
60.62
54.78
49.08
43.87
39.14
34.48
29.17
22.38
13.57
2.77
-9.14
-20.54
-29.38
-33.78
-32.51
-25.36
-13.20
2.33
19.24
35.65
50.04
61.37
69.04
72.88
73.08
70.23
65.31
59.54
54.15
50.05
47.54
46.19
45.10
43.17
39.64
34.31
27.55
20.10
12.71
5.93
-0.11
-5.63
-11.12
-17.17
-24.37
-33.03
-42.93
-53.15
-62.05
-67.66
-68.18
-62.60
-51.07
-34.83
-15.85
3.79
22.33
38.60
51.95
62.06
68.80
72.24
72.67
70.71
67.33
63.56
60.26
57.83
56.14
54.61
52.54
49.44
45.24
40.29
35.14
30.31
25.99
21.94
17.65
12.40
5.56
-3.38
-14.66
-28.16
-43.24
-58.56
-72.19
-81.79
-85.28
-81.44
-70.38
-53.58
-33.48
-12.74
6.43
22.69
35.58
45.23
51.98
56.20
58.19
58.37
57.33
55.81
54.57
54.16
54.79
56.28
58.20
60.01
61.28
61.81
61.59
60.76
59.41
57.58
55.14
52.01
48.14
43.56
38.29
32.24
25.22
17.14
8.33
-0.18
-6.80
-9.77
-7.87
-0.95
9.84
22.46
34.58
44.36
50.74
53.57
53.25
50.44
45.81
39.93
33.28
26.34
19.50
13.10
7.35
2.32
-2.01
-5.74
-9.00
-11.91
-14.54
-16.95
-19.20
-21.41
-23.80
-26.69
-30.38
-35.12
-40.94
-47.70
-55.11
-62.80
-70.35
-77.10
-82.01
-83.70
-80.82
-72.54
-59.06
-41.74
-22.69
-4.13
12.31
25.82
36.33
44.07
49.25
51.91
52.20
50.54
47.76
44.87
42.74
41.74
41.74
42.17
42.36
41.79
40.28
37.98
35.21
32.30
29.39
26.34
22.80
18.34
12.59
5.40
-3.09
-12.48
-22.14
-31.28
-39.07
-44.73
-47.76
-48.02
-45.86
-41.96
-37.18
-32.26
-27.67
-23.67
-20.34
-17.80
-16.17
-15.52
-15.68
-16.18
-16.41
-15.82
-14.16
-11.57
-8.54
-5.65
-3.36
-1.88
-1.14
-0.86
-0.73
-0.56
-0.33
-0.22
-0.57
-1.73
-3.94
-7.22
-11.34
-15.87
-20.23
-23.76
-25.82
-25.87
-23.65
-19.19
-12.95
-5.69
1.62
8.07
12.96
15.91
16.88
16.18
14.32
11.98
9.78
8.19
7.36
7.09
6.95
6.42
5.14
2.97
0.01
-3.46
-7.08
-10.57
-13.75
-16.57
-19.14
-21.74
-24.74
-28.56
-33.42
-39.20
-45.35
-50.92
-54.85
-56.26
-54.77
-50.64
-44.68
-37.92
-31.32
-25.52
-20.86
-17.55
-15.79
-15.77
-17.56
-20.88
-25.11
-29.37
-32.89
-35.28
-36.69
-37.68
-38.87
-40.63
-42.93
-45.39
-47.50
-48.84
-49.19
-48.51
-46.89
-44.49
-41.54
-38.31
-35.09
-32.08
-29.37
-26.84
-24.34
-21.71
-18.95
-16.27
-14.02
-12.55
-12.07
-12.48
-13.45
-14.47
-15.07
-14.99
-14.13
-12.54
-10.29
-7.45
-4.14
-0.61
2.68
5.09
6.01
5.01
2.04
-2.53
-8.10
-13.99
-19.71
-25.07
-30.22
-35.47
-41.08
-46.94
-52.44
-56.47
-57.66
-54.78
-47.03
-34.39
-17.64
1.73
21.77
40.42
55.93
67.16
73.76
76.18
75.35
72.44
68.47
64.19
60.21
57.10
55.42
55.42
56.83
58.61
59.23
57.08
51.10
41.06
27.52
11.57
-5.44
-21.94
-36.09
-45.81
-49.20
-45.12
-33.85
-17.27
1.62
19.52
33.80
42.99
46.93
46.46
42.86
37.57
31.84
26.63
22.50
19.59
17.64
16.13
14.36
11.70
7.73
2.39
-4.00
-10.86
-17.66
-24.22
-30.88
-38.32
-47.09
-57.08
-67.12
-75.12
-78.62
-75.55
-64.98
-47.50
-25.12
-0.72
22.68
42.54
57.34
66.67
71.05
71.63
69.77
66.66
63.16
59.70
56.39
53.14
49.88
46.64
43.63
41.18
39.59
38.97
39.13
39.54
39.36
37.65
33.57
26.65
17.18
6.41
-3.39
-9.47
-9.37
-1.82
12.58
31.54
51.76
69.98
83.86
92.28
95.10
92.61
85.20
73.18
57.08
37.88
17.04
-3.71
-22.81
-39.31
-52.87
-63.71
-72.18
-78.50
-82.74
-84.94
-85.52
-85.48
-86.35
-89.76
-96.80
-107.47
-120.52
-133.81
-145.00
-152.32
-155.17
-154.27
-151.32
-148.46
-147.56
-149.68
-154.84
-162.11
-169.96
-176.74
-181.11
-182.39
-180.61
-176.22
-169.83
-161.93
-152.82
-142.67
-131.70
-120.22
-108.59
-97.17
-86.17
-75.69
-65.75
-56.29
-47.09
-37.61
-26.92
-14.02
1.80
20.51
41.22
62.36
82.16
99.08
112.14
120.91
125.45
126.16
123.74
119.10
113.26
107.21
101.71
97.14
93.61
90.99
89.06
87.62
86.46
85.35
83.97
81.95
78.83
74.16
67.64
59.34
49.92
40.67
33.39
29.85
31.18
37.19
46.24
55.60
62.35
64.20
60.12
50.35
35.98
18.39
-1.16
-21.62
-41.99
-61.32
-78.73
-93.61
-105.79
-115.59
-123.62
-130.53
-136.84
-142.83
-148.67
-154.49
-160.53
-167.07
-174.30
-181.88
-188.75
-193.05
-192.50
-185.07
-169.68
-146.53
-116.88
-82.51
-45.23
-6.74
31.10
66.08
95.78
118.22
132.65
139.99
142.46
142.64
142.39
142.30
141.89
140.38
137.38
133.31
129.09
125.65
123.47
122.44
122.11
121.86
121.09
119.30
116.11
111.43
105.60
99.52
94.52
91.88
92.46
96.37
102.99
111.33
120.37
129.27
137.34
143.85
148.04
149.20
146.99
141.64
133.92
124.86
115.29
105.61
95.71
85.20
73.80
61.62
49.17
37.18
26.24
16.53
7.73
-0.84
-9.93
-20.03
-31.09
-42.42
-52.81
-60.79
-65.06
-64.84
-60.17
-51.96
-41.73
-31.29
-22.24
-15.70
-12.15
-11.50
-13.22
-16.56
-20.69
-24.73
-27.84
-29.28
-28.59
-25.62
-20.77
-14.94
-9.35
-5.24
-3.56
-4.69
-8.43
-14.29
-21.73
-30.53
-40.65
-51.88
-63.33
-73.26
-79.23
-79.00
-71.36
-56.84
-37.62
-16.78
2.82
19.36
32.32
42.13
49.44
54.61
57.68
58.60
57.61
55.35
52.69
50.32
48.47
46.89
45.03
42.48
39.18
35.51
32.08
29.44
27.78
26.80
25.82
23.92
20.30
14.53
6.64
-2.90
-13.30
-23.62
-32.80
-39.75
-43.46
-43.16
-38.54
-29.95
-18.38
-5.24
7.96
20.00
30.15
38.12
43.94
47.69
49.43
49.22
47.26
44.03
40.26
36.83
34.45
33.35
33.15
32.97
31.76
28.78
23.89
17.56
10.68
4.17
-1.20
-4.83
-6.24
-5.00
-0.77
6.46
16.30
27.84
39.95
51.40
61.14
68.32
72.34
72.71
69.24
62.01
51.55
38.84
25.18
12.05
0.91
-7.06
-11.07
-10.90
-6.96
-0.26
7.74
15.37
20.96
23.13
20.82
13.47
1.12
-15.55
-35.07
-55.24
-73.40
-86.83
-93.36
-91.89
-82.74
-67.63
-49.35
-31.07
-15.66
-5.13
-0.32
-1.00
-6.13
-14.33
-24.14
-34.23
-43.39
-50.61
-55.08
-56.38
-54.53
-50.03
-43.76
-36.66
-29.59
-23.07
-17.30
-12.33
-8.14
-4.82
-2.57
-1.60
-1.91
-3.16
-4.66
-5.44
-4.65
-1.90
2.63
8.13
13.60
18.20
21.55
23.77
25.24
26.26
26.74
26.35
24.65
21.47
17.14
12.53
8.84
7.31
8.71
13.11
19.75
27.28
34.24
39.70
43.69
47.07
51.00
56.37
63.26
70.82
77.58
81.61
80.65
72.36
55.00
28.65
-3.72
-36.26
-61.79
-74.51
-72.60
-59.07
-40.42
-23.55
-12.71
-8.14
-6.87
-5.15
-0.76
5.92
12.54
16.36
15.74
10.65
2.19
-8.27
-19.85
-32.33
-45.96
-60.86
-76.75
-93.07
-109.25
-125.03
-140.41
-155.32
-169.18
-180.75
-188.40
-190.59
-186.31
-175.43
-158.57
-137.00
-112.48
-87.13
-63.20
-42.62
-26.41
-14.25
-4.61
4.54
14.67
25.83
36.68
45.22
50.13
51.67
51.79
53.19
57.89
66.11
76.23
85.59
91.48
91.92
85.73
72.68
53.62
30.88
8.29
-9.73
-19.74
-21.11
-16.65
-11.77
-12.38
-22.47
-42.72
-70.69
-102.04
-132.13
-157.03
-173.90
-180.99
-177.75
-164.98
-144.81
-120.45
-95.48
-73.07
-55.24
-42.42
-33.59
-26.65
-19.27
-9.62
2.98
17.97
33.90
49.13
62.33
72.81
80.31
84.76
86.26
85.15
82.33
79.22
77.40
77.95
80.79
84.67
87.62
87.93
84.78
78.51
70.18
60.90
51.43
42.06
33.05
24.72
17.30
10.59
3.67
-4.68
-15.29
-28.00
-41.83
-55.87
-70.43
-87.38
-109.24
-137.46
-170.81
-205.28
-235.36
-256.39
-266.30
-266.13
-258.84
-247.44
-233.59
-217.26
-197.62
-174.15
-147.56
-119.74
-93.07
-69.47
-49.68
-33.26
-19.07
-6.02
6.32
17.57
26.85
33.42
37.10
38.42
38.28
37.60
36.88
36.24
35.60
35.02
34.86
35.66
37.97
42.02
47.56
53.97
60.36
65.82
69.64
71.40
71.02
68.82
65.35
61.31
57.27
53.57
50.22
46.97
43.52
39.67
35.43
30.94
26.37
21.72
16.76
11.11
4.45
-3.20
-11.31
-18.83
-24.51
-27.21
-26.33
-21.96
-14.75
-5.70
4.12
13.86
22.89
30.74
37.09
41.71
44.49
45.55
45.17
43.80
41.97
40.17
38.72
37.71
36.90
35.92
34.32
31.78
28.13
23.36
17.41
10.28
2.12
-6.62
-15.01
-21.77
-25.57
-25.53
-21.48
-14.01
-4.32
6.30
16.61
25.72
33.05
38.26
41.24
42.09
41.17
39.01
36.23
33.37
30.77
28.52
26.53
24.58
22.51
20.19
17.58
14.68
11.43
7.73
3.39
-1.76
-7.67
-13.92
-19.65
-23.66
-24.72
-22.03
-15.52
-5.96
5.33
16.82
27.34
36.18
43.11
48.20
51.55
53.34
53.74
53.05
51.67
49.98
48.33
46.86
45.59
44.42
43.22
41.88
40.26
38.26
35.77
32.68
28.89
24.32
19.00
13.23
7.73
3.55
1.81
3.32
8.20
15.76
24.75
33.81
41.88
48.35
53.14
56.34
58.17
58.80
58.50
57.61
56.52
55.54
54.74
53.92
52.75
50.90
48.20
44.71
40.67
36.35
32.01
27.76
23.57
19.17
14.21
8.32
1.40
-6.18
-13.59
-19.63
-23.09
-23.17
-19.74
-13.35
-5.05
3.96
12.62
20.20
26.25
30.53
32.97
33.60
32.67
30.70
28.34
26.32
25.08
24.69
24.80
24.83
24.26
22.82
20.57
17.81
14.88
11.93
8.98
5.85
2.32
-1.78
-6.48
-11.66
-16.98
-21.82
-25.39
-26.86
-25.61
-21.44
-14.63
-5.91
3.71
13.12
21.34
27.56
31.28
32.37
31.11
28.16
24.44
20.96
18.52
17.52
17.93
19.25
20.73
21.54
21.06
18.93
15.17
10.16
4.43
-1.44
-7.01
-12.11
-16.84
-21.42
-25.96
-30.30
-33.92
-36.06
-36.06
-33.56
-28.72
-22.11
-14.50
-6.62
0.94
7.78
13.57
18.04
20.96
22.28
22.20
21.14
19.63
18.07
16.72
15.56
14.45
13.24
11.82
10.22
8.52
6.78
5.04
3.21
1.15
-1.41
-4.65
-8.77
-13.76
-19.38
-25.12
-30.26
-33.96
-35.51
-34.42
-30.62
-24.46
-16.59
-7.83
0.96
9.04
15.84
21.00
24.40
26.17
26.62
26.30
25.79
25.61
25.92
26.57
26.99
26.50
24.58
21.06
16.28
10.87
5.57
0.88
-3.04
-6.39
-9.56
-12.87
-16.41
-19.94
-22.83
-24.30
-23.54
-20.02
-13.61
-4.67
5.93
17.01
27.25
35.41
40.55
42.20
40.47
36.06
30.08
23.85
18.51
14.76
12.78
12.28
12.72
13.63
14.63
15.56
16.34
16.88
17.05
16.72
15.79
14.21
11.93
8.90
5.06
0.53
-4.32
-8.79
-12.04
-13.30
-12.17
-8.81
-3.85
1.82
7.31
11.96
15.38
17.44
18.21
17.87
16.69
15.02
13.24
11.65
10.41
9.43
8.50
7.30
5.63
3.45
0.88
-1.86
-4.59
-7.29
-10.05
-13.07
-16.47
-20.18
-23.86
-26.95
-28.79
-28.79
-26.61
-22.32
-16.38
-9.57
-2.73
3.41
8.37
11.92
14.06
14.91
14.64
13.46
11.62
9.40
7.05
4.76
2.66
0.76
-1.00
-2.72
-4.56
-6.68
-9.16
-12.07
-15.35
-18.93
-22.69
-26.48
-30.09
-33.17
-35.23
-35.71
-34.18
-30.47
-24.84
-17.93
-10.61
-3.73
1.99
6.19
8.80
9.99
10.06
9.31
8.00
6.29
4.29
2.10
-0.17
-2.40
-4.50
-6.42
-8.19
-9.86
-11.53
-13.33
-15.42
-18.00
-21.22
-25.09
-29.34
-33.41
-36.46
-37.60
-36.19
-32.09
-25.73
-18.01
-10.00
-2.63
3.48
8.10
11.26
13.10
13.80
13.53
12.52
11.05
9.43
7.89
6.55
5.34
4.13
2.82
1.42
0.03
-1.22
-2.21
-2.90
-3.38
-3.79
-4.32
-5.09
-6.10
-7.13
-7.79
-7.63
-6.25
-3.57
0.26
4.81
9.52
13.84
17.30
19.57
20.44
19.84
17.91
14.87
11.07
6.92
2.77
-1.07
-4.38
-7.01
-8.88
-10.01
-10.52
-10.66
-10.80
-11.42
-13.06
-16.10
-20.71
-26.71
-33.49
-40.12
-45.55
-48.79
-49.18
-46.56
-41.27
-34.08
-26.03
-18.17
-11.32
-6.02
-2.47
-0.58
-0.14
-0.80
-2.21
-3.96
-5.71
-7.25
-8.54
-9.69
-10.87
-12.18
-13.57
-14.86
-15.81
-16.24
-16.15
-15.73
-15.30
-15.26
-15.95
-17.60
-20.21
-23.49
-26.75
-29.05
-29.41
-27.13
-22.04
-14.64
-5.94
2.87
10.73
16.97
21.32
23.85
24.79
24.43
23.14
21.29
19.25
17.28
15.47
13.77
12.06
10.26
8.40
6.58
4.89
3.35
1.85
0.23
-1.69
-4.07
-6.99
-10.51
-14.54
-18.82
-22.88
-26.00
-27.51
-26.91
-24.16
-19.69
-14.28
-8.81
-4.00
-0.27
2.23
3.60
4.02
3.73
2.97
1.96
0.88
-0.12
-1.02
-1.84
-2.68
-3.59
-4.63
-5.78
-7.00
-8.27
-9.59
-11.06
-12.80
-14.92
-17.39
-19.95
-22.08
-23.13
-22.55
-20.04
-15.72
-10.08
-3.84
2.27
7.66
11.99
15.15
17.18
18.16
18.21
17.43
16.00
14.15
12.15
10.23
8.50
6.98
5.54
4.05
2.41
0.60
-1.41
-3.67
-6.32
-9.47
-13.10
-16.94
-20.40
-22.77
-23.37
-21.84
-18.25
-13.12
-7.24
-1.44
3.61
7.51
10.11
11.46
11.63
10.77
9.05
6.75
4.22
1.75
-0.44
-2.38
-4.23
-6.21
-8.41
-10.69
-12.85
-14.73
-16.39
-18.13
-20.34
-23.28
-26.82
-30.45
-33.37
-34.82
-34.26
-31.57
-27.00
-21.02
-14.26
-7.31
-0.74
4.95
9.36
12.22
13.49
13.38
12.27
10.68
9.06
7.72
6.70
5.90
5.08
4.08
2.77
1.20
-0.54
-2.45
-4.58
-7.08
-10.10
-13.62
-17.40
-21.00
-23.88
-25.55
-25.70
-24.19
-21.15
-16.83
-11.64
-6.08
-0.67
4.07
7.76
10.19
11.38
11.49
10.78
9.55
8.07
6.53
5.12
3.95
3.09
2.57
2.33
2.22
2.02
1.51
0.52
-1.04
-3.15
-5.74
-8.66
-11.69
-14.52
-16.72
-17.83
-17.52
-15.68
-12.51
-8.50
-4.22
-0.24
3.05
5.46
7.02
7.86
8.22
8.31
8.28
8.26
8.26
8.27
8.24
8.14
7.95
7.65
7.17
6.42
5.27
3.62
1.37
-1.48
-4.89
-8.69
-12.64
-16.34
-19.29
-20.98
-20.97
-19.03
-15.24
-9.99
-3.90
2.23
7.63
11.68
14.06
14.77
14.09
12.50
10.52
8.61
6.99
5.67
4.43
2.97
0.99
-1.59
-4.59
-7.61
-10.23
-12.27
-14.05
-16.33
-19.95
-25.36
-32.16
-39.00
-43.95
-45.35
-42.51
-36.23
-28.46
-21.53
-17.06
-15.28
-15.07
-14.61
-12.32
-7.66
-1.16
6.21
13.80
21.56
29.79
38.77
48.89
60.87
76.29
97.13
124.42
156.89
190.27
218.21
234.57
236.19
224.65
205.65
186.38
172.02
163.54
157.75
149.62
135.41
114.80
90.94
68.67
51.83
41.42
35.46
30.53
23.87
14.88
4.94
-3.68
-9.24
-11.26
-10.33
-7.36
-3.29
0.90
4.13
5.03
2.40
-4.16
-13.89
-25.27
-36.71
-47.35
-57.08
-66.04
-73.83
-79.29
-81.02
-78.36
-72.22
-64.85
-58.85
-55.79
-55.42
-55.93
-55.01
-51.10
-44.09
-35.25
-26.57
-19.96
-16.60
-16.80
-20.11
-25.52
-31.78
-37.66
-42.17
-44.77
-45.38
-44.20
-41.62
-38.02
-33.78
-29.32
-25.08
-21.53
-18.99
-17.51
-16.81
-16.36
-15.62
-14.17
-11.90
-8.93
-5.61
-2.33
0.48
2.47
3.50
3.58
3.02
2.24
1.63
1.35
1.28
1.08
0.45
-0.75
-2.39
-4.22
-6.02
-7.79
-9.70
-11.98
-14.70
-17.70
-20.61
-22.99
-24.57
-25.24
-25.05
-24.12
-22.56
-20.43
-17.83
-14.98
-12.23
-9.96
-8.52
-8.03
-8.40
-9.33
-10.36
-11.06
-11.11
-10.39
-9.07
-7.47
-6.12
-5.42
-5.69
-6.91
-8.87
-11.25
-13.77
-16.29
-18.65
-20.60
-21.74
-21.65
-20.23
-17.84
-15.27
-13.44
-12.84
-13.34
-14.28
-14.88
-14.73
-13.95
-13.00
-12.23
-11.59
-10.60
-8.69
-5.58
-1.46
3.07
7.30
10.72
13.20
14.98
16.35
17.45
18.04
17.63
15.71
12.15
7.40
2.42
-1.55
-3.57
-3.35
-1.35
1.43
3.86
5.13
4.90
3.33
0.87
-1.92
-4.54
-6.59
-7.90
-8.51
-8.75
-9.16
-10.36
-12.91
-17.10
-22.88
-29.78
-37.01
-43.65
-48.87
-52.25
-53.92
-54.50
-54.89
-55.72
-57.10
-58.42
-58.67
-56.93
-52.86
-46.96
-40.37
-34.42
-30.12
-27.96
-27.81
-29.25
-31.71
-34.73
-37.84
-40.64
-42.65
-43.45
-42.84
-40.86
-37.87
-34.33
-30.68
-27.16
-23.72
-20.15
-16.19
-11.73
-6.94
-2.23
1.89
5.02
7.06
8.32
9.38
10.90
13.27
16.49
20.14
23.57
26.17
27.63
27.96
27.46
26.58
25.73
25.23
25.19
25.50
25.84
25.71
24.58
22.05
18.09
13.12
7.95
3.43
0.24
-1.53
-2.32
-2.98
-4.33
-6.84
-10.50
-14.74
-18.77
-21.84
-23.50
-23.68
-22.57
-20.52
-17.81
-14.61
-11.02
-7.11
-3.04
0.91
4.44
7.29
9.40
10.87
11.94
12.81
13.56
14.09
14.20
13.71
12.64
11.16
9.67
8.52
7.93
7.80
7.77
7.28
5.81
3.07
-0.90
-5.71
-10.70
-15.14
-18.30
-19.66
-18.98
-16.32
-12.02
-6.61
-0.66
5.28
10.77
15.50
19.24
21.87
23.40
23.99
23.89
23.48
23.08
22.88
22.85
22.73
22.25
21.16
19.44
17.28
15.03
12.97
11.23
9.68
8.05
6.01
3.36
0.09
-3.61
-7.36
-10.72
-13.22
-14.43
-14.05
-12.05
-8.64
-4.31
0.38
4.89
8.89
12.28
15.06
17.28
18.92
19.86
20.07
19.60
18.66
17.52
16.40
15.35
14.32
13.14
11.70
9.95
8.01
6.06
4.32
2.94
1.94
1.20
0.45
-0.66
-2.39
-4.82
-7.78
-10.89
-13.69
-15.75
-16.79
-16.68
-15.47
-13.27
-10.32
-6.91
-3.42
-0.20
2.46
4.46
5.83
6.71
7.27
7.63
7.86
7.95
7.85
7.48
6.81
5.90
4.86
3.88
3.05
2.36
1.67
0.74
-0.62
-2.51
-4.85
-7.50
-10.24
-12.83
-14.99
-16.37
-16.64
-15.54
-13.01
-9.30
-4.89
-0.36
3.78
7.16
9.64
11.25
12.12
12.44
12.41
12.17
11.85
11.53
11.27
11.08
10.94
10.76
10.45
9.95
9.20
8.18
6.87
5.28
3.37
1.13
-1.45
-4.26
-7.02
-9.36
-10.77
-10.85
-9.38
-6.43
-2.34
2.33
6.96
11.03
14.19
16.28
17.27
17.24
16.31
14.69
12.69
10.68
9.01
7.90
7.43
7.40
7.52
7.45
6.97
6.01
4.66
3.11
1.54
0.03
-1.43
-2.97
-4.70
-6.59
-8.42
-9.77
-10.13
-9.10
-6.55
-2.71
1.81
6.24
9.87
12.33
13.60
14.08
14.26
14.57
15.12
15.74
16.11
15.97
15.28
14.19
12.87
11.35
9.46
6.88
3.39
-0.99
-6.00
-11.26
-16.47
-21.44
-26.14
-30.45
-34.19
-37.16
-39.37
-41.15
-43.08
-45.71
-49.10
-52.60
-55.02
-54.98
-51.68
-45.25
-36.73
-27.60
-19.18
-12.16
-6.54
-1.84
2.40
6.35
9.86
12.52
14.02
14.33
13.72
12.71
11.85
11.40
11.22
10.82
9.57
7.11
3.60
-0.17
-3.10
-4.16
-2.83
0.83
6.27
12.77
19.74
26.86
34.01
41.15
48.13
54.59
59.98
63.61
64.83
63.23
58.80
51.95
43.52
34.56
26.15
19.23
14.37
11.87
11.61
13.14
15.75
18.59
20.81
21.77
21.17
19.11
16.02
12.49
9.08
6.21
4.07
2.66
1.81
1.20
0.39
-1.09
-3.68
-7.69
-13.16
-19.88
-27.47
-35.40
-43.16
-50.29
-56.48
-61.51
-65.36
-68.17
-70.21
-71.79
-73.18
-74.57
-76.03
-77.60
-79.18
-80.61
-81.58
-81.67
-80.42
-77.46
-72.66
-66.09
-58.02
-48.83
-38.94
-28.71
-18.51
-8.69
0.42
8.54
15.49
21.16
25.58
28.88
31.19
32.66
33.39
33.44
32.85
31.63
29.85
27.67
25.32
23.10
21.25
19.90
18.98
18.26
17.43
16.22
14.60
12.72
10.97
9.76
9.45
10.16
11.75
13.93
16.27
18.37
19.89
20.61
20.46
19.58
18.21
16.76
15.60
14.92
14.61
14.35
13.64
12.14
9.79
6.88
3.96
1.49
-0.26
-1.36
-2.20
-3.19
-4.67
-6.78
-9.40
-12.29
-15.07
-17.37
-18.78
-19.03
-17.97
-15.61
-12.18
-8.09
-3.79
0.22
3.53
5.94
7.38
7.94
7.82
7.24
6.42
5.57
4.78
4.06
3.36
2.56
1.57
0.39
-0.93
-2.29
-3.62
-4.97
-6.49
-8.32
-10.53
-12.95
-15.22
-16.90
-17.54
-16.95
-15.19
-12.53
-9.37
-6.07
-2.88
0.05
2.62
4.77
6.36
7.32
7.67
7.53
7.09
6.51
5.86
5.16
4.42
3.65
2.87
2.11
1.28
0.21
-1.26
-3.28
-5.88
-8.95
-12.29
-15.62
-18.58
-20.81
-21.92
-21.62
-19.81
-16.64
-12.51
-7.94
-3.43
0.62
3.99
6.57
8.32
9.28
9.51
9.11
8.25
7.11
5.82
4.42
2.85
1.03
-1.09
-3.43
-5.83
-8.12
-10.23
-12.25
-14.40
-16.87
-19.73
-22.80
-25.66
-27.77
-28.64
-27.98
-25.73
-22.03
-17.18
-11.54
-5.55
0.31
5.59
9.91
13.06
15.06
16.15
16.60
16.63
16.32
15.61
14.41
12.71
10.64
8.38
6.16
4.08
2.09
-0.00
-2.45
-5.44
-9.10
-13.36
-18.02
-22.72
-27.02
-30.42
-32.50
-33.00
-31.79
-29.05
-25.14
-20.67
-16.27
-12.54
-9.82
-8.24
-7.66
-7.79
-8.31
-8.91
-9.40
-9.66
-9.68
-9.50
-9.14
-8.66
-8.10
-7.65
-7.59
-8.33
-10.26
-13.63
-18.41
-24.27
-30.56
-36.42
-40.96
-43.31
-42.84
-39.25
-32.67
-23.65
-13.04
-1.86
8.90
18.42
26.16
31.97
36.03
38.83
40.99
43.06
45.30
47.57
49.44
50.42
50.12
48.46
45.62
41.94
37.77
33.38
28.87
24.28
19.51
14.39
8.79
2.65
-3.77
-9.92
-14.95
-17.96
-18.28
-15.64
-10.28
-2.86
5.70
14.39
22.33
28.77
33.26
35.69
36.29
35.55
34.09
32.47
31.00
29.74
28.54
27.21
25.65
23.82
21.82
19.75
17.62
15.40
13.00
10.27
7.08
3.28
-1.20
-6.29
-11.63
-16.59
-20.30
-21.90
-20.78
-16.80
-10.37
-2.32
6.27
14.45
21.53
27.20
31.38
34.16
35.60
35.77
34.81
32.96
30.57
28.02
25.56
23.25
20.93
18.40
15.57
12.50
9.38
6.32
3.27
-0.03
-3.93
-8.70
-14.31
-20.36
-26.07
-30.48
-32.66
-32.02
-28.44
-22.35
-14.59
-6.12
2.14
9.60
15.91
20.92
24.54
26.75
27.56
27.17
25.94
24.34
22.80
21.52
20.47
19.37
17.88
15.71
12.77
9.19
5.25
1.23
-2.73
-6.70
-10.98
-15.96
-21.83
-28.43
-35.08
-40.69
-44.10
-44.42
-41.37
-35.46
-27.78
-19.75
-12.61
-7.20
-3.76
-2.06
-1.67
-2.15
-3.32
-5.16
-7.86
-11.55
-16.24
-21.77
-27.78
-33.69
-38.82
-42.41
-43.67
-42.04
-37.36
-30.00
-20.76
-10.55
0.18
11.75
25.25
41.99
62.67
86.67
112.01
135.84
155.58
169.72
178.17
181.93
182.23
179.88
175.01
167.30
156.57
143.19
128.14
112.79
98.36
85.51
74.16
63.69
53.25
42.25
30.74
19.55
10.04
3.67
1.38
3.17
8.16
14.89
21.87
28.02
32.77
35.92
37.33
36.81
34.19
29.57
23.51
16.92
10.81
5.86
2.21
-0.58
-3.27
-6.68
-11.50
-18.03
-26.21
-35.51
-45.11
-53.99
-61.23
-66.24
-68.89
-69.42
-68.20
-65.47
-61.29
-55.65
-48.64
-40.71
-32.65
-25.41
-19.83
-16.43
-15.24
-15.94
-17.97
-20.70
-23.52
-25.93
-27.59
-28.33
-28.11
-27.02
-25.14
-22.57
-19.47
-16.15
-13.12
-10.96
-10.20
-11.00
-13.03
-15.55
-17.71
-18.89
-18.88
-17.95
-16.61
-15.30
-14.20
-13.20
-12.08
-10.73
-9.26
-7.87
-6.71
-5.72
-4.82
-4.24
-4.72
-7.46
-13.59
-23.57
-36.74
-51.54
-65.98
-78.35
-87.64
-93.44
-95.54
-93.58
-87.07
-75.80
-60.35
-42.34
-24.17
-8.34
3.30
10.16
12.80
12.57
10.90
8.77
6.50
3.96
1.00
-2.11
-4.60
-5.46
-3.91
0.16
6.08
12.65
18.53
22.73
24.74
24.49
22.12
17.86
12.01
5.15
-1.70
-7.23
-10.19
-9.77
-6.00
0.27
7.64
14.80
21.00
26.26
31.17
36.45
42.30
48.22
53.05
55.53
54.85
51.02
44.80
37.32
29.58
22.22
15.54
9.70
4.89
1.29
-1.23
-3.19
-5.51
-9.09
-14.41
-21.16
-28.35
-34.60
-38.76
-40.31
-39.47
-37.10
-34.26
-31.89
-30.44
-29.96
-30.08
-30.34
-30.41
-30.26
-30.15
-30.55
-31.92
-34.53
-38.37
-43.10
-48.10
-52.60
-55.81
-57.09
-56.12
-52.94
-48.04
-42.15
-36.11
-30.61
-26.08
-22.66
-20.33
-18.97
-18.44
-18.36
-18.03
-16.27
-11.62
-2.72
11.26
30.17
52.85
77.29
101.15
122.40
139.57
151.76
158.33
158.58
151.84
137.89
117.52
92.82
66.84
42.70
22.61
7.21
-4.20
-12.92
-19.93
-25.36
-28.61
-29.04
-26.54
-21.76
-15.87
-10.03
-4.96
-1.00
1.53
2.04
-0.48
-6.91
-17.52
-31.65
-47.76
-64.24
-80.06
-95.18
-110.17
-125.57
-141.19
-155.91
-168.09
-176.25
-179.65
-178.42
-173.36
-165.39
-155.37
-143.84
-131.27
-118.12
-104.95
-92.43
-81.17
-71.61
-63.93
-58.02
-53.54
-50.03
-47.06
-44.23
-41.18
-37.54
-32.86
-26.72
-18.86
-9.37
1.29
12.24
22.53
31.28
37.93
42.27
44.37
44.50
43.04
40.45
37.24
33.91
30.84
28.22
26.00
23.91
21.73
19.30
16.63
13.87
11.14
8.40
5.44
1.88
-2.67
-8.41
-15.14
-22.22
-28.59
-33.02
-34.49
-32.47
-27.11
-19.18
-9.76
-0.02
9.11
17.02
23.37
28.01
30.96
32.37
32.55
31.93
30.87
29.66
28.42
27.10
25.64
23.98
22.11
20.10
17.90
15.44
12.55
9.09
4.87
-0.24
-6.29
-13.12
-20.24
-26.78
-31.61
-33.54
-31.79
-26.14
-17.10
-5.70
6.74
18.94
29.85
38.73
45.22
49.26
51.09
51.17
50.12
48.52
46.87
45.42
44.23
43.22
42.20
40.96
39.34
37.30
34.84
32.04
28.92
25.35
21.10
15.81
9.24
1.45
-7.00
-15.05
-21.34
-24.54
-23.82
-19.04
-10.83
-0.38
10.98
22.01
31.78
39.68
45.32
48.52
49.30
47.95
45.07
41.41
37.69
34.38
31.54
28.94
26.19
23.03
19.40
15.51
11.74
8.43
5.78
3.75
2.03
0.11
-2.56
-6.40
-11.48
-17.38
-23.17
-27.57
-29.35
-27.64
-22.25
-13.71
-3.07
8.36
19.36
28.93
36.44
41.51
44.05
44.22
42.45
39.38
35.76
32.27
29.35
27.14
25.51
24.17
22.79
21.13
19.02
16.40
13.25
9.55
5.31
0.47
-5.06
-11.34
-18.30
-25.52
-32.14
-36.91
-38.53
-36.07
-29.40
-19.25
-7.08
5.46
16.91
26.34
33.39
38.09
40.63
41.33
40.53
38.72
36.46
34.33
32.74
31.84
31.48
31.29
30.86
29.89
28.19
25.66
22.25
17.84
12.29
5.55
-2.25
-10.68
-18.96
-26.08
-30.91
-32.52
-30.41
-24.65
-15.90
-5.21
6.25
17.45
27.60
36.25
43.12
48.07
51.07
52.25
51.91
50.46
48.34
45.88
43.24
40.40
37.30
33.86
30.11
26.19
22.22
18.26
14.24
9.99
5.23
-0.33
-6.85
-14.23
-22.00
-29.26
-34.85
-37.67
-36.97
-32.65
-25.27
-15.88
-5.68
4.22
13.05
20.31
25.72
29.14
30.58
30.30
28.79
26.72
24.69
23.12
22.08
21.30
20.31
18.69
16.23
13.03
9.46
5.95
2.79
-0.04
-2.92
-6.43
-11.17
-17.41
-24.97
-33.06
-40.45
-45.71
-47.56
-45.25
-38.73
-28.73
-16.53
-3.66
8.42
18.59
26.14
30.79
32.69
32.27
30.19
27.23
24.17
21.56
19.67
18.45
17.60
16.74
15.51
13.76
11.50
8.88
6.10
3.30
0.52
-2.35
-5.52
-9.26
-13.74
-18.97
-24.61
-29.96
-34.04
-35.83
-34.59
-30.15
-22.94
-13.92
-4.30
4.89
12.85
19.23
23.89
26.85
28.19
28.08
26.81
24.88
22.86
21.23
20.21
19.69
19.26
18.42
16.83
14.46
11.59
8.63
5.92
3.51
1.20
-1.41
-4.68
-8.82
-13.76
-19.24
-24.74
-29.62
-33.08
-34.39
-33.06
-29.01
-22.68
-14.89
-6.66
1.06
7.57
12.47
15.59
16.97
16.76
15.32
13.14
10.78
8.76
7.37
6.66
6.36
6.13
5.60
4.61
3.19
1.50
-0.27
-2.02
-3.79
-5.73
-8.01
-10.75
-14.01
-17.75
-21.84
-25.94
-29.54
-31.93
-32.45
-30.63
-26.44
-20.29
-12.94
-5.30
1.83
7.80
12.16
14.66
15.22
14.04
11.54
8.36
5.28
2.97
1.83
1.82
2.50
3.15
3.08
1.87
-0.43
-3.40
-6.50
-9.32
-11.77
-14.13
-16.86
-20.36
-24.69
-29.51
-34.08
-37.52
-39.04
-38.19
-34.94
-29.65
-23.05
-15.90
-9.06
-3.27
0.84
2.87
2.76
0.82
-2.29
-5.74
-8.82
-11.04
-12.34
-12.91
-13.10
-13.21
-13.41
-13.74
-14.17
-14.68
-15.27
-15.99
-16.98
-18.36
-20.26
-22.65
-25.39
-28.14
-30.38
-31.45
-30.69
-27.55
-21.78
-13.49
-3.19
8.38
20.41
32.21
43.29
53.32
62.09
69.44
75.36
79.99
83.66
86.76
89.55
92.01
93.84
94.58
93.86
91.54
87.85
83.27
78.45
74.11
70.95
69.57
70.31
73.23
78.13
84.60
92.14
100.26
108.42
115.98
122.17
126.23
127.49
125.69
120.99
113.89
104.84
93.82
80.23
63.08
41.70
16.42
-11.15
-38.46
-63.01
-83.29
-99.38
-112.59
-124.57
-136.27
-147.51
-157.24
-164.33
-168.37
-169.76
-169.34
-167.64
-164.41
-158.77
-149.75
-137.05
-121.38
-104.42
-88.11
-74.07
-63.03
-54.88
-48.94
-44.35
-40.43
-36.85
-33.57
-30.78
-28.66
-27.35
-26.81
-26.82
-27.05
-27.17
-26.92
-26.24
-25.31
-24.50
-24.25
-24.95
-26.71
-29.22
-31.76
-33.30
-32.89
-29.98
-24.68
-17.81
-10.49
-3.91
1.07
4.01
4.83
3.72
1.01
-2.91
-7.54
-12.40
-17.08
-21.30
-24.99
-28.24
-31.22
-34.11
-37.10
-40.25
-43.60
-47.11
-50.77
-54.66
-58.85
-63.30
-67.66
-71.10
-72.48
-70.60
-64.73
-54.90
-41.99
-27.44
-12.85
0.46
11.64
20.31
26.42
30.19
32.07
32.69
32.80
33.03
33.72
34.87
36.20
37.33
37.94
37.85
36.92
35.01
31.92
27.49
21.65
14.57
6.58
-1.71
-9.54
-15.97
-20.11
-21.30
-19.42
-15.04
-9.36
-3.84
0.32
2.55
3.12
2.88
2.83
3.65
5.49
8.03
10.77
13.22
15.17
16.60
17.57
18.13
18.25
17.89
17.05
15.87
14.57
13.40
12.49
11.77
10.97
9.73
7.81
5.28
2.62
0.66
0.33
2.38
7.09
14.12
22.72
31.86
40.59
48.22
54.32
58.71
61.39
62.55
62.64
62.22
61.84
61.74
61.81
61.62
60.79
59.28
57.58
56.51
56.88
59.06
62.82
67.38
71.74
75.01
76.59
76.20
73.86
69.91
64.95
59.78
55.23
51.92
50.17
49.94
50.90
52.64
54.66
56.37
56.91
55.15
49.65
39.10
22.63
0.36
-26.44
-55.53
-84.16
-109.70
-130.31
-145.23
-154.81
-160.31
-163.29
-165.10
-166.35
-166.79
-165.51
-161.51
-154.26
-144.03
-131.77
-118.52
-104.84
-90.50
-74.69
-56.70
-36.68
-15.95
3.23
18.37
27.50
29.78
25.54
16.16
3.67
-9.72
-21.92
-31.35
-37.10
-39.05
-37.81
-34.60
-30.91
-28.10
-27.05
-27.77
-29.29
-29.92
-27.93
-22.35
-13.42
-2.67
7.74
15.94
21.28
24.63
28.06
33.97
44.07
58.73
76.82
96.07
113.72
127.15
134.33
134.10
126.32
111.94
92.96
72.21
52.86
37.63
28.16
24.22
23.92
24.35
22.55
16.60
6.02
-8.28
-24.74
-41.86
-58.74
-75.05
-90.69
-105.26
-117.93
-127.62
-133.34
-134.69
-131.98
-126.03
-117.86
-108.46
-98.66
-89.12
-80.35
-72.53
-65.35
-57.97
-49.19
-37.95
-23.73
-6.83
11.82
30.95
49.35
66.09
80.51
92.30
101.55
108.80
114.88
120.48
125.59
129.24
129.76
125.56
115.92
101.45
83.82
64.97
46.37
28.78
12.43
-2.41
-15.17
-25.17
-31.97
-35.86
-37.78
-39.08
-40.85
-43.63
-47.26
-51.17
-54.69
-57.38
-59.15
-60.26
-61.19
-62.50
-64.71
-68.15
-72.93
-78.84
-85.26
-90.95
-94.11
-92.55
-84.25
-68.15
-44.61
-15.58
15.90
46.43
73.02
93.47
106.41
111.29
108.22
98.16
82.95
65.12
47.50
32.60
22.13
16.93
17.06
22.03
30.94
42.42
54.72
65.90
74.27
78.85
79.62
77.36
73.13
67.77
61.61
54.68
47.07
39.12
31.40
24.27
17.51
10.32
1.64
-9.18
-21.96
-35.55
-48.25
-58.31
-64.49
-66.24
-63.66
-57.27
-47.77
-35.97
-22.71
-8.96
4.29
16.02
25.49
32.42
37.10
40.25
42.77
45.33
48.24
51.29
53.62
53.73
49.55
38.81
20.14
-5.80
-35.66
-63.94
-84.86
-94.61
-92.75
-82.04
-66.79
-50.82
-36.19
-23.44
-12.74
-4.98
-1.87
-5.12
-15.11
-30.21
-47.12
-62.10
-72.25
-76.28
-74.43
-67.96
-58.41
-47.20
-35.47
-24.13
-14.11
-6.31
-1.36
0.54
-0.03
-1.94
-3.78
-4.45
-3.52
-1.35
1.23
3.39
4.63
4.95
4.56
3.64
2.13
-0.28
-3.94
-9.07
-15.50
-22.69
-29.77
-35.65
-39.29
-39.87
-37.01
-30.85
-22.05
-11.60
-0.60
9.94
19.19
26.55
31.58
34.05
33.97
31.69
27.88
23.39
18.97
15.10
11.91
9.26
7.06
5.41
4.70
5.38
7.75
11.55
15.92
19.49
20.80
18.79
13.19
4.78
-4.81
-13.49
-19.33
-20.98
-17.99
-10.77
-0.35
11.90
24.63
36.59
46.79
54.54
59.59
62.11
62.58
61.71
60.06
57.96
55.26
51.46
45.80
37.60
26.60
13.22
-1.49
-16.13
-29.49
-40.93
-50.44
-58.55
-65.82
-72.43
-78.02
-81.77
-82.78
-80.41
-74.52
-65.54
-54.30
-41.87
-29.26
-17.23
-6.26
3.30
11.16
16.81
19.75
19.79
17.40
13.90
11.22
11.20
14.87
21.84
30.34
37.86
42.21
42.41
39.10
34.09
29.46
26.46
24.90
23.35
20.01
13.73
4.66
-5.71
-15.40
-22.78
-27.29
-29.45
-30.38
-31.20
-32.59
-34.91
-38.16
-41.74
-43.86
-41.41
-30.67
-9.15
22.41
59.00
92.35
113.79
117.77
104.14
77.83
46.27
16.00
-9.76
-31.18
-50.16
-68.02
-84.09
-95.94
-100.63
-96.28
-82.91
-62.30
-37.18
-10.31
16.30
41.43
64.24
83.96
99.43
109.29
112.42
108.81
100.09
89.13
78.67
69.85
61.51
51.20
37.11
19.96
3.22
-8.46
-11.92
-7.34
1.84
10.91
16.42
17.63
16.09
13.85
11.80
9.22
4.81
-1.87
-9.58
-15.89
-18.56
-16.77
-11.56
-5.39
-0.86
0.37
-1.89
-6.59
-12.04
-16.75
-19.87
-21.28
-21.38
-20.65
-19.39
-17.69
-15.59
-13.19
-10.66
-8.05
-5.12
-1.26
4.11
11.13
19.05
26.31
31.12
32.24
29.61
24.26
17.81
11.71
6.72
2.96
0.24
-1.62
-2.64
-2.78
-2.23
-1.44
-0.92
-1.04
-1.87
-3.26
-4.90
-6.34
-6.82
-5.17
-0.12
9.04
21.62
35.21
46.20
51.01
47.57
36.07
18.70
-1.47
-21.68
-40.21
-56.14
-68.72
-76.87
-79.31
-75.15
-64.66
-49.39
-31.73
-14.03
2.28
16.89
30.37
43.42
56.34
68.71
79.68
88.37
94.27
97.36
98.01
96.71
93.90
90.07
85.90
82.35
80.48
80.98
83.74
87.63
90.84
91.35
87.75
79.45
66.74
50.35
31.11
9.74
-13.00
-36.10
-58.24
-77.86
-93.55
-104.31
-109.66
-109.58
-104.39
-94.73
-81.46
-65.67
-48.46
-30.84
-13.65
2.34
16.24
27.06
33.88
36.32
34.81
30.55
25.10
19.79
15.25
11.30
7.32
2.72
-2.67
-8.55
-14.28
-19.18
-22.73
-24.77
-25.45
-25.29
-25.04
-25.55
-27.59
-31.68
-37.98
-46.21
-55.79
-65.93
-75.84
-84.75
-92.03
-97.20
-99.97
-100.18
-97.68
-92.21
-83.40
-71.07
-55.74
-38.97
-23.25
-11.39
-5.43
-5.93
-11.69
-20.37
-29.52
-37.38
-43.21
-47.01
-49.03
-49.37
-47.94
-44.60
-39.18
-31.53
-21.45
-8.92
5.59
20.98
35.73
48.46
58.53
66.19
72.20
77.07
80.59
81.85
79.93
74.54
66.35
56.87
47.71
39.94
33.86
29.14
25.18
21.52
18.09
15.20
13.44
13.51
15.93
20.85
27.98
36.58
45.57
53.74
59.74
62.23
60.05
52.56
40.29
25.15
10.22
-1.10
-6.29
-4.71
2.19
11.42
19.68
24.42
24.42
19.79
11.43
0.46
-12.04
-24.99
-37.19
-47.20
-53.68
-55.81
-53.77
-48.87
-43.32
-39.53
-39.28
-43.17
-50.51
-59.71
-69.07
-77.49
-84.83
-91.82
-99.55
-108.95
-120.27
-132.87
-145.29
-155.56
-161.72
-162.45
-157.46
-147.79
-135.52
-123.15
-112.79
-105.50
-100.84
-97.07
-91.70
-82.35
-67.62
-47.68
-24.35
-0.61
20.48
36.91
48.57
57.13
65.13
74.58
85.83
97.41
106.94
112.62
114.22
113.19
111.65
110.95
110.83
109.65
105.54
97.79
87.47
76.96
68.62
63.49
60.68
57.78
52.11
42.02
27.61
10.72
-5.94
-19.92
-29.73
-35.17
-36.87
-35.70
-32.28
-27.17
-21.11
-15.24
-10.64
-7.44
-4.33
1.14
11.24
26.47
44.92
63.16
77.94
87.99
94.18
98.37
101.41
102.09
97.76
86.23
67.77
45.49
24.14
7.62
-2.92
-9.56
-16.43
-27.81
-46.30
-71.88
-101.81
-131.38
-155.03
-167.78
-166.75
-152.13
-127.30
-97.75
-69.26
-45.95
-29.31
-18.50
-11.73
-7.64
-6.07
-7.69
-12.98
-21.39
-31.22
-40.27
-46.91
-50.82
-52.99
-55.20
-59.03
-65.24
-73.52
-82.83
-91.98
-100.10
-107.01
-113.39
-120.65
-130.51
-144.34
-162.37
-183.20
-204.07
-221.42
-231.99
-233.66
-225.53
-207.44
-179.43
-141.93
-96.71
-47.91
-1.93
34.19
55.26
60.19
52.40
38.30
24.75
16.82
17.11
26.27
44.09
70.09
103.09
140.57
178.37
211.42
235.19
247.05
246.98
237.22
221.19
202.38
183.17
164.50
146.21
127.66
108.51
89.01
69.83
51.76
35.31
20.77
8.53
-0.68
-5.87
-6.14
-1.19
8.43
21.59
36.96
53.44
70.18
86.49
101.62
114.79
125.37
133.11
138.23
141.18
142.40
141.92
139.43
134.35
126.21
115.00
101.27
85.99
70.34
55.40
42.02
30.74
21.78
15.02
10.05
6.30
3.32
1.03
-0.21
0.25
2.94
7.91
14.59
22.02
29.25
35.70
41.21
45.89
49.80
52.85
54.80
55.50
55.03
53.63
51.66
49.34
46.72
43.84
40.90
38.33
36.75
36.72
38.37
41.18
43.95
45.01
42.60
35.28
22.41
4.29
-17.66
-41.16
-63.50
-82.21
-95.80
-104.14
-108.39
-110.28
-111.34
-112.11
-112.03
-110.01
-105.20
-97.78
-89.09
-81.14
-75.64
-73.10
-72.59
-72.09
-69.52
-63.71
-54.77
-43.72
-31.69
-19.09
-5.36
10.57
29.33
50.38
71.72
90.23
102.56
105.97
99.16
82.61
58.49
30.22
1.68
-23.53
-42.79
-54.70
-59.04
-56.47
-48.25
-36.07
-21.97
-8.22
3.00
10.18
12.89
11.94
9.16
6.68
6.23
8.58
13.37
19.34
24.86
28.53
29.58
28.00
24.42
19.71
14.73
10.02
5.80
1.98
-1.67
-5.42
-9.45
-13.71
-17.85
-21.23
-23.11
-22.87
-20.36
-16.02
-10.86
-6.17
-3.14
-2.58
-4.72
-9.19
-15.31
-22.37
-30.09
-38.65
-48.59
-60.36
-73.77
-87.73
-100.42
-109.90
-114.95
-115.63
-113.28
-109.94
-107.55
-107.29
-109.47
-113.68
-119.16
-124.96
-129.99
-133.06
-133.06
-129.17
-121.02
-108.42
-90.95
-67.57
-36.89
1.79
47.21
95.44
140.46
175.90
197.30
203.58
197.21
182.82
165.32
148.27
133.29
120.51
109.41
99.52
90.73
83.12
76.63
70.94
65.37
59.19
51.73
42.70
32.15
20.42
7.98
-4.65
-16.94
-28.18
-37.45
-43.68
-45.93
-43.69
-37.25
-27.64
-16.46
-5.42
4.03
11.07
15.48
17.64
18.11
17.43
15.90
13.47
9.99
5.46
0.24
-5.13
-10.12
-14.75
-19.63
-25.79
-34.13
-44.87
-57.33
-70.26
-82.56
-93.83
-104.59
-115.83
-128.24
-141.55
-154.26
-163.99
-168.16
-164.71
-152.71
-132.43
-105.43
-74.22
-41.91
-11.70
13.64
32.35
44.17
50.65
54.94
60.85
71.38
87.36
106.66
124.79
136.70
138.75
130.20
113.26
91.82
69.71
49.32
31.38
15.56
1.57
-10.19
-18.53
-21.97
-19.42
-10.67
3.51
21.44
41.11
60.60
78.62
94.49
107.78
117.90
123.85
124.43
118.87
107.50
92.00
74.88
58.65
44.85
33.65
24.15
15.12
5.74
-4.00
-13.42
-21.71
-28.44
-33.85
-38.77
-44.26
-51.16
-59.66
-69.15
-78.35
-85.59
-89.33
-88.56
-83.11
-73.64
-61.51
-48.45
-36.28
-26.62
-20.70
-19.22
-22.28
-29.34
-39.34
-50.86
-62.40
-72.70
-81.01
-87.22
-91.75
-95.26
-98.30
-100.94
-102.78
-103.04
-101.03
-96.47
-89.85
-82.36
-75.60
-71.07
-69.59
-70.93
-73.71
-75.79
-75.02
-69.91
-60.09
-46.27
-29.81
-12.14
5.50
22.15
36.91
48.86
57.23
61.75
63.02
62.45
61.97
63.32
67.66
75.30
85.80
98.28
111.56
124.28
134.96
142.19
144.82
142.20
134.28
121.58
105.14
86.38
67.14
49.52
35.62
27.14
24.97
28.89
37.67
49.41
61.99
73.47
82.31
87.62
89.04
86.85
81.78
74.84
67.07
59.26
51.82
44.76
37.86
30.80
23.34
15.40
6.99
-1.85
-11.05
-20.54
-30.26
-40.06
-49.65
-58.60
-66.22
-71.62
-73.85
-72.14
-66.09
-55.96
-42.56
-27.29
-11.77
2.41
14.01
22.34
27.27
29.21
28.85
27.04
24.48
21.67
18.85
16.03
13.12
9.86
6.07
1.73
-2.89
-7.18
-10.35
-11.75
-11.20
-9.02
-6.08
-3.42
-1.90
-1.93
-3.38
-5.74
-8.28
-10.36
-11.47
-11.29
-9.72
-6.87
-3.14
0.84
4.19
6.15
6.20
4.39
1.33
-2.07
-4.95
-6.82
-7.73
-8.10
-8.51
-9.33
-10.62
-12.19
-13.76
-15.15
-16.44
-17.97
-20.32
-24.15
-29.94
-37.76
-46.90
-55.74
-61.95
-62.94
-56.78
-42.97
-22.86
0.46
23.05
41.24
52.68
56.78
54.54
47.82
38.62
28.48
18.41
9.02
0.82
-5.64
-9.95
-11.99
-12.10
-11.05
-9.80
-9.13
-9.44
-10.72
-12.70
-15.20
-18.28
-22.11
-26.71
-31.61
-35.65
-37.26
-34.95
-27.93
-16.54
-2.17
13.10
27.22
38.59
46.44
50.72
51.87
50.56
47.45
42.99
37.39
30.63
22.53
13.00
2.19
-9.30
-20.54
-30.42
-37.99
-42.73
-44.66
-44.43
-43.02
-41.54
-40.92
-41.63
-43.47
-45.54
-46.36
-44.35
-38.34
-28.04
-14.23
1.45
17.03
30.74
41.43
48.59
52.21
52.57
50.05
45.27
39.09
32.64
27.07
23.28
21.62
21.84
23.27
25.12
26.73
27.69
27.81
26.96
24.96
21.57
16.58
9.95
2.04
-6.33
-13.95
-19.49
-21.86
-20.62
-16.03
-9.07
-1.02
6.88
13.74
19.11
22.87
25.00
25.49
24.34
21.62
17.64
12.86
7.82
2.94
-1.49
-5.33
-8.47
-10.72
-11.92
-11.95
-10.90
-9.16
-7.36
-6.16
-6.11
-7.38
-9.65
-12.19
-14.01
-14.19
-12.13
-7.87
-2.03
4.35
10.09
14.25
16.30
16.16
14.09
10.53
5.94
0.77
-4.61
-9.90
-14.88
-19.43
-23.52
-27.14
-30.28
-32.88
-34.88
-36.26
-37.16
-37.86
-38.76
-40.21
-42.30
-44.75
-46.86
-47.64
-46.10
-41.62
-34.13
-24.20
-12.90
-1.47
8.96
17.60
24.11
28.48
30.94
31.81
31.41
30.04
27.99
25.50
22.76
19.85
16.75
13.35
9.54
5.29
0.63
-4.34
-9.59
-15.19
-21.24
-27.73
-34.29
-40.14
-44.17
-45.20
-42.42
-35.75
-25.95
-14.38
-2.66
7.80
16.14
22.10
25.79
27.51
27.47
25.80
22.65
18.25
13.04
7.50
2.03
-3.18
-8.20
-13.14
-18.13
-23.17
-28.30
-33.65
-39.45
-45.88
-52.77
-59.45
-64.68
-67.01
-65.28
-59.06
-48.90
-36.18
-22.79
-10.57
-0.93
5.39
8.27
8.08
5.52
1.39
-3.57
-8.69
-13.46
-17.47
-20.40
-21.99
-22.04
-20.45
-17.33
-13.02
-8.17
-3.59
-0.08
1.84
2.10
1.17
-0.03
-0.33
1.34
5.68
12.86
22.45
33.60
45.23
56.27
65.81
73.14
77.83
79.71
78.94
75.98
71.56
66.41
61.13
56.06
51.25
46.65
42.20
37.92
33.82
29.79
25.60
20.92
15.53
9.49
3.30
-2.18
-5.88
-6.88
-4.61
0.89
9.05
18.86
29.16
38.89
47.20
53.53
57.56
59.10
58.06
54.40
48.27
39.94
29.95
18.90
7.46
-3.85
-14.77
-25.30
-35.76
-46.62
-58.36
-71.33
-85.56
-100.70
-115.95
-130.22
-142.30
-151.26
-156.66
-158.79
-158.52
-157.13
-155.83
-155.50
-156.48
-158.71
-162.00
-166.26
-171.56
-178.11
-185.91
-194.53
-202.94
-209.62
-212.92
-211.50
-204.74
-192.85
-176.77
-157.75
-136.96
-115.21
-92.74
-69.47
-45.06
-19.22
8.10
36.51
65.17
92.85
118.16
139.98
157.73
171.46
181.72
189.21
194.58
198.35
201.16
203.89
207.69
213.57
221.84
231.65
241.07
247.65
249.35
245.44
236.83
225.70
214.56
205.23
198.28
193.11
188.67
183.95
178.11
170.14
158.68
142.56
121.59
97.36
73.04
51.88
35.08
20.52
3.65
-19.80
-50.53
-84.19
-112.54
-127.05
-122.93
-101.14
-67.72
-30.80
2.67
28.72
46.28
55.91
58.56
55.27
47.65
38.21
29.99
25.32
24.58
25.62
24.63
17.97
4.40
-13.79
-31.30
-41.90
-41.03
-27.53
-4.12
23.56
48.60
64.54
66.72
53.13
24.76
-14.71
-59.95
-105.33
-146.52
-181.57
-210.90
-236.36
-259.74
-281.75
-301.85
-318.67
-330.67
-336.48
-334.90
-324.86
-305.68
-277.38
-240.92
-198.07
-150.93
-101.48
-51.35
-2.24
43.75
83.96
115.44
135.88
144.55
142.93
134.27
122.51
111.06
101.83
95.20
90.55
87.11
84.52
82.84
82.13
82.01
81.53
79.57
75.33
68.86
61.00
52.92
45.51
38.98
32.89
26.58
19.69
12.49
5.86
0.96
-1.30
-0.70
2.22
6.27
10.06
12.45
12.96
11.82
9.84
8.10
7.55
8.90
12.37
17.83
24.77
32.45
39.92
46.26
50.69
52.83
52.67
50.55
47.03
42.65
37.96
33.42
29.49
26.64
25.33
25.87
28.35
32.60
38.18
44.56
51.08
57.14
62.27
66.26
69.20
71.42
73.33
75.24
77.23
79.18
80.93
82.39
83.49
84.08
83.76
81.94
78.05
72.04
64.64
57.24
51.40
48.15
47.54
48.54
49.41
48.30
43.79
35.17
22.53
6.65
-11.12
-28.89
-44.55
-56.16
-62.52
-63.57
-60.57
-55.65
-51.20
-49.11
-50.22
-54.32
-60.35
-67.02
-73.43
-79.44
-85.69
-93.36
-103.53
-116.69
-132.34
-149.04
-164.83
-177.85
-186.88
-191.47
-191.72
-187.91
-180.16
-168.48
-152.98
-134.12
-112.84
-90.37
-67.81
-45.96
-25.25
-5.99
11.39
26.23
37.82
45.72
50.12
51.86
52.23
52.50
53.45
55.24
57.42
59.27
60.21
60.00
58.83
57.09
55.20
53.42
51.79
50.15
48.29
46.07
43.55
40.98
38.64
36.76
35.36
34.18
32.83
30.91
28.30
25.17
21.90
18.90
16.36
14.23
12.26
10.21
8.00
5.74
3.67
1.96
0.63
-0.44
-1.49
-2.67
-3.99
-5.41
-6.84
-8.22
-9.60
-10.97
-12.25
-13.24
-13.68
-13.31
-12.01
-9.80
-6.94
-3.82
-0.94
1.23
2.36
2.40
1.58
0.26
-1.17
-2.44
-3.52
-4.51
-5.60
-6.88
-8.43
-10.19
-12.07
-13.94
-15.72
-17.36
-18.90
-20.48
-22.23
-24.26
-26.47
-28.58
-30.15
-30.74
-30.07
-28.13
-25.18
-21.61
-17.87
-14.25
-10.91
-7.86
-5.09
-2.62
-0.47
1.31
2.72
3.78
4.54
5.04
5.33
5.41
5.27
4.91
4.30
3.43
2.30
0.92
-0.68
-2.51
-4.58
-6.80
-8.95
-10.64
-11.40
-10.89
-9.03
-6.12
-2.71
0.59
3.28
5.18
6.29
6.82
6.97
6.90
6.73
6.49
6.23
5.97
5.73
5.49
5.23
4.97
4.74
4.56
4.43
4.26
3.85
2.98
1.43
-0.89
-3.83
-6.99
-9.76
-11.54
-11.84
-10.49
-7.63
-3.67
0.84
5.34
9.35
12.54
14.75
15.92
16.11
15.44
14.11
12.37
10.49
8.69
7.09
5.67
4.30
2.83
1.17
-0.64
-2.46
-4.16
-5.74
-7.41
-9.49
-12.29
-15.89
-19.94
-23.76
-26.47
-27.30
-25.85
-22.23
-16.95
-10.78
-4.49
1.33
6.24
10.03
12.57
13.89
14.11
13.55
12.59
11.59
10.80
10.23
9.70
8.97
7.87
6.34
4.54
2.65
0.84
-0.87
-2.62
-4.69
-7.34
-10.65
-14.43
-18.23
-21.41
-23.34
-23.59
-22.01
-18.79
-14.29
-8.96
-3.26
2.45
7.81
12.47
16.11
18.51
19.62
19.65
18.94
17.90
16.84
15.91
15.08
14.20
13.14
11.87
10.41
8.83
7.21
5.54
3.80
1.85
-0.43
-3.18
-6.49
-10.36
-14.61
-18.93
-22.78
-25.59
-26.77
-25.93
-22.95
-18.06
-11.80
-4.89
1.93
8.02
13.06
16.97
19.96
22.26
24.04
25.27
25.80
25.49
24.39
22.83
21.22
19.89
18.87
17.91
16.63
14.77
12.38
9.80
7.45
5.58
4.16
2.86
1.21
-1.16
-4.41
-8.35
-12.60
-16.61
-19.86
-21.86
-22.32
-21.02
-17.95
-13.29
-7.46
-1.07
5.17
10.57
14.65
17.23
18.37
18.34
17.51
16.28
14.96
13.85
13.06
12.63
12.41
12.19
11.77
10.97
9.72
8.05
6.06
3.88
1.67
-0.47
-2.51
-4.56
-6.81
-9.48
-12.75
-16.63
-20.88
-25.00
-28.30
-30.04
-29.64
-26.81
-21.68
-14.77
-6.91
1.05
8.36
14.54
19.35
22.74
24.75
25.53
25.27
24.32
23.11
22.02
21.32
21.02
20.91
20.72
20.21
19.31
18.05
16.53
14.80
12.83
10.61
8.19
5.70
3.29
0.98
-1.38
-4.02
-7.17
-10.82
-14.63
-17.98
-20.14
-20.46
-18.66
-14.82
-9.38
-3.00
3.59
9.76
14.99
18.95
21.49
22.59
22.45
21.41
19.97
18.61
17.69
17.31
17.26
17.18
16.66
15.44
13.50
11.10
8.68
6.66
5.29
4.50
3.97
3.22
1.85
-0.35
-3.30
-6.67
-10.04
-13.02
-15.32
-16.77
-17.26
-16.72
-15.17
-12.68
-9.46
-5.80
-2.10
1.27
3.99
5.86
6.87
7.22
7.23
7.21
7.36
7.71
8.14
8.49
8.57
8.29
7.58
6.46
5.00
3.34
1.63
-0.01
-1.51
-2.92
-4.32
-5.85
-7.55
-9.38
-11.19
-12.78
-13.93
-14.48
-14.33
-13.47
-11.94
-9.84
-7.31
-4.51
-1.60
1.25
3.90
6.26
8.26
9.83
10.95
11.62
11.94
12.07
12.21
12.59
13.30
14.31
15.43
16.42
17.05
17.19
16.82
15.98
14.75
13.13
11.16
8.86
6.29
3.55
0.77
-1.92
-4.34
-6.26
-7.43
-7.63
-6.72
-4.79
-2.04
1.14
4.32
7.06
9.00
9.92
9.74
8.62
6.90
5.04
3.47
2.52
2.24
2.45
2.83
3.08
3.03
2.74
2.44
2.44
3.01
4.27
6.10
8.20
10.12
11.41
11.78
11.21
9.95
8.45
7.24
6.73
7.10
8.26
9.92
11.65
13.04
13.82
13.92
13.46
12.64
11.57
10.26
8.57
6.42
3.83
1.04
-1.61
-3.81
-5.42
-6.52
-7.33
-8.06
-8.83
-9.66
-10.53
-11.46
-12.59
-14.06
-15.96
-18.21
-20.52
-22.41
-23.43
-23.27
-21.91
-19.63
-16.90
-14.14
-11.66
-9.55
-7.83
-6.50
-5.61
-5.24
-5.41
-6.06
-7.02
-8.07
-9.03
-9.79
-10.30
-10.57
-10.64
-10.53
-10.30
-10.01
-9.76
-9.68
-9.90
-10.58
-11.81
-13.59
-15.74
-17.91
-19.67
-20.51
-20.11
-18.29
-15.13
-10.96
-6.25
-1.54
2.68
6.01
8.25
9.40
9.64
9.22
8.40
7.37
6.23
5.04
3.83
2.65
1.52
0.46
-0.56
-1.58
-2.62
-3.76
-5.07
-6.65
-8.63
-11.02
-13.72
-16.42
-18.68
-19.96
-19.85
-18.13
-14.92
-10.68
-6.08
-1.84
1.49
3.67
4.77
5.05
4.82
4.31
3.66
2.93
2.24
1.66
1.25
0.92
0.44
-0.40
-1.75
-3.60
-5.79
-8.12
-10.47
-12.79
-15.12
-17.52
-20.04
-22.65
-25.21
-27.41
-28.78
-28.78
-26.94
-23.07
-17.37
-10.33
-2.72
4.66
11.07
15.92
18.91
20.02
19.53
17.97
15.97
14.07
12.56
11.47
10.62
9.78
8.75
7.48
5.97
4.20
2.13
-0.31
-3.14
-6.38
-9.97
-13.75
-17.54
-21.00
-23.76
-25.31
-25.21
-23.15
-19.08
-13.30
-6.40
0.84
7.65
13.41
17.82
20.74
22.27
22.61
21.99
20.75
19.21
17.68
16.36
15.33
14.46
13.58
12.51
11.17
9.57
7.76
5.81
3.69
1.32
-1.51
-4.99
-9.25
-14.27
-19.68
-24.82
-28.75
-30.54
-29.55
-25.71
-19.53
-11.98
-4.15
3.03
8.97
13.40
16.32
17.85
18.19
17.70
16.83
16.04
15.66
15.78
16.25
16.76
17.06
17.06
16.85
16.62
16.55
16.69
17.02
17.42
17.75
17.89
17.67
16.98
15.78
14.20
12.57
11.31
10.77
11.09
12.08
13.35
14.52
15.43
16.19
17.16
18.56
20.40
22.34
23.89
24.65
24.55
23.85
23.10
22.86
23.50
25.09
27.40
30.04
32.60
34.89
36.92
38.90
41.04
43.36
45.53
46.87
46.56
43.92
38.70
31.26
22.51
13.77
6.53
2.12
1.32
3.94
8.65
13.15
14.76
11.34
2.09
-12.13
-29.03
-45.70
-59.52
-68.80
-73.04
-72.70
-68.86
-62.90
-56.31
-50.44
-46.33
-44.49
-44.81
-46.65
-49.04
-51.01
-51.85
-51.30
-49.59
-47.34
-45.39
-44.44
-44.84
-46.34
-48.13
-49.05
-47.99
-44.30
-38.01
-29.80
-20.70
-11.72
-3.57
3.48
9.47
14.56
18.85
22.34
24.99
26.79
27.83
28.28
28.30
27.93
27.12
25.81
23.95
21.63
19.05
16.45
14.05
11.92
9.98
8.01
5.72
2.88
-0.61
-4.54
-8.43
-11.55
-13.15
-12.64
-9.81
-4.86
1.65
9.00
16.47
23.44
29.44
34.21
37.67
39.91
41.19
41.87
42.27
42.67
43.21
43.91
44.73
45.57
46.30
46.77
46.83
46.38
45.29
43.37
40.36
35.92
29.78
21.96
12.86
3.35
-5.43
-12.42
-16.87
-18.59
-17.94
-15.65
-12.54
-9.32
-6.52
-4.46
-3.29
-3.16
-4.14
-6.18
-9.10
-12.53
-16.05
-19.31
-22.20
-24.88
-27.60
-30.56
-33.75
-36.96
-39.88
-42.32
-44.29
-45.97
-47.65
-49.55
-51.82
-54.45
-57.32
-60.06
-62.13
-62.86
-61.73
-58.56
-53.67
-47.72
-41.39
-34.92
-28.02
-20.02
-10.38
0.95
13.31
25.56
36.45
45.12
51.28
55.35
58.37
61.80
67.25
75.96
88.19
102.74
117.00
127.62
131.70
127.84
116.71
100.56
82.12
63.44
45.26
27.26
8.91
-9.59
-26.91
-41.01
-49.94
-52.75
-49.90
-42.95
-33.94
-24.67
-16.32
-9.35
-3.55
1.93
8.65
18.57
33.46
53.77
77.87
101.79
120.16
127.89
122.06
102.96
73.95
40.24
7.03
-21.87
-44.68
-61.32
-72.45
-78.78
-80.79
-79.06
-74.77
-69.81
-66.30
-65.64
-67.77
-71.04
-73.09
-72.12
-67.82
-61.47
-54.88
-49.03
-43.37
-36.38
-27.15
-16.76
-8.48
-6.41
-13.25
-28.58
-48.63
-67.69
-80.53
-84.37
-79.60
-68.89
-55.68
-42.66
-31.18
-21.46
-13.23
-6.18
-0.13
5.13
9.90
14.60
19.65
25.31
31.44
37.55
42.87
46.57
48.01
46.81
42.91
36.59
28.39
19.13
9.86
1.80
-3.76
-5.64
-2.85
5.17
18.35
35.70
55.28
74.17
88.97
96.37
94.17
81.96
61.44
35.99
9.64
-13.96
-32.36
-44.45
-50.30
-50.70
-46.90
-40.45
-33.02
-26.11
-20.59
-16.20
-11.65
-5.19
4.49
17.53
32.70
47.99
61.47
71.96
79.21
83.54
85.34
84.77
81.87
76.93
70.83
65.03
61.17
60.33
62.42
65.85
67.69
64.69
54.24
35.42
9.19
-22.06
-55.50
-88.71
-120.07
-148.49
-172.83
-191.39
-201.96
-202.39
-191.38
-169.17
-137.64
-100.01
-60.32
-22.71
9.03
31.98
44.56
46.76
40.24
27.95
13.40
-0.20
-10.66
-16.98
-19.09
-17.19
-11.50
-2.26
9.63
22.11
32.05
36.04
31.80
19.31
1.17
-18.30
-34.57
-44.50
-47.27
-44.23
-38.05
-31.57
-27.08
-25.97
-28.72
-34.83
-42.53
-48.79
-49.70
-41.69
-23.08
4.70
36.98
67.08
88.64
97.88
94.79
82.70
66.43
50.10
35.63
22.51
8.84
-7.18
-26.06
-46.69
-66.79
-83.72
-95.34
-100.28
-98.07
-88.95
-73.77
-53.88
-31.02
-7.25
15.25
34.22
47.59
53.78
52.31
44.18
31.89
18.78
7.91
1.11
-1.38
-0.43
2.94
8.17
15.03
22.95
30.40
34.90
33.99
26.36
12.77
-4.15
-20.92
-34.54
-43.38
-47.31
-47.22
-44.36
-39.89
-34.70
-29.56
-25.13
-21.92
-20.26
-20.30
-22.22
-26.37
-33.34
-43.82
-58.25
-76.54
-97.90
-121.07
-144.70
-167.68
-189.42
-209.71
-228.55
-245.90
-261.45
-274.54
-284.23
-289.29
-288.50
-280.89
-266.20
-245.08
-219.06
-190.20
-160.42
-131.08
-102.86
-76.09
-51.27
-29.30
-11.31
1.95
10.64
16.03
20.06
24.61
30.77
38.60
47.51
56.97
67.11
78.86
93.47
111.62
132.61
154.01
172.20
183.56
185.78
178.87
165.22
148.76
133.70
123.17
118.52
119.21
123.14
127.45
129.35
126.96
119.75
108.69
95.76
83.07
72.12
63.28
55.98
49.30
42.53
35.53
28.60
22.28
17.14
13.81
13.13
16.19
23.95
36.69
53.54
72.33
89.98
103.31
109.97
109.05
101.26
88.51
73.26
57.75
43.62
31.84
22.82
16.73
13.56
13.08
14.83
18.04
21.90
25.70
29.07
32.03
34.76
37.45
40.03
42.18
43.47
43.56
42.41
40.24
37.43
34.42
31.47
28.66
25.95
23.25
20.65
18.40
16.82
16.14
16.35
17.18
18.21
19.10
19.69
20.06
20.34
20.57
20.62
20.29
19.49
18.38
17.45
17.39
18.81
22.01
26.84
32.77
39.09
45.15
50.52
55.08
58.81
61.77
63.96
65.36
65.93
65.64
64.41
62.05
58.32
53.02
46.15
37.98
29.06
20.08
11.64
4.12
-2.29
-7.63
-12.00
-15.51
-18.33
-20.61
-22.48
-23.95
-24.93
-25.27
-24.79
-23.47
-21.47
-19.12
-16.80
-14.89
-13.65
-13.23
-13.63
-14.68
-16.10
-17.54
-18.68
-19.39
-19.69
-19.70
-19.53
-19.19
-18.63
-17.84
-16.96
-16.30
-16.22
-17.03
-18.88
-21.72
-25.39
-29.67
-34.36
-39.33
-44.64
-50.63
-57.84
-66.72
-77.16
-88.12
-97.64
-103.52
-104.12
-99.08
-89.45
-77.07
-63.77
-50.70
-38.21
-26.26
-14.98
-4.88
3.32
9.08
12.38
13.72
13.82
13.32
12.67
12.18
12.23
13.22
15.43
18.82
22.98
27.23
30.94
33.64
35.15
35.44
34.63
32.94
30.70
28.33
26.23
24.65
23.52
22.61
21.64
20.55
19.64
19.42
20.25
22.20
24.91
27.90
30.76
33.39
35.89
38.22
40.00
40.53
38.97
34.83
28.25
19.93
10.85
1.78
-6.90
-15.24
-23.42
-31.45
-39.05
-45.76
-51.01
-54.37
-55.56
-54.50
-51.25
-45.99
-39.04
-30.93
-22.26
-13.69
-5.74
1.39
8.01
14.96
23.50
34.80
49.57
67.59
87.71
108.11
126.85
142.28
153.17
158.67
158.17
151.12
137.19
116.47
89.59
57.79
22.92
-12.72
-46.42
-75.26
-96.60
-108.75
-111.62
-107.00
-98.00
-88.05
-79.66
-73.87
-70.40
-68.54
-67.92
-68.69
-70.89
-73.89
-76.38
-77.45
-77.67
-79.25
-84.80
-95.34
-108.81
-120.45
-124.73
-118.12
-100.45
-74.55
-44.25
-12.49
19.31
50.38
79.25
103.10
118.56
123.56
118.73
107.65
95.39
86.40
82.71
83.44
85.66
86.06
82.61
75.25
65.53
55.61
47.28
41.41
38.31
38.22
41.78
49.84
62.83
80.08
99.63
118.65
134.40
145.07
150.27
150.75
147.82
142.57
135.48
126.40
114.89
100.70
84.03
65.60
46.43
27.53
9.69
-6.67
-21.47
-34.73
-46.45
-56.42
-64.39
-70.10
-73.51
-74.77
-74.09
-71.55
-67.00
-60.29
-51.70
-42.29
-33.91
-28.64
-28.01
-32.31
-40.52
-50.82
-61.37
-71.05
-79.76
-88.13
-97.17
-107.86
-120.79
-136.17
-153.67
-172.43
-190.95
-207.31
-219.58
-226.32
-226.95
-221.70
-211.31
-196.67
-178.57
-157.93
-136.02
-114.68
-95.99
-81.66
-72.24
-66.94
-63.99
-61.51
-58.49
-55.10
-52.48
-51.95
-54.16
-58.76
-64.54
-69.98
-73.84
-75.52
-75.02
-72.71
-69.23
-65.39
-62.17
-60.44
-60.35
-60.71
-58.92
-51.85
-37.38
-15.98
8.85
31.65
47.34
53.49
51.29
44.62
37.93
33.99
33.05
33.59
33.91
33.38
32.68
33.04
35.32
39.67
45.69
52.93
61.10
69.79
78.31
85.47
90.02
91.13
88.75
83.52
76.45
68.47
60.21
51.97
43.92
36.30
29.60
24.56
22.14
23.24
28.46
37.89
51.11
67.57
86.85
108.73
132.89
158.31
183.03
204.39
219.73
227.22
226.27
217.52
202.31
182.21
158.65
132.74
105.28
76.88
48.07
19.41
-8.37
-34.53
-58.43
-79.67
-98.04
-113.35
-125.16
-132.78
-135.52
-133.25
-126.75
-117.77
-108.55
-101.03
-96.18
-93.82
-92.99
-92.60
-92.01
-91.25
-90.81
-91.17
-92.37
-93.98
-95.37
-96.04
-96.02
-95.85
-96.29
-97.97
-101.07
-105.35
-110.36
-115.82
-121.61
-127.54
-132.86
-136.05
-135.12
-128.40
-115.34
-97.04
-75.80
-54.22
-34.17
-16.24
0.14
15.90
31.55
46.86
60.98
73.03
82.60
89.92
95.61
100.25
103.93
106.17
106.14
103.10
96.82
87.78
76.95
65.38
53.80
42.34
30.75
18.74
6.28
-6.33
-18.53
-29.75
-39.43
-46.82
-50.81
-49.94
-42.88
-29.04
-9.13
14.80
39.90
63.32
82.97
97.78
107.57
112.70
113.85
112.04
108.61
105.09
102.64
101.53
100.78
98.36
91.91
79.54
60.51
35.47
6.20
-24.83
-54.84
-81.26
-101.99
-115.75
-122.33
-122.65
-118.64
-112.74
-107.33
-104.01
-103.26
-104.41
-105.84
-105.71
-102.55
-95.70
-85.59
-73.46
-61.05
-50.09
-42.11
-38.31
-39.39
-45.05
-53.55
-61.34
-63.32
-54.23
-30.64
7.20
54.65
103.72
145.64
173.76
185.43
182.08
167.77
147.29
124.75
103.35
85.80
74.59
71.53
76.91
88.80
103.19
115.25
121.02
118.66
108.70
93.18
74.46
54.38
33.92
13.63
-6.08
-24.63
-41.50
-56.51
-69.97
-82.76
-96.05
-110.89
-127.77
-146.14
-164.17
-178.96
-187.35
-187.06
-177.77
-161.34
-141.18
-120.85
-102.69
-87.03
-72.46
-56.62
-37.26
-13.02
16.19
49.06
83.06
114.89
141.02
158.80
167.38
168.10
164.00
158.52
153.70
149.03
141.48
126.82
101.83
66.39
24.38
-17.30
-51.18
-72.25
-79.79
-77.34
-70.62
-64.56
-61.03
-58.43
-53.21
-42.09
-23.96
-0.42
25.20
49.22
69.09
83.87
94.06
101.12
106.59
111.79
117.28
122.64
126.46
126.61
120.77
107.02
84.39
53.41
16.53
-21.87
-55.90
-79.64
-88.94
-83.03
-64.95
-40.43
-15.78
4.22
17.58
25.06
28.78
30.72
31.53
30.60
26.83
19.75
9.97
-0.98
-11.60
-21.33
-30.99
-42.14
-55.70
-70.78
-84.35
-92.29
-91.41
-80.96
-63.10
-41.85
-21.11
-3.30
10.92
21.95
30.11
35.05
35.99
32.56
25.46
16.36
7.11
-1.13
-8.31
-15.06
-21.96
-28.86
-34.77
-38.42
-38.98
-36.53
-31.94
-26.33
-20.53
-14.95
-9.74
-5.14
-1.61
0.38
0.71
-0.14
-1.28
-1.80
-1.18
0.57
2.99
5.52
7.71
9.36
10.40
10.77
10.30
8.77
6.06
2.29
-2.10
-6.43
-9.96
-12.01
-12.24
-10.67
-7.73
-4.12
-0.65
1.94
3.17
2.99
1.85
0.66
0.35
1.54
4.17
7.63
10.93
13.16
13.71
12.38
9.33
4.97
-0.11
-5.21
-9.63
-12.79
-14.29
-13.98
-11.77
-7.45
-0.74
8.62
20.50
34.23
48.59
62.05
73.17
80.73
83.98
82.71
77.30
68.75
58.59
48.58
40.35
34.83
31.97
30.62
28.77
24.06
14.63
-0.14
-19.24
-40.11
-59.33
-73.62
-80.82
-80.38
-73.25
-61.20
-46.12
-29.56
-12.80
2.97
16.53
26.83
33.46
36.90
38.49
39.78
41.83
44.80
47.87
49.78
49.45
46.42
41.02
34.11
26.67
19.68
13.78
9.34
6.44
5.00
4.96
6.24
8.83
12.60
17.32
22.58
27.77
32.29
35.53
37.06
36.71
34.61
31.08
26.52
21.12
14.80
7.22
-1.97
-12.87
-25.11
-38.01
-50.78
-62.92
-74.26
-84.84
-94.63
-103.32
-110.44
-115.64
-118.94
-120.65
-120.91
-119.03
-113.31
-101.46
-81.81
-54.42
-21.71
12.10
42.36
65.41
79.44
84.36
81.01
70.51
54.28
34.54
14.81
-0.38
-6.69
-1.61
14.33
37.53
62.52
83.69
96.87
99.91
92.52
75.62
51.03
21.41
-9.57
-37.53
-58.15
-68.53
-68.34
-60.20
-49.14
-41.07
-40.76
-50.12
-67.42
-87.76
-104.87
-113.38
-110.67
-97.61
-77.95
-56.52
-37.40
-22.61
-11.88
-3.33
5.42
16.15
29.32
43.80
57.07
65.79
66.87
58.50
41.07
17.39
-7.70
-28.33
-38.99
-36.28
-20.42
4.12
29.28
45.74
46.25
28.72
-2.65
-38.55
-67.97
-82.16
-77.44
-55.79
-23.21
13.13
47.53
77.09
101.69
122.50
140.36
154.48
162.14
159.69
144.45
116.36
78.50
36.19
-4.93
-40.65
-68.76
-88.37
-98.77
-99.07
-89.06
-70.61
-47.98
-26.72
-11.28
-2.85
1.07
5.31
14.87
32.99
60.54
96.01
135.73
173.97
203.34
216.30
207.65
177.04
129.81
75.51
24.36
-16.36
-44.18
-60.95
-70.52
-76.37
-80.34
-82.69
-83.06
-81.36
-78.21
-74.73
-71.94
-70.32
-69.60
-68.85
-67.12
-63.78
-59.12
-54.24
-50.74
-50.05
-52.78
-58.54
-65.95
-72.96
-77.14
-76.10
-68.02
-52.22
-29.59
-2.58
25.48
51.49
73.72
92.21
108.49
124.48
141.42
159.11
175.86
188.98
195.60
193.60
182.43
163.79
141.60
121.17
107.30
102.42
105.38
111.92
116.60
115.25
106.51
91.60
72.68
50.74
24.91
-6.72
-44.99
-88.03
-131.27
-169.24
-198.22
-217.89
-231.02
-241.43
-251.73
-262.16
-271.01
-276.35
-277.49
-275.23
-271.11
-266.17
-260.41
-253.24
-244.42
-234.64
-225.34
-217.55
-210.95
-203.48
-192.12
-174.20
-148.49
-115.63
-77.61
-37.12
3.09
40.55
73.09
99.01
117.21
127.34
129.68
124.86
113.84
97.85
78.76
59.10
41.75
28.95
21.37
17.70
15.43
12.40
8.44
5.83
8.28
18.84
37.88
62.38
86.94
106.00
116.05
116.66
110.08
99.61
88.01
76.54
65.16
53.38
41.22
29.55
19.79
13.26
10.45
10.69
12.34
13.34
11.93
7.17
-0.90
-11.36
-22.50
-31.97
-36.74
-33.53
-19.82
4.81
37.55
72.46
101.95
119.32
121.08
107.99
84.51
56.99
31.72
13.61
5.63
8.67
21.48
40.74
61.53
78.61
87.88
87.73
79.35
65.91
51.07
37.65
26.96
18.99
13.06
8.44
4.72
1.79
-0.40
-1.95
-3.12
-4.15
-5.23
-6.31
-7.26
-7.96
-8.38
-8.42
-7.73
-5.70
-1.62
4.73
12.64
20.29
25.17
25.00
18.54
6.10
-10.71
-29.65
-48.57
-65.82
-80.33
-91.35
-98.38
-101.32
-100.66
-97.68
-94.17
-91.99
-92.41
-95.71
-100.96
-106.46
-110.29
-110.96
-107.90
-101.51
-92.70
-82.32
-70.70
-57.60
-42.48
-25.04
-5.58
14.98
35.41
54.58
71.72
86.43
98.34
106.99
111.89
112.87
110.41
105.76
100.61
96.50
94.24
93.66
93.61
92.48
88.69
81.31
70.36
56.85
42.40
28.80
17.35
8.51
1.92
-3.27
-7.81
-11.97
-15.44
-17.74
-18.56
-18.11
-16.99
-15.86
-15.01
-14.21
-12.88
-10.58
-7.37
-3.92
-1.30
-0.49
-1.94
-5.33
-9.61
-13.45
-15.57
-15.09
-11.61
-5.28
3.25
12.78
21.63
28.00
30.48
28.75
23.85
17.94
13.60
12.83
16.49
24.17
34.76
46.94
59.65
72.06
83.43
92.86
99.40
102.29
101.27
96.62
89.06
79.59
69.17
58.64
48.64
39.57
31.62
24.90
19.47
15.44
12.90
11.72
11.50
11.52
10.92
9.07
5.81
1.58
-2.78
-6.31
-8.31
-8.59
-7.58
-6.15
-5.49
-6.76
-10.66
-17.14
-25.18
-33.00
-38.53
-40.07
-36.85
-29.30
-18.95
-7.99
1.36
7.38
9.26
7.16
1.99
-5.00
-12.73
-20.63
-28.70
-37.31
-46.91
-57.62
-69.16
-80.86
-91.99
-101.94
-110.36
-117.14
-122.26
-125.73
-127.46
-127.30
-125.12
-120.88
-114.79
-107.23
-98.68
-89.57
-80.12
-70.48
-60.74
-51.08
-41.64
-32.39
-23.04
-13.08
-2.12
9.85
22.17
33.73
43.24
49.72
52.78
52.71
50.27
46.51
42.45
38.93
36.42
35.00
34.34
33.88
33.04
31.47
29.15
26.44
23.87
22.02
21.21
21.43
22.32
23.25
23.63
23.11
21.67
19.62
17.39
15.43
14.02
13.30
13.19
13.44
13.66
13.33
11.99
9.35
5.40
0.50
-4.78
-9.78
-13.95
-16.94
-18.66
-19.22
-18.88
-17.86
-16.25
-13.96
-10.73
-6.32
-0.70
5.78
12.52
18.75
23.72
26.88
27.91
26.77
23.72
19.41
14.77
10.86
8.51
8.00
8.93
10.36
11.22
10.75
8.74
5.46
1.49
-2.55
-6.16
-8.94
-10.54
-10.69
-9.26
-6.30
-2.10
2.79
7.58
11.41
13.45
13.11
10.32
5.55
-0.28
-6.08
-10.92
-14.32
-16.23
-16.92
-16.72
-15.88
-14.46
-12.44
-9.79
-6.57
-3.03
0.48
3.49
5.62
6.71
6.96
6.90
7.13
8.13
9.99
12.43
14.84
16.59
17.11
16.09
13.45
9.42
4.56
-0.30
-4.22
-6.41
-6.54
-4.75
-1.70
1.81
5.08
7.82
10.14
12.47
15.34
19.08
23.70
28.69
33.15
35.98
36.20
33.29
27.32
19.00
9.47
-0.03
-8.45
-15.19
-20.20
-23.97
-27.27
-30.85
-35.22
-40.44
-46.17
-51.78
-56.69
-60.48
-63.03
-64.53
-65.34
-65.87
-66.34
-66.68
-66.47
-65.05
-61.78
-56.27
-48.59
-39.27
-29.11
-18.99
-9.67
-1.68
4.60
9.04
11.70
12.90
13.33
13.79
15.06
17.45
20.77
24.29
27.06
28.29
27.59
25.10
21.37
17.17
13.21
10.05
8.00
7.03
6.84
6.90
6.62
5.57
3.61
0.96
-1.86
-4.30
-5.95
-6.65
-6.55
-5.99
-5.37
-5.04
-5.20
-5.92
-7.15
-8.74
-10.50
-12.21
-13.67
-14.72
-15.22
-15.12
-14.42
-13.19
-11.56
-9.74
-7.97
-6.43
-5.32
-4.73
-4.75
-5.52
-7.24
-9.97
-13.45
-16.97
-19.44
-19.84
-17.60
-12.86
-6.40
0.82
7.99
14.74
20.94
26.49
31.14
34.54
36.56
37.52
38.16
39.29
41.46
44.61
48.18
51.43
53.77
54.93
54.89
53.82
51.80
48.87
45.09
40.69
36.05
31.72
28.10
25.35
23.30
21.56
19.76
17.76
15.66
13.78
12.33
11.26
10.17
8.43
5.43
0.87
-5.02
-11.56
-17.81
-22.92
-26.39
-28.22
-28.79
-28.62
-28.21
-27.85
-27.64
-27.58
-27.64
-27.77
-27.89
-27.87
-27.58
-26.98
-26.20
-25.51
-25.21
-25.44
-26.10
-26.85
-27.19
-26.69
-25.06
-22.22
-18.29
-13.50
-8.18
-2.72
2.49
7.02
10.59
13.08
14.64
15.57
16.25
16.95
17.70
18.33
18.53
18.06
16.79
14.77
12.14
9.05
5.58
1.73
-2.46
-6.97
-11.69
-16.51
-21.35
-26.16
-30.84
-35.22
-38.99
-41.71
-42.98
-42.50
-40.19
-36.17
-30.69
-24.12
-16.84
-9.29
-1.86
5.06
11.19
16.42
20.78
24.46
27.67
30.66
33.65
36.81
40.25
43.98
47.88
51.71
55.18
57.99
59.88
60.74
60.55
59.36
57.30
54.58
51.45
48.25
45.28
42.78
40.81
39.28
37.90
36.27
33.93
30.50
25.76
19.81
13.07
6.23
0.05
-4.91
-8.48
-10.85
-12.47
-13.77
-14.97
-16.13
-17.20
-18.21
-19.39
-21.03
-23.38
-26.39
-29.79
-33.14
-36.05
-38.34
-40.03
-41.32
-42.29
-42.87
-42.70
-41.29
-38.23
-33.35
-26.88
-19.37
-11.57
-4.18
2.29
7.47
11.14
13.08
13.11
11.22
7.68
3.12
-1.59
-5.58
-8.23
-9.33
-9.01
-7.57
-5.33
-2.50
0.65
3.72
6.07
7.01
6.02
3.04
-1.45
-6.58
-11.38
-15.12
-17.47
-18.47
-18.33
-17.27
-15.44
-12.97
-10.16
-7.43
-5.31
-4.23
-4.28
-5.14
-6.23
-6.92
-6.89
-6.28
-5.61
-5.53
-6.44
-8.25
-10.42
-12.10
-12.57
-11.43
-8.69
-4.64
0.29
5.77
11.51
17.28
22.74
27.48
31.05
33.01
33.13
31.41
28.16
23.87
19.16
14.53
10.33
6.63
3.30
0.18
-2.92
-5.99
-8.87
-11.29
-12.89
-13.37
-12.57
-10.48
-7.37
-3.82
-0.60
1.44
1.67
-0.11
-3.57
-7.95
-12.30
-15.87
-18.20
-19.25
-19.23
-18.46
-17.20
-15.63
-13.86
-11.97
-10.07
-8.26
-6.64
-5.26
-4.11
-3.01
-1.71
0.09
2.56
5.69
9.20
12.73
15.97
18.88
21.63
24.43
27.35
30.21
32.54
33.89
33.93
32.63
30.24
27.10
23.45
19.39
14.88
9.88
4.43
-1.24
-6.76
-11.62
-15.33
-17.50
-17.94
-16.76
-14.33
-11.14
-7.67
-4.21
-0.87
2.35
5.43
8.21
10.50
12.15
13.18
13.76
14.11
14.35
14.41
14.10
13.22
11.76
9.92
8.01
6.33
4.96
3.78
2.57
1.10
-0.66
-2.58
-4.45
-6.12
-7.61
-9.12
-11.00
-13.60
-17.10
-21.44
-26.21
-30.76
-34.28
-36.13
-35.95
-33.81
-30.13
-25.53
-20.67
-16.08
-12.11
-8.93
-6.53
-4.72
-3.05
-0.97
2.09
6.42
12.01
18.41
25.04
31.32
36.83
41.29
44.42
45.89
45.38
42.67
37.89
31.56
24.48
17.45
11.03
5.38
0.35
-4.35
-8.89
-13.18
-16.85
-19.48
-20.79
-20.77
-19.69
-17.93
-15.70
-13.01
-9.67
-5.58
-0.83
4.16
8.90
12.91
15.95
18.03
19.32
20.11
20.63
21.05
21.36
21.31
20.45
18.19
14.21
8.58
1.77
-5.46
-12.40
-18.60
-23.91
-28.42
-32.26
-35.53
-38.32
-40.80
-43.20
-45.67
-48.18
-50.47
-52.07
-52.52
-51.52
-48.95
-44.89
-39.47
-32.93
-25.53
-17.60
-9.50
-1.61
5.74
12.28
17.78
22.03
24.86
26.29
26.56
26.17
25.68
25.46
25.52
25.47
24.77
22.98
19.99
16.01
11.46
6.74
2.15
-2.14
-5.99
-9.26
-11.79
-13.54
-14.56
-15.05
-15.21
-15.17
-14.93
-14.39
-13.49
-12.26
-10.92
-9.78
-9.11
-9.03
-9.47
-10.27
-11.26
-12.37
-13.67
-15.22
-17.04
-19.04
-21.09
-23.13
-25.18
-27.26
-29.30
-31.01
-31.87
-31.43
-29.50
-26.31
-22.49
-18.73
-15.55
-13.04
-10.91
-8.66
-5.85
-2.27
2.00
6.68
11.43
15.91
19.87
23.10
25.39
26.64
26.80
26.03
24.63
22.99
21.45
20.20
19.32
18.75
18.38
18.10
17.66
16.77
15.10
12.42
8.74
4.41
-0.06
-4.08
-7.20
-9.22
-10.13
-10.01
-8.98
-7.11
-4.47
-1.14
2.67
6.60
10.16
12.81
14.09
13.85
12.21
9.59
6.46
3.19
-0.06
-3.27
-6.40
-9.28
-11.69
-13.45
-14.59
-15.36
-16.06
-16.87
-17.77
-18.62
-19.34
-20.04
-20.96
-22.35
-24.22
-26.15
-27.46
-27.42
-25.54
-21.80
-16.52
-10.30
-3.77
2.55
8.25
13.07
16.84
19.51
21.14
21.86
21.81
21.15
19.95
18.32
16.36
14.14
11.81
9.40
6.92
4.28
1.33
-2.08
-6.06
-10.68
-15.94
-21.65
-27.39
-32.49
-36.11
-37.43
-35.93
-31.59
-24.91
-16.81
-8.32
-0.31
6.66
12.33
16.62
19.58
21.29
21.96
21.92
21.59
21.40
21.60
22.18
22.81
22.98
22.23
20.32
17.36
13.73
9.91
6.31
3.09
0.12
-2.89
-6.24
-10.13
-14.40
-18.67
-22.30
-24.67
-25.35
-24.23
-21.55
-17.79
-13.52
-9.16
-4.95
-0.94
2.93
6.60
9.91
12.65
14.67
16.01
16.95
17.78
18.68
19.58
20.18
20.15
19.29
17.68
15.62
13.48
11.47
9.55
7.53
5.19
2.46
-0.57
-3.74
-6.94
-10.18
-13.44
-16.55
-19.09
-20.50
-20.22
-17.97
-13.89
-8.49
-2.44
3.62
9.23
14.15
18.26
21.50
23.81
25.14
25.47
24.79
23.15
20.65
17.49
14.01
10.59
7.64
5.36
3.74
2.59
1.70
1.00
0.59
0.75
1.64
3.17
4.93
6.27
6.57
5.46
2.88
-0.93
-5.60
-10.69
-15.70
-20.04
-23.06
-24.15
-23.00
-19.72
-14.85
-9.17
-3.46
1.75
6.16
9.68
12.25
13.83
14.32
13.73
12.24
10.33
8.66
7.95
8.71
11.08
14.78
19.23
23.73
27.71
30.85
33.07
34.40
34.86
34.34
32.68
29.78
25.69
20.66
15.08
9.35
3.81
-1.35
-6.15
-10.76
-15.43
-20.27
-25.18
-29.79
-33.55
-35.92
-36.55
-35.45
-32.86
-29.20
-24.84
-20.05
-14.98
-9.81
-4.75
-0.02
4.19
7.83
11.02
13.89
16.49
18.80
20.68
22.01
22.77
23.11
23.26
23.43
23.72
24.15
24.66
25.20
25.73
26.12
26.12
25.35
23.49
20.40
16.26
11.54
6.76
2.33
-1.58
-5.07
-8.27
-11.23
-13.72
-15.35
-15.67
-14.50
-11.93
-8.36
-4.36
-0.45
3.08
6.09
8.62
10.72
12.33
13.34
13.60
13.16
12.28
11.43
11.09
11.56
12.86
14.62
16.29
17.27
17.12
15.77
13.47
10.72
8.03
5.75
3.97
2.47
0.86
-1.31
-4.40
-8.58
-13.77
-19.60
-25.40
-30.29
-33.27
-33.52
-30.60
-24.69
-16.57
-7.41
1.54
9.34
15.49
20.04
23.29
25.71
27.62
29.24
30.58
31.60
32.21
32.37
32.13
31.60
30.93
30.16
29.23
27.97
26.23
24.06
21.63
19.19
16.86
14.47
11.58
7.72
2.64
-3.56
-10.42
-17.32
-23.70
-29.15
-33.40
-36.19
-37.30
-36.55
-33.94
-29.76
-24.51
-18.77
-13.13
-8.00
-3.68
-0.36
1.90
3.12
3.50
3.34
2.94
2.57
2.32
2.14
1.86
1.36
0.56
-0.53
-1.86
-3.33
-4.86
-6.42
-8.05
-9.79
-11.70
-13.90
-16.51
-19.65
-23.35
-27.41
-31.39
-34.58
-36.24
-35.86
-33.38
-29.26
-24.33
-19.39
-14.99
-11.20
-7.81
-4.56
-1.40
1.40
3.42
4.35
4.17
3.21
2.04
1.16
0.82
0.90
1.07
0.93
0.23
-1.04
-2.71
-4.60
-6.67
-9.03
-11.87
-15.30
-19.25
-23.42
-27.35
-30.50
-32.38
-32.65
-31.18
-28.08
-23.65
-18.39
-12.89
-7.74
-3.41
-0.14
2.05
3.32
3.96
4.21
4.30
4.38
4.55
4.85
5.17
5.31
4.95
3.86
1.97
-0.51
-3.08
-5.17
-6.31
-6.32
-5.35
-3.77
-2.07
-0.73
-0.17
-0.73
-2.70
-6.18
-11.04
-16.81
-22.69
-27.75
-31.13
-32.30
-31.10
-27.75
-22.66
-16.30
-9.11
-1.61
5.67
12.12
17.22
20.62
22.30
22.55
21.85
20.74
19.62
18.65
17.80
16.90
15.73
14.09
11.91
9.25
6.27
3.17
0.09
-2.95
-6.06
-9.42
-13.20
-17.46
-22.04
-26.64
-30.75
-33.80
-35.27
-34.82
-32.29
-27.84
-21.88
-14.99
-7.77
-0.76
5.68
11.43
16.50
21.00
24.90
28.03
30.14
31.07
30.90
30.00
28.86
27.88
27.09
26.26
24.98
23.03
20.53
17.94
15.75
14.26
13.39
12.76
11.89
10.48
8.50
6.08
3.46
0.87
-1.52
-3.43
-4.51
-4.33
-2.57
0.79
5.41
10.65
15.76
20.13
23.50
25.95
27.74
29.17
30.43
31.55
32.52
33.29
33.84
34.20
34.43
34.60
34.84
35.18
35.59
35.80
35.43
34.03
31.31
27.23
22.12
16.44
10.65
5.00
-0.47
-5.85
-11.22
-16.48
-21.39
-25.60
-28.86
-31.05
-32.20
-32.42
-31.85
-30.58
-28.70
-26.29
-23.48
-20.43
-17.34
-14.39
-11.73
-9.48
-7.65
-6.16
-4.83
-3.45
-1.88
-0.10
1.73
3.32
4.45
5.02
5.11
4.94
4.72
4.59
4.56
4.59
4.66
4.77
5.01
5.42
6.02
6.73
7.46
8.10
8.63
9.12
9.81
11.00
12.99
16.00
20.02
24.78
29.82
34.58
38.53
41.20
42.25
41.48
38.93
34.91
30.07
25.22
21.09
18.05
15.96
14.31
12.51
10.30
7.88
5.78
4.49
4.15
4.45
4.73
4.27
2.55
-0.67
-5.36
-11.26
-18.00
-25.04
-31.74
-37.35
-41.17
-42.67
-41.57
-37.87
-31.82
-23.92
-14.81
-5.26
4.02
12.58
20.17
26.79
32.42
36.86
39.67
40.40
38.82
35.29
30.63
25.86
21.75
18.46
15.50
11.99
7.08
0.30
-8.36
-18.61
-30.01
-42.04
-54.05
-65.19
-74.39
-80.60
-83.13
-81.94
-77.67
-71.41
-64.38
-57.51
-51.28
-45.73
-40.68
-35.91
-31.30
-26.84
-22.63
-18.81
-15.50
-12.77
-10.71
-9.35
-8.64
-8.51
-8.77
-9.21
-9.64
-9.95
-10.17
-10.49
-11.17
-12.44
-14.39
-16.90
-19.62
-22.06
-23.74
-24.29
-23.59
-21.77
-19.14
-16.06
-12.88
-9.76
-6.78
-3.97
-1.37
0.94
2.86
4.40
5.68
6.87
8.12
9.46
10.71
11.69
12.23
12.35
12.26
12.26
12.57
13.20
13.98
14.56
14.57
13.71
11.90
9.33
6.43
3.84
2.17
1.85
2.99
5.29
8.18
11.07
13.44
15.10
16.11
16.69
17.05
17.26
17.33
17.14
16.66
15.81
14.56
12.84
10.60
7.82
4.55
0.96
-2.73
-6.33
-9.70
-12.78
-15.60
-18.16
-20.44
-22.36
-23.91
-25.21
-26.47
-28.02
-29.97
-32.18
-34.13
-34.98
-33.92
-30.45
-24.60
-17.02
-8.71
-0.75
6.10
11.48
15.46
18.35
20.48
22.07
23.23
23.98
24.33
24.29
23.87
23.06
21.82
20.15
18.10
15.75
13.22
10.52
7.58
4.23
0.25
-4.51
-10.13
-16.46
-23.13
-29.41
-34.37
-37.09
-36.94
-33.87
-28.46
-21.72
-14.72
-8.29
-2.77
1.83
5.65
8.73
10.97
12.17
12.13
10.86
8.50
5.38
1.89
-1.61
-4.79
-7.46
-9.51
-10.91
-11.74
-12.23
-12.78
-13.94
-16.23
-19.96
-24.98
-30.62
-35.85
-39.51
-40.71
-39.07
-34.81
-28.61
-21.33
-13.93
-7.23
-1.97
1.34
2.41
1.32
-1.46
-5.21
-9.08
-12.35
-14.58
-15.73
-16.02
-15.86
-15.65
-15.70
-16.15
-17.01
-18.24
-19.76
-21.56
-23.70
-26.31
-29.42
-32.86
-36.21
-38.81
-39.94
-39.06
-35.97
-30.87
-24.24
-16.65
-8.61
-0.52
7.21
14.17
19.93
24.16
26.75
27.94
28.19
28.03
27.80
27.52
27.00
26.00
24.42
22.42
20.27
18.20
16.21
14.10
11.48
8.04
3.58
-1.80
-7.70
-13.56
-18.65
-22.24
-23.71
-22.71
-19.16
-13.39
-6.01
2.19
10.38
17.89
24.24
29.25
32.91
35.35
36.79
37.45
37.60
37.54
37.52
37.66
37.91
38.01
37.62
36.48
34.60
32.22
29.69
27.28
24.99
22.52
19.43
15.32
10.03
3.67
-3.44
-10.83
-17.95
-24.17
-28.84
-31.37
-31.45
-29.19
-25.20
-20.36
-15.51
-11.16
-7.33
-3.73
-0.02
3.94
7.98
11.75
14.95
17.47
19.42
21.05
22.54
23.95
25.19
26.15
26.78
27.12
27.27
27.25
27.05
26.53
25.51
23.87
21.64
18.94
15.95
12.72
9.19
5.12
0.33
-5.28
-11.43
-17.58
-22.95
-26.77
-28.51
-28.01
-25.54
-21.61
-16.85
-11.80
-6.82
-2.18
1.92
5.22
7.45
8.45
8.32
7.41
6.22
5.33
5.12
5.68
6.82
8.16
9.25
9.76
9.53
8.61
7.25
5.66
4.02
2.31
0.41
-1.90
-4.79
-8.34
-12.49
-17.07
-21.76
-26.10
-29.51
-31.35
-31.07
-28.42
-23.52
-16.90
-9.34
-1.62
5.62
11.99
17.35
21.65
24.85
26.87
27.67
27.32
26.11
24.49
22.94
21.77
20.97
20.26
19.20
17.48
14.99
11.93
8.64
5.47
2.55
-0.17
-2.96
-6.16
-10.06
-14.81
-20.38
-26.57
-33.02
-39.22
-44.62
-48.59
-50.55
-50.12
-47.17
-41.90
-34.75
-26.36
-17.38
-8.40
0.10
7.70
14.04
18.87
22.11
23.92
24.75
25.21
25.83
26.94
28.50
30.18
31.51
32.11
31.82
30.74
29.08
26.97
24.42
21.27
17.33
12.53
6.97
0.87
-5.54
-12.13
-18.88
-25.77
-32.67
-39.13
-44.51
-48.05
-49.16
-47.56
-43.37
-37.02
-29.12
-20.34
-11.28
-2.48
5.60
12.62
18.42
23.00
26.51
29.18
31.21
32.78
34.10
35.38
36.84
38.68
41.02
43.82
46.88
49.85
52.36
54.07
54.78
54.45
53.22
51.27
48.77
45.82
42.48
38.79
34.82
30.66
26.45
22.36
18.58
15.38
13.07
11.90
11.96
13.11
15.03
17.34
19.73
22.01
24.06
25.76
26.91
27.24
26.56
24.89
22.51
19.87
17.49
15.87
15.29
15.80
17.10
18.63
19.66
19.50
17.77
14.51
10.19
5.54
1.25
-2.29
-5.01
-7.17
-9.18
-11.42
-14.17
-17.63
-21.89
-26.99
-32.73
-38.67
-44.04
-47.93
-49.51
-48.34
-44.55
-38.72
-31.72
-24.35
-17.18
-10.47
-4.37
0.98
5.41
8.74
10.92
12.11
12.66
12.93
13.15
13.37
13.48
13.35
12.87
12.01
10.79
9.25
7.42
5.39
3.31
1.29
-0.59
-2.47
-4.59
-7.26
-10.71
-14.93
-19.68
-24.52
-28.90
-32.26
-34.17
-34.29
-32.53
-29.05
-24.22
-18.58
-12.73
-7.20
-2.37
1.45
4.13
5.65
6.11
5.82
5.15
4.50
4.08
3.93
3.87
3.68
3.22
2.55
1.87
1.42
1.34
1.55
1.79
1.72
1.06
-0.29
-2.27
-4.68
-7.39
-10.19
-12.93
-15.34
-16.99
-17.42
-16.28
-13.47
-9.20
-3.93
1.84
7.61
12.99
17.64
21.30
23.84
25.36
26.16
26.63
26.95
27.06
26.53
24.89
21.82
17.43
12.18
6.65
1.32
-3.64
-8.35
-13.02
-17.83
-22.84
-27.98
-33.12
-38.11
-42.77
-46.79
-49.75
-51.14
-50.51
-47.60
-42.47
-35.58
-27.67
-19.57
-12.13
-6.05
-1.98
-0.41
-1.62
-5.44
-11.04
-16.86
-20.91
-21.31
-16.86
-7.45
5.99
21.77
37.92
52.52
63.84
70.41
71.23
66.03
55.55
41.69
27.07
14.37
5.57
1.45
1.47
4.26
8.21
11.91
14.53
15.73
15.54
14.12
11.80
8.99
6.16
3.62
1.27
-1.46
-5.49
-11.66
-20.15
-30.20
-40.27
-48.50
-53.55
-55.08
-53.74
-50.59
-46.40
-41.29
-34.77
-26.39
-16.24
-5.19
5.39
14.19
20.48
24.19
25.74
25.63
24.28
22.19
20.13
19.31
21.13
26.70
36.37
49.44
64.37
79.16
91.95
101.45
107.20
109.52
109.31
107.65
105.54
103.61
102.01
100.49
98.53
95.60
91.37
85.78
79.05
71.53
63.55
55.32
47.03
38.89
31.24
24.35
18.35
13.02
7.90
2.48
-3.31
-8.99
-13.53
-15.74
-14.89
-11.21
-5.94
-1.07
1.45
0.47
-3.79
-9.87
-15.60
-19.12
-19.68
-17.82
-15.14
-13.35
-13.84
-17.35
-24.21
-34.42
-47.56
-62.56
-77.53
-90.23
-98.86
-102.97
-103.79
-103.75
-105.39
-110.26
-118.46
-128.84
-139.77
-149.91
-158.46
-165.14
-169.86
-172.47
-172.78
-170.84
-167.10
-162.46
-158.15
-155.13
-153.77
-153.56
-153.52
-152.66
-150.49
-146.91
-141.81
-134.68
-124.43
-110.07
-91.42
-69.44
-46.04
-23.19
-2.15
16.80
33.99
49.81
64.35
77.59
89.69
101.21
112.77
124.42
135.27
143.82
148.75
149.71
147.57
143.93
140.17
136.73
133.04
127.99
120.73
111.28
100.55
89.91
80.41
72.22
64.72
56.95
48.36
39.22
30.54
23.52
18.76
15.80
13.07
8.54
0.55
-11.40
-26.47
-42.89
-58.58
-71.85
-81.80
-88.27
-91.63
-92.48
-91.50
-89.32
-86.55
-83.73
-81.25
-79.17
-77.19
-74.65
-70.77
-64.96
-57.01
-47.22
-36.30
-25.05
-14.15
-3.88
5.80
15.11
24.21
33.04
41.33
48.71
54.89
59.71
63.17
65.38
66.57
67.11
67.48
68.22
69.79
72.46
76.23
80.77
85.62
90.26
94.26
97.36
99.39
100.31
100.03
98.38
95.11
90.04
83.08
74.40
64.31
53.21
41.50
29.54
17.70
6.38
-4.03
-13.24
-21.30
-28.67
-36.10
-44.41
-54.14
-65.21
-76.90
-88.01
-97.17
-103.32
-106.00
-105.46
-102.44
-97.85
-92.43
-86.65
-80.74
-74.85
-69.19
-64.01
-59.46
-55.51
-51.94
-48.46
-44.88
-41.23
-37.73
-34.72
-32.48
-31.14
-30.64
-30.82
-31.49
-32.47
-33.60
-34.80
-36.04
-37.28
-38.47
-39.43
-39.82
-39.17
-37.02
-33.09
-27.36
-20.14
-11.99
-3.56
4.48
11.65
17.65
22.36
25.82
28.14
29.45
29.91
29.67
28.91
27.81
26.58
25.38
24.28
23.21
22.01
20.48
18.48
15.91
12.72
8.88
4.42
-0.57
-5.85
-11.01
-15.54
-18.96
-20.93
-21.43
-20.69
-19.16
-17.34
-15.63
-14.22
-13.17
-12.52
-12.34
-12.85
-14.32
-17.01
-20.94
-25.86
-31.41
-37.24
-43.30
-49.83
-57.19
-65.63
-75.11
-85.33
-95.87
-106.41
-116.64
-126.13
-134.12
-139.41
-140.51
-135.93
-124.49
-105.58
-79.17
-45.86
-6.87
35.99
80.24
123.07
161.67
193.75
218.04
234.31
243.21
245.81
243.23
236.54
226.70
214.70
201.50
187.96
174.68
161.98
149.93
138.62
128.20
118.85
110.49
102.73
94.92
86.54
77.57
68.56
60.45
53.94
49.18
45.62
42.27
38.19
32.82
26.17
18.53
10.18
1.08
-9.15
-21.05
-35.09
-51.34
-69.51
-88.93
-108.75
-128.01
-145.70
-160.73
-172.06
-178.82
-180.63
-177.91
-171.91
-164.50
-157.57
-152.35
-148.95
-146.31
-142.70
-136.44
-126.66
-113.52
-98.03
-81.47
-64.83
-48.62
-32.95
-17.95
-4.07
8.03
17.72
24.87
30.00
34.09
38.08
42.38
46.69
50.26
52.40
53.01
52.74
52.67
53.70
56.11
59.34
62.30
63.90
63.56
61.43
58.23
55.03
52.88
52.63
54.82
59.73
67.26
76.81
87.28
97.18
104.90
109.14
109.30
105.53
98.62
89.64
79.68
69.55
59.81
50.72
42.32
34.51
27.07
19.81
12.61
5.55
-1.17
-7.38
-13.10
-18.65
-24.53
-31.17
-38.63
-46.44
-53.58
-58.82
-61.07
-59.69
-54.65
-46.49
-36.19
-24.85
-13.53
-3.16
5.54
12.12
16.39
18.50
18.90
18.22
17.11
16.03
15.14
14.37
13.48
12.24
10.53
8.37
5.83
3.00
-0.16
-3.74
-7.89
-12.77
-18.38
-24.55
-30.86
-36.64
-41.07
-43.32
-42.72
-38.99
-32.32
-23.34
-13.04
-2.59
6.91
14.64
20.17
23.46
24.82
24.74
23.75
22.28
20.60
18.86
17.15
15.43
13.61
11.59
9.29
6.75
4.28
2.31
1.20
0.93
0.97
0.40
-1.70
-5.77
-11.40
-17.47
-22.42
-24.89
-24.14
-20.24
-13.96
-6.37
1.42
8.56
14.43
18.70
21.27
22.25
21.96
20.87
19.47
18.14
17.02
15.95
14.61
12.61
9.76
6.16
2.18
-1.66
-5.03
-7.88
-10.60
-13.76
-17.92
-23.28
-29.49
-35.75
-40.96
-44.07
-44.42
-41.83
-36.70
-29.90
-22.44
-15.31
-9.24
-4.62
-1.54
0.09
0.39
-0.53
-2.65
-5.97
-10.36
-15.59
-21.27
-26.93
-32.26
-37.14
-41.83
-46.82
-52.68
-59.79
-68.04
-76.76
-84.82
-90.92
-93.89
-92.85
-87.31
-77.15
-62.54
-43.88
-21.86
2.57
28.13
53.37
76.86
97.44
114.58
128.41
139.61
149.12
157.67
165.49
172.30
177.59
180.92
182.30
182.10
180.89
179.12
176.83
173.75
169.32
162.89
153.60
140.49
122.62
99.58
72.12
42.39
13.61
-10.91
-28.97
-40.26
-46.24
-49.29
-51.53
-54.03
-56.78
-59.19
-60.84
-61.86
-62.77
-64.07
-65.88
-67.86
-69.60
-70.93
-72.09
-73.71
-76.41
-80.55
-85.98
-92.04
-97.78
-102.26
-104.87
-105.56
-104.92
-103.98
-103.87
-105.32
-108.33
-112.02
-114.79
-114.85
-110.82
-102.21
-89.51
-74.01
-57.28
-40.73
-25.40
-11.89
-0.63
8.08
14.03
17.28
18.19
17.47
16.02
14.64
13.86
13.93
14.82
16.31
18.08
19.69
20.61
20.45
18.94
16.12
12.24
7.68
2.82
-2.00
-6.31
-9.53
-10.93
-9.92
-6.29
-0.43
6.76
14.18
20.94
26.59
31.01
34.23
36.21
36.87
36.17
34.28
31.60
28.63
25.73
22.99
20.39
17.87
15.52
13.52
12.02
10.94
10.01
8.74
6.65
3.45
-0.88
-6.06
-11.44
-16.19
-19.38
-20.22
-18.27
-13.64
-6.88
1.10
9.26
16.70
22.70
26.85
29.00
29.26
27.98
25.68
22.93
20.25
17.99
16.35
15.27
14.61
14.14
13.66
13.02
12.16
11.03
9.58
7.65
4.96
1.24
-3.69
-9.65
-15.99
-21.68
-25.54
-26.57
-24.37
-19.20
-11.95
-3.85
3.86
10.23
14.72
17.18
17.73
16.72
14.56
11.71
8.58
5.48
2.61
0.04
-2.21
-4.18
-5.89
-7.43
-8.91
-10.56
-12.67
-15.54
-19.35
-24.12
-29.57
-35.15
-40.07
-43.42
-44.40
-42.51
-37.76
-30.61
-21.99
-12.94
-4.45
2.75
8.24
11.93
13.88
14.26
13.31
11.33
8.64
5.56
2.42
-0.55
-3.29
-5.82
-8.25
-10.66
-13.13
-15.72
-18.52
-21.70
-25.42
-29.73
-34.39
-38.78
-42.01
-43.10
-41.30
-36.41
-28.86
-19.60
-9.81
-0.58
7.28
13.37
17.55
19.88
20.52
19.70
17.77
15.14
12.21
9.31
6.53
3.80
0.94
-2.25
-5.87
-9.95
-14.48
-19.49
-25.08
-31.34
-38.20
-45.35
-52.14
-57.62
-60.74
-60.69
-57.20
-50.69
-42.11
-32.68
-23.42
-14.95
-7.44
-0.76
5.16
10.22
14.19
16.87
18.32
19.02
19.69
21.01
23.32
26.37
29.39
31.31
31.16
28.34
22.71
14.55
4.45
-6.68
-17.55
-26.73
-33.01
-36.00
-36.47
-36.22
-37.38
-41.49
-48.75
-57.96
-67.08
-74.16
-78.16
-79.18
-78.25
-76.80
-76.03
-76.51
-78.07
-79.72
-79.97
-77.11
-69.79
-57.31
-39.75
-17.93
6.83
32.88
58.33
81.05
98.87
109.99
113.51
109.94
101.27
90.54
81.06
75.42
74.81
78.83
85.75
93.23
99.10
101.92
101.24
97.46
91.48
84.22
76.42
68.53
60.84
53.68
47.39
42.32
38.55
35.90
33.91
32.06
30.03
27.76
25.42
23.21
21.14
18.86
15.80
11.40
5.41
-1.79
-9.23
-15.53
-19.44
-20.18
-17.75
-12.83
-6.48
0.24
6.53
11.86
15.87
18.21
18.69
17.35
14.72
11.69
9.26
8.09
8.29
9.40
10.67
11.44
11.45
10.87
10.10
9.58
9.52
9.79
9.96
9.38
7.37
3.49
-2.17
-8.85
-15.14
-19.38
-20.10
-16.57
-9.08
1.15
12.35
22.61
30.36
34.55
34.75
31.10
24.37
15.83
7.07
-0.33
-5.30
-7.52
-7.43
-6.00
-4.20
-2.67
-1.57
-0.65
0.38
1.68
3.08
4.22
4.61
3.84
1.65
-1.96
-6.63
-11.68
-16.15
-18.98
-19.36
-16.97
-12.22
-6.07
0.27
5.95
10.82
15.59
21.43
29.39
39.77
51.88
64.18
74.83
82.14
85.02
83.07
76.49
65.95
52.53
37.64
22.85
9.64
-0.96
-8.64
-13.88
-17.75
-21.46
-26.08
-32.15
-39.60
-47.66
-55.03
-60.10
-61.39
-57.94
-49.69
-37.54
-23.15
-8.52
4.47
14.45
20.74
23.31
22.67
19.69
15.47
11.13
7.73
6.06
6.49
8.88
12.65
16.87
20.50
22.64
22.76
20.81
17.20
12.56
7.56
2.65
-2.07
-6.77
-11.82
-17.57
-24.12
-31.17
-38.01
-43.60
-46.85
-46.88
-43.31
-36.32
-26.64
-15.35
-3.64
7.38
16.78
23.91
28.40
30.19
29.53
26.91
22.95
18.24
13.17
7.93
2.54
-3.01
-8.73
-14.51
-20.13
-25.33
-29.81
-33.37
-35.93
-37.55
-38.50
-39.22
-40.24
-42.11
-45.22
-49.61
-54.86
-59.98
-63.71
-64.79
-62.37
-56.27
-47.01
-35.66
-23.45
-11.50
-0.66
8.56
15.85
21.11
24.34
25.75
25.74
24.83
23.58
22.38
21.39
20.48
19.38
17.80
15.66
13.11
10.43
7.89
5.57
3.38
1.06
-1.58
-4.65
-8.09
-11.77
-15.52
-19.13
-22.25
-24.41
-25.03
-23.61
-19.94
-14.21
-7.07
0.64
8.03
14.41
19.42
22.97
25.21
26.33
26.57
26.12
25.17
23.90
22.44
20.87
19.24
17.56
15.79
13.89
11.79
9.41
6.72
3.75
0.55
-2.83
-6.34
-9.94
-13.56
-17.04
-20.11
-22.45
-23.80
-23.96
-22.91
-20.71
-17.53
-13.56
-9.02
-4.25
0.37
4.39
7.45
9.43
10.40
10.62
10.40
10.03
9.72
9.64
9.82
10.17
10.47
10.41
9.67
8.12
5.85
3.15
0.36
-2.25
-4.64
-6.96
-9.48
-12.38
-15.67
-19.14
-22.38
-24.91
-26.28
-26.15
-24.37
-21.03
-16.45
-11.09
-5.49
-0.21
4.29
7.73
9.99
11.18
11.54
11.30
10.72
9.92
8.97
7.88
6.62
5.17
3.54
1.77
-0.08
-1.91
-3.60
-5.10
-6.43
-7.76
-9.32
-11.35
-13.97
-17.06
-20.32
-23.24
-25.32
-26.10
-25.35
-23.07
-19.48
-14.95
-9.96
-5.00
-0.50
3.17
5.84
7.44
8.06
7.88
7.12
5.98
4.64
3.24
1.81
0.37
-1.19
-2.97
-5.06
-7.42
-9.94
-12.41
-14.67
-16.72
-18.69
-20.86
-23.46
-26.63
-30.20
-33.80
-36.86
-38.72
-38.80
-36.71
-32.45
-26.44
-19.45
-12.41
-6.08
-0.93
3.00
5.86
7.87
9.10
9.52
9.03
7.70
5.77
3.66
1.81
0.42
-0.55
-1.47
-2.77
-4.86
-7.88
-11.65
-15.74
-19.61
-22.91
-25.60
-28.04
-30.75
-34.16
-38.24
-42.50
-46.03
-47.96
-47.68
-45.06
-40.40
-34.43
-28.34
-23.79
-22.71
-26.71
-36.27
-50.17
-65.53
-78.65
-86.30
-86.87
-80.70
-69.63
-55.99
-41.66
-27.75
-14.79
-3.28
6.10
12.44
15.01
13.53
8.38
0.53
-8.68
-17.79
-25.48
-30.74
-33.01
-32.20
-28.67
-23.06
-16.01
-8.13
0.21
8.66
16.81
24.16
30.18
34.46
37.02
38.27
38.90
39.58
40.71
42.24
43.78
44.84
45.06
44.36
42.85
40.70
38.01
34.68
30.48
25.21
18.74
11.02
2.10
-7.85
-18.39
-28.74
-37.66
-43.74
-45.73
-43.04
-35.91
-25.38
-12.96
-0.08
12.16
23.09
32.35
39.74
45.13
48.48
49.96
50.03
49.40
48.81
48.84
49.65
50.93
51.99
52.04
50.43
46.96
41.86
35.66
28.95
22.11
15.24
8.19
0.70
-7.41
-16.17
-25.34
-34.42
-42.62
-48.96
-52.42
-52.19
-47.92
-39.80
-28.60
-15.46
-1.63
11.73
23.73
33.72
41.34
46.46
49.17
49.86
49.12
47.63
46.08
44.96
44.42
44.35
44.34
43.89
42.45
39.67
35.40
29.85
23.53
17.18
11.45
6.72
2.80
-0.98
-5.51
-11.53
-19.19
-27.87
-36.31
-42.96
-46.46
-46.11
-42.00
-34.93
-25.98
-16.17
-6.23
3.42
12.42
20.31
26.49
30.37
31.71
30.84
28.57
25.99
24.08
23.36
23.78
24.80
25.69
25.80
24.82
22.78
20.02
16.91
13.67
10.30
6.62
2.38
-2.54
-8.14
-14.29
-20.74
-27.06
-32.64
-36.61
-38.00
-36.00
-30.30
-21.26
-9.87
2.50
14.51
25.07
33.52
39.63
43.39
45.04
44.89
43.44
41.33
39.23
37.66
36.83
36.50
36.10
34.98
32.69
29.15
24.65
19.72
14.84
10.35
6.28
2.46
-1.44
-5.79
-10.89
-16.78
-23.19
-29.44
-34.62
-37.77
-38.22
-35.71
-30.43
-22.97
-14.12
-4.77
4.15
11.79
17.44
20.67
21.46
20.20
17.58
14.40
11.25
8.48
6.11
3.99
1.90
-0.29
-2.65
-5.12
-7.60
-10.01
-12.31
-14.50
-16.72
-19.23
-22.35
-26.31
-31.03
-35.95
-40.08
-42.21
-41.31
-36.94
-29.39
-19.64
-9.02
1.12
9.75
16.23
20.42
22.54
23.06
22.52
21.40
19.98
18.37
16.54
14.51
12.37
10.26
8.28
6.37
4.32
1.86
-1.19
-4.86
-9.05
-13.68
-18.73
-24.20
-29.90
-35.23
-39.23
-40.84
-39.21
-34.18
-26.28
-16.67
-6.66
2.58
10.33
16.25
20.28
22.52
23.16
22.52
21.02
19.15
17.28
15.59
14.00
12.29
10.27
7.83
4.99
1.81
-1.70
-5.60
-10.02
-15.13
-21.02
-27.67
-34.81
-41.82
-47.72
-51.30
-51.42
-47.38
-39.17
-27.55
-13.81
0.61
14.50
26.96
37.43
45.61
51.29
54.46
55.30
54.20
51.66
48.11
43.87
39.14
34.13
29.09
24.38
20.32
17.00
14.26
11.66
8.64
4.65
-0.66
-7.40
-15.31
-23.74
-31.67
-37.86
-41.20
-41.00
-37.24
-30.58
-22.09
-12.94
-4.03
4.09
11.17
17.12
21.81
25.09
26.92
27.39
26.85
25.76
24.41
22.92
21.08
18.59
15.26
11.23
6.89
2.73
-0.96
-4.27
-7.62
-11.55
-16.45
-22.40
-29.14
-36.08
-42.46
-47.41
-50.14
-50.02
-46.83
-40.79
-32.53
-22.96
-13.02
-3.54
4.82
11.52
16.26
18.94
19.77
19.23
17.94
16.51
15.36
14.73
14.61
14.90
15.34
15.60
15.31
14.15
12.01
8.99
5.40
1.54
-2.45
-6.60
-10.96
-15.46
-19.76
-23.17
-24.95
-24.43
-21.35
-15.86
-8.54
-0.15
8.52
16.84
24.41
30.96
36.23
39.95
41.84
41.74
39.79
36.46
32.49
28.68
25.60
23.42
21.88
20.52
18.87
16.69
14.00
10.93
7.62
4.03
-0.00
-4.69
-10.24
-16.73
-24.09
-32.10
-40.27
-47.82
-53.71
-56.87
-56.42
-52.02
-43.98
-33.22
-21.01
-8.64
2.80
12.55
20.14
25.36
28.23
28.95
27.94
25.87
23.44
21.36
20.10
19.83
20.38
21.29
22.00
22.06
21.16
19.27
16.48
12.95
8.87
4.39
-0.30
-5.08
-9.83
-14.58
-19.47
-24.66
-30.12
-35.56
-40.29
-43.42
-44.06
-41.65
-36.12
-27.96
-18.03
-7.35
3.18
12.89
21.42
28.59
34.30
38.46
41.02
42.02
41.68
40.43
38.72
36.96
35.37
33.93
32.47
30.78
28.77
26.45
23.93
21.30
18.50
15.38
11.71
7.37
2.41
-2.96
-8.51
-14.12
-19.96
-26.23
-33.00
-39.89
-45.93
-49.87
-50.54
-47.42
-40.80
-31.75
-21.60
-11.51
-2.19
6.15
13.48
19.72
24.58
27.79
29.20
29.05
27.91
26.50
25.37
24.71
24.35
23.88
22.92
21.30
19.04
16.32
13.35
10.25
7.05
3.73
0.22
-3.50
-7.43
-11.57
-15.97
-20.72
-25.83
-31.12
-36.10
-40.00
-41.91
-41.09
-37.22
-30.62
-22.07
-12.63
-3.27
5.30
12.71
18.79
23.40
26.45
27.87
27.84
26.73
25.13
23.57
22.41
21.66
21.07
20.32
19.17
17.55
15.53
13.24
10.78
8.14
5.27
2.08
-1.50
-5.55
-10.11
-15.21
-20.88
-27.08
-33.65
-40.23
-46.23
-50.83
-53.17
-52.55
-48.71
-41.92
-32.96
-22.89
-12.73
-3.26
5.11
12.15
17.79
21.96
24.60
25.80
25.85
25.18
24.27
23.50
23.05
22.85
22.70
22.36
21.63
20.42
18.64
16.20
13.07
9.33
5.15
0.81
-3.37
-7.27
-10.99
-14.85
-19.21
-24.37
-30.33
-36.77
-43.07
-48.40
-51.79
-52.44
-49.84
-43.97
-35.34
-24.92
-13.87
-3.32
5.91
13.36
18.92
22.77
25.21
26.59
27.20
27.30
27.02
26.47
25.75
24.94
24.17
23.51
22.93
22.27
21.30
19.80
17.64
14.88
11.66
8.17
4.56
0.85
-2.96
-6.96
-11.20
-15.74
-20.60
-25.84
-31.39
-37.05
-42.32
-46.44
-48.52
-47.81
-44.01
-37.42
-28.89
-19.51
-10.31
-1.98
5.20
11.19
16.01
19.62
21.92
22.90
22.73
21.80
20.59
19.53
18.84
18.57
18.60
18.70
18.64
18.19
17.18
15.55
13.37
10.78
7.95
5.01
2.02
-1.04
-4.16
-7.37
-10.76
-14.52
-18.93
-24.19
-30.21
-36.44
-41.89
-45.37
-45.93
-43.12
-37.22
-29.06
-19.76
-10.39
-1.81
5.44
11.05
14.89
16.97
17.51
16.90
15.72
14.55
13.86
13.86
14.50
15.52
16.58
17.36
17.69
17.52
16.88
15.85
14.48
12.85
11.01
9.02
6.92
4.73
2.35
-0.36
-3.61
-7.57
-12.30
-17.57
-22.85
-27.29
-29.93
-29.96
-27.06
-21.58
-14.41
-6.71
0.51
6.71
11.78
15.89
19.23
21.78
23.36
23.82
23.25
22.01
20.63
19.53
18.85
18.44
17.95
17.07
15.61
13.60
11.13
8.29
5.15
1.73
-1.87
-5.51
-8.96
-12.07
-14.78
-17.21
-19.60
-22.16
-24.95
-27.77
-30.09
-31.23
-30.50
-27.49
-22.25
-15.28
-7.41
0.47
7.66
13.71
18.42
21.73
23.58
24.01
23.20
21.57
19.69
18.15
17.26
16.99
16.99
16.79
16.05
14.68
12.81
10.67
8.47
6.28
4.07
1.70
-1.01
-4.26
-8.21
-12.91
-18.22
-23.68
-28.51
-31.84
-32.90
-31.30
-27.16
-21.06
-13.88
-6.49
0.41
6.39
11.22
14.81
17.14
18.32
18.54
18.15
17.53
16.99
16.69
16.61
16.67
16.74
16.76
16.65
16.31
15.55
14.12
11.75
8.26
3.65
-1.93
-8.14
-14.54
-20.56
-25.59
-29.03
-30.36
-29.31
-25.93
-20.60
-13.98
-6.85
0.09
6.28
11.38
15.25
17.82
19.12
19.28
18.53
17.14
15.42
13.59
11.77
10.03
8.29
6.44
4.26
1.48
-2.18
-6.91
-12.68
-19.29
-26.42
-33.78
-41.17
-48.43
-55.35
-61.53
-66.41
-69.39
-70.06
-68.25
-64.04
-57.71
-49.62
-40.37
-30.79
-22.03
-15.42
-12.11
-12.67
-16.83
-23.46
-30.94
-37.64
-42.33
-44.38
-43.76
-40.83
-36.18
-30.51
-24.60
-19.16
-14.89
-12.27
-11.55
-12.69
-15.40
-19.13
-23.13
-26.53
-28.42
-28.06
-25.07
-19.45
-11.63
-2.21
8.13
18.82
29.33
39.15
47.68
54.28
58.38
59.63
58.01
53.96
48.22
41.68
35.10
29.03
23.60
18.64
13.83
8.89
3.73
-1.54
-6.67
-11.50
-16.12
-20.77
-25.76
-31.16
-36.63
-41.45
-44.71
-45.66
-43.97
-39.79
-33.67
-26.24
-18.03
-9.36
-0.43
8.51
17.01
24.42
30.07
33.47
34.56
33.72
31.68
29.24
27.01
25.26
23.85
22.44
20.60
18.05
14.70
10.66
6.21
1.75
-2.35
-5.74
-8.29
-10.08
-11.50
-12.99
-14.96
-17.52
-20.35
-22.84
-24.25
-23.99
-21.81
-17.91
-12.79
-7.07
-1.24
4.45
9.90
15.02
19.53
22.98
24.85
24.94
23.50
21.19
18.88
17.23
16.47
16.36
16.33
15.78
14.32
11.82
8.55
4.98
1.77
-0.42
-1.17
-0.45
1.25
3.12
4.19
3.66
1.09
-3.53
-9.74
-16.75
-23.47
-28.65
-31.19
-30.35
-26.04
-18.82
-9.80
-0.27
8.56
15.89
21.29
24.72
26.33
26.40
25.32
23.53
21.53
19.73
18.42
17.65
17.29
17.08
16.73
16.03
14.85
13.12
10.89
8.25
5.27
2.02
-1.46
-5.17
-9.14
-13.40
-18.04
-23.15
-28.85
-35.10
-41.59
-47.67
-52.42
-54.89
-54.40
-50.69
-44.02
-34.96
-24.22
-12.50
-0.49
11.16
21.75
30.64
37.36
41.79
44.13
44.85
44.45
43.38
41.89
40.10
38.09
35.95
33.85
31.92
30.17
28.48
26.61
24.34
21.66
18.78
16.04
13.75
11.89
10.13
7.83
4.29
-0.90
-7.65
-15.30
-22.70
-28.50
-31.46
-30.75
-26.18
-18.24
-7.79
4.19
16.91
29.91
42.89
55.50
67.15
77.07
84.47
88.90
90.51
90.05
88.70
87.74
88.21
90.71
95.24
101.28
107.76
113.20
116.02
114.85
108.89
98.16
83.46
66.13
47.70
29.51
12.51
-2.66
-15.61
-26.00
-33.56
-38.15
-39.92
-39.38
-37.22
-34.19
-30.75
-27.07
-23.00
-18.37
-13.22
-7.83
-2.75
1.43
4.40
6.24
7.46
8.73
10.58
13.13
15.93
18.09
18.57
16.61
11.92
4.73
-4.37
-14.71
-25.71
-36.99
-48.34
-59.75
-71.38
-83.58
-96.70
-110.85
-125.57
-139.85
-152.27
-161.37
-166.09
-166.02
-161.44
-153.23
-142.64
-131.06
-119.79
-109.78
-101.44
-94.50
-88.07
-80.89
-71.72
-59.87
-45.52
-29.82
-14.60
-1.72
7.48
12.68
14.46
13.98
12.31
10.07
7.25
3.58
-1.12
-6.62
-12.41
-17.87
-22.63
-26.65
-30.03
-32.79
-34.74
-35.36
-34.07
-30.50
-24.70
-17.16
-8.74
-0.41
6.98
12.83
16.89
19.18
19.96
19.56
18.36
16.67
14.75
12.76
10.84
9.01
7.28
5.56
3.72
1.70
-0.53
-2.96
-5.50
-8.15
-10.96
-14.12
-17.87
-22.35
-27.50
-32.85
-37.56
-40.57
-40.93
-38.11
-32.21
-23.92
-14.27
-4.29
5.20
13.68
20.86
26.49
30.44
32.69
33.46
33.24
32.55
31.80
31.09
30.25
29.02
27.26
25.04
22.64
20.33
18.22
16.14
13.71
10.45
5.98
0.11
-7.05
-14.98
-22.77
-29.21
-33.01
-33.19
-29.38
-22.02
-12.20
-1.32
9.34
18.97
27.20
34.05
39.55
43.70
46.39
47.55
47.36
46.17
44.48
42.74
41.13
39.58
37.79
35.45
32.43
28.80
24.79
20.66
16.50
12.17
7.37
1.71
-5.07
-13.00
-21.76
-30.68
-38.76
-44.90
-48.15
-47.93
-44.19
-37.41
-28.38
-18.02
-7.18
3.42
13.18
21.59
28.28
33.07
36.10
37.75
38.56
38.94
39.12
39.10
38.68
37.72
36.09
33.77
30.81
27.30
23.41
19.31
15.17
11.03
6.74
1.97
-3.55
-9.85
-16.56
-22.87
-27.86
-30.71
-31.01
-28.81
-24.48
-18.57
-11.64
-4.28
2.89
9.19
14.01
16.93
17.91
17.32
15.81
14.11
12.70
11.75
11.08
10.30
9.06
7.17
4.78
2.21
-0.14
-2.05
-3.64
-5.33
-7.67
-11.18
-16.00
-21.81
-27.85
-33.03
-36.27
-36.69
-33.86
-27.84
-19.16
-8.66
2.66
13.75
23.69
31.77
37.57
41.03
42.37
42.12
40.90
39.24
37.49
35.73
33.88
31.77
29.32
26.56
23.61
20.59
17.55
14.40
10.98
7.06
2.40
-3.19
-9.75
-17.16
-24.92
-32.17
-37.80
-40.71
-40.19
-36.12
-29.03
-19.83
-9.55
0.93
10.95
19.99
27.58
33.33
36.99
38.60
38.50
37.30
35.67
34.13
32.92
32.02
31.16
30.00
28.26
25.85
22.89
19.61
16.29
13.05
9.84
6.43
2.49
-2.28
-8.01
-14.56
-21.44
-27.81
-32.63
-34.94
-34.11
-30.08
-23.38
-14.94
-5.77
3.26
11.69
19.27
25.91
31.50
35.90
38.98
40.82
41.68
41.98
42.08
42.13
42.02
41.43
40.01
37.52
33.93
29.39
24.14
18.37
12.19
5.62
-1.35
-8.69
-16.38
-24.38
-32.61
-40.99
-49.21
-56.75
-62.84
-66.66
-67.46
-64.89
-59.07
-50.59
-40.35
-29.33
-18.40
-8.19
0.91
8.71
15.10
19.99
23.30
25.08
25.54
25.08
24.19
23.33
22.74
22.40
22.08
21.49
20.43
18.88
16.92
14.71
12.32
9.71
6.73
3.24
-0.82
-5.38
-10.20
-14.99
-19.50
-23.52
-26.93
-29.52
-30.95
-30.75
-28.46
-23.81
-16.94
-8.43
